0.0;-0.428466796875;0.21307373046875;0.0191650390625;0.8778076171875;11.298801659678746;6.303376915815877;8.534405475325674;-0.38916015625;-0.80029296875;0.5869140625;-11.8125;-15.5625;27.0625
0.0;-0.42962646484375;0.21929931640625;0.029296875;0.87548828125;11.415193095274851;6.293521919720572;8.567813304373244;-0.39892578125;-0.80712890625;0.654296875;-32.375;3.75;82.75
0.0;-0.431396484375;0.22137451171875;0.0264892578125;0.8741455078125;11.419891323384409;6.27530091459616;8.54360834353134;-0.30078125;-0.78271484375;0.58544921875;-24.375;15.0;71.9375
0.0;-0.432373046875;0.21783447265625;0.01824951171875;0.874755859375;11.338535341820188;6.267984137654938;8.50928090223474;-0.29931640625;-0.80908203125;0.5595703125;-7.375;24.375;-3.25
0.0;-0.432861328125;0.215576171875;0.0106201171875;0.875244140625;11.274030377558208;6.262643309664202;8.475101444161497;-0.2421875;-0.78759765625;0.57080078125;6.0625;8.875;-42.1875
0.0;-0.434326171875;0.21551513671875;0.005126953125;0.87457275390625;11.242196410152179;6.248521802173089;8.444133126195927;-0.35302734375;-0.8359375;0.5068359375;12.4375;7.375;-40.5
0.0;-0.43670654296875;0.2149658203125;-9.1552734375E-4;0.87353515625;11.200981914583503;6.228833183167439;8.4107464516537;-0.36767578125;-0.82177734375;0.52783203125;0.25;14.9375;-27.0
0.0;-0.4395751953125;0.2119140625;-0.00897216796875;0.872802734375;11.122496755192124;6.20917000894216;8.374342976974104;-0.35791015625;-0.84130859375;0.4716796875;-1.1875;12.6875;-31.5625
0.0;-0.44464111328125;0.20172119140625;-0.0194091796875;0.87249755859375;10.955633897895648;6.1863925197237215;8.346017379377153;-0.33154296875;-0.9208984375;0.54443359375;-2.0;7.25;-46.125
0.0;-0.4512939453125;0.1807861328125;-0.02606201171875;0.87347412109375;10.69959926139536;6.173069489289571;8.369719510253082;-0.30029296875;-1.0546875;0.50244140625;-1.625;-23.9375;-75.75
0.0;-0.45928955078125;0.15386962890625;-0.03167724609375;0.874267578125;10.388391973505698;6.157090997701806;8.415381302832012;-0.22412109375;-0.8642578125;0.451171875;-14.375;-88.75;-88.875
0.0;-0.45556640625;0.1300048828125;-0.03826904296875;0.87982177734375;10.118020608806692;6.20892856083616;8.454149209907278;-0.16064453125;-1.00439453125;0.6064453125;-27.1875;-121.125;-103.75
0.0;-0.44171142578125;0.103271484375;-0.0399169921875;0.8902587890625;9.854718229584124;6.32574193356124;8.527636219913767;-0.37890625;-0.9208984375;0.9248046875;39.0625;-106.9375;-94.25
0.0;-0.4305419921875;0.104248046875;-0.0302734375;0.89599609375;9.92504441568688;6.399488506705932;8.580473316756894;-0.302734375;-1.04345703125;0.80517578125;103.75;-136.3125;-66.9375
0.0;-0.42547607421875;0.10626220703125;-0.009521484375;0.89862060546875;10.05380855850339;6.4373657649460085;8.68599564422906;-0.2919921875;-0.74560546875;0.69677734375;59.5;-24.875;51.9375
0.0;-0.404052734375;0.0518798828125;0.00872802734375;0.9132080078125;9.584340456621309;6.609460687796768;8.925163845886505;-1.01416015625;-0.9697265625;0.6171875;29.375;-77.625;72.4375
0.0;-0.385009765625;0.00262451171875;0.00775146484375;0.9228515625;9.06195708661069;6.7356212475519355;9.035201278559644;-0.19287109375;-0.677734375;0.1669921875;143.6875;-334.8125;-25.75
0.0;-0.37249755859375;-0.02117919921875;0.00274658203125;0.92779541015625;8.786505577660703;6.811404176574048;9.059847280195825;0.51416015625;-0.8154296875;0.4072265625;124.8125;-253.6875;-107.6875
0.0;-0.3665771484375;-0.02850341796875;-0.01031494140625;0.92987060546875;8.652723781150593;6.848296797919073;9.004920304182123;0.60498046875;-0.42431640625;0.6318359375;66.625;-86.5;-50.5625
0.0;-0.390625;-0.0042724609375;-0.0267333984375;0.92010498046875;8.835250984844722;6.701555191511605;8.86851699410385;0.6416015625;-0.5205078125;0.92529296875;16.6875;18.0625;-56.9375
0.0;-0.425048828125;0.01812744140625;-0.04522705078125;0.90380859375;8.967453282766487;6.482096513243386;8.721178307551083;0.154296875;-0.5712890625;1.0966796875;-159.5625;162.0625;-31.5
0.0;-0.4613037109375;0.01812744140625;-0.058349609375;0.8851318359375;8.8754085926879;6.2510378304037815;8.655256486349058;-0.04833984375;-1.00146484375;0.90673828125;-223.1875;153.3125;-49.9375
0.0;-0.525146484375;-9.1552734375E-4;-0.06329345703125;0.8486328125;8.609897968223773;5.835458062728471;8.693699678671319;-0.51513671875;-0.76220703125;0.8603515625;-236.8125;18.9375;-83.9375
0.0;-0.61578369140625;-0.034912109375;-0.06549072265625;0.784423828125;8.221677156360785;5.198521508562628;8.82714032117699;-0.09326171875;-0.68359375;0.2001953125;-412.25;-102.5625;-96.6875
0.0;-0.67462158203125;-0.0545654296875;-0.06732177734375;0.7330322265625;8.01635301394667;4.743887901036672;8.927079865713926;0.08203125;-0.779296875;0.72802734375;-635.125;-194.5625;-137.1875
0.0;-0.728515625;-0.08197021484375;-0.069580078125;0.67657470703125;7.774353569235224;4.280337042586831;9.074118419701598;-0.31787109375;-0.326171875;0.560546875;-449.0625;-117.1875;-91.9375
0.0;-0.775390625;-0.08404541015625;-0.06451416015625;0.62249755859375;7.818854459773008;3.860659697955846;9.146455152562456;0.4375;-1.63330078125;-0.431640625;-430.875;-144.3125;-119.3125
0.0;-0.8057861328125;-0.0794677734375;-0.0902099609375;0.57989501953125;7.625857828419823;3.5657875152210297;9.069144616782554;-0.0654296875;-0.97314453125;-0.2587890625;-404.75;-72.5;7.0625
0.0;-0.8214111328125;-0.06988525390625;-0.15191650390625;0.5452880859375;7.0987091338227355;3.3836209562872854;8.845795035062077;1.31396484375;0.57421875;-0.0068359375;-308.8125;93.125;-49.5625
0.0;-0.835693359375;-0.06341552734375;-0.23193359375;0.49383544921875;6.324013543547937;3.152374113632116;8.603869667212416;-0.23046875;-0.78125;0.328125;-255.5625;293.3125;-179.25
0.0;-0.83868408203125;-0.05767822265625;-0.31829833984375;0.438232421875;5.423867148087433;2.9689434660209195;8.351170935262294;0.71875;-0.58203125;-1.24951171875;-312.1875;369.75;-255.625
0.0;-0.843505859375;-0.0096435546875;-0.3797607421875;0.3797607421875;4.961166458741535;2.8125723000961167;7.9532188793157115;0.43115234375;-0.31640625;-1.37109375;-300.3125;417.75;-290.875
0.0;-0.84576416015625;0.11199951171875;-0.3751220703125;0.36260986328125;5.640834152874591;2.842020042018993;7.31797275202937;0.89404296875;-1.82470703125;-1.11572265625;-404.875;394.875;-39.5625
0.0;-0.84613037109375;0.14019775390625;-0.3360595703125;0.38922119140625;6.264161617531256;2.898077372897918;7.291444379788131;-0.7978515625;-1.04443359375;0.60205078125;-371.1875;236.125;545.6875
0.0;-0.85699462890625;0.09710693359375;-0.3240966796875;0.3887939453125;6.131747403606316;2.8115616514530912;7.5756791713895;0.97021484375;-2.20263671875;-0.76416015625;42.5;-149.0625;275.1875
0.0;-0.86468505859375;0.103759765625;-0.29425048828125;0.39373779296875;6.471415732283451;2.7570258063714492;7.647734473980295;0.578125;-0.03857421875;-0.73876953125;55.9375;-173.9375;-184.625
0.0;-0.85791015625;0.10205078125;-0.25787353515625;0.43255615234375;6.925745116407888;2.9099721455134993;7.7400051201731355;0.35986328125;-1.0244140625;-0.5634765625;-23.5625;-147.75;101.0
0.0;-0.84698486328125;0.13079833984375;-0.23876953125;0.45660400390625;7.343964445022395;3.0352898438846543;7.6350187103900655;0.25634765625;-1.07861328125;-0.59521484375;188.125;-194.625;140.3125
0.0;-0.8262939453125;0.1435546875;-0.24462890625;0.4866943359375;7.466192575926339;3.253095694948057;7.523527644309737;0.91162109375;-1.77880859375;-0.77783203125;88.5;-24.3125;235.0625
0.0;-0.7923583984375;0.147216796875;-0.265380859375;0.52923583984375;7.464951659516554;3.5969141164585867;7.388883543768609;1.10400390625;-1.0849609375;-0.4140625;186.0625;61.125;115.0625
0.0;-0.7568359375;0.1322021484375;-0.265625;0.5823974609375;7.563634831723323;3.9629897568768904;7.413426652104111;0.626953125;-0.95263671875;-0.048828125;304.4375;117.8125;52.6875
0.0;-0.7161865234375;0.1060791015625;-0.26214599609375;0.6380615234375;7.610659398353041;4.357307246889478;7.496270210368376;-0.1171875;-1.36083984375;-0.591796875;378.75;-31.9375;34.125
0.0;-0.67034912109375;0.06695556640625;-0.2589111328125;0.69219970703125;7.526067695319974;4.7738994722284875;7.6195277449544285;0.19970703125;-1.34423828125;-0.22705078125;417.875;-82.0;11.875
0.0;-0.6365966796875;0.02972412109375;-0.2545166015625;0.7274169921875;7.369262247299116;5.0640938755357645;7.741805895576782;-0.11962890625;-1.33251953125;0.00537109375;449.9375;-120.3125;-47.75
0.0;-0.60272216796875;-0.00537109375;-0.2530517578125;0.75677490234375;7.175054787055749;5.3366410386960785;7.832161548733593;0.32470703125;-0.80859375;0.04638671875;325.25;-127.625;-59.0625
0.0;-0.5765380859375;-0.0252685546875;-0.25823974609375;0.7747802734375;7.031048732838293;5.538667655637515;7.8396358880603785;0.48193359375;-0.8974609375;0.04443359375;303.0;-105.5625;-70.4375
0.0;-0.55010986328125;-0.0386962890625;-0.263671875;0.79144287109375;6.943065713736569;5.736853870640276;7.820154973859614;0.51953125;-0.82373046875;0.25;205.375;-28.4375;-63.0
0.0;-0.52044677734375;-0.0479736328125;-0.25860595703125;0.8123779296875;6.968835417643714;5.94652483737763;7.8373750498039545;0.40869140625;-0.91455078125;0.48095703125;190.9375;-0.1875;-47.125
0.0;-0.49359130859375;-0.056396484375;-0.2578125;0.8287353515625;6.96377257724002;6.134758291083004;7.832391075756892;0.37939453125;-0.65234375;0.4912109375;213.8125;-8.5625;20.25
0.0;-0.4735107421875;-0.062255859375;-0.26202392578125;0.83856201171875;6.9354957567978905;6.276430480692587;7.8003413139821065;0.35009765625;-0.57958984375;0.533203125;184.3125;2.5;-3.25
0.0;-0.4488525390625;-0.07598876953125;-0.265625;0.84979248046875;6.843097541100968;6.450950246031963;7.783110576826148;0.2802734375;-0.751953125;0.8125;126.75;14.375;-29.6875
0.0;-0.41925048828125;-0.07672119140625;-0.2755126953125;0.86163330078125;6.870085431570557;6.655308617740794;7.693044898707934;0.3583984375;-0.435546875;0.896484375;161.5;-17.25;-44.75
0.0;-0.3946533203125;-0.05517578125;-0.285400390625;0.87164306640625;7.1249230586870596;6.805452522445235;7.567610028657411;0.29248046875;-0.26416015625;0.8876953125;164.0625;69.875;-43.125
0.0;-0.37548828125;-0.030517578125;-0.2945556640625;0.87823486328125;7.4049161077764065;6.907211515503835;7.452568481753316;0.34814453125;-0.30908203125;0.912109375;100.375;172.375;10.25
0.0;-0.33636474609375;-0.05926513671875;-0.29937744140625;0.89093017578125;7.212202079013277;7.183421583418587;7.438069885046771;0.0693359375;-1.39794921875;0.9873046875;73.75;173.5625;8.4375
0.0;-0.28582763671875;-0.07733154296875;-0.32952880859375;0.896484375;7.091042730268594;7.5382453748112255;7.23286630729732;0.2705078125;-0.6171875;0.2080078125;278.3125;-63.8125;-71.8125
0.0;-0.29205322265625;-0.0694580078125;-0.3255615234375;0.8966064453125;7.165660107204651;7.486431402427438;7.254449461606514;0.22607421875;0.2109375;0.99267578125;279.0;52.25;-193.9375
0.0;-0.3089599609375;-0.02294921875;-0.3272705078125;0.8927001953125;7.592452219314089;7.320645182787862;7.200040304865866;0.884765625;-0.42724609375;0.2548828125;-29.375;67.75;55.9375
0.0;-0.3421630859375;-0.01812744140625;-0.33319091796875;0.87841796875;7.493894478810007;7.120615634307494;7.180368555489215;-0.19970703125;-0.27001953125;0.576171875;-182.625;203.6875;65.9375
0.0;-0.3885498046875;0.02215576171875;-0.37652587890625;0.8406982421875;7.5206049216513104;6.806767076086093;6.886603944157899;0.32861328125;-0.37939453125;0.23974609375;-202.625;-25.8125;-42.8125
0.0;-0.4263916015625;0.040283203125;-0.3587646484375;0.829345703125;7.6164159370088305;6.534774930586436;6.97944235524926;-0.09912109375;-0.5439453125;0.69140625;-391.9375;191.375;-210.1875
0.0;-0.46612548828125;0.05523681640625;-0.32073974609375;0.82269287109375;7.798782294822157;6.24408428613149;7.184372829437755;-1.498046875;-3.1552734375;0.802734375;-249.0;-32.3125;96.625
0.0;-0.41802978515625;0.0491943359375;-0.349365234375;0.837158203125;7.789458860524364;6.5663941883692125;7.009372213540877;0.10205078125;-1.71826171875;0.0791015625;-229.5625;-101.25;190.0
0.0;-0.39898681640625;0.057373046875;-0.3521728515625;0.84466552734375;7.939083817335745;6.668727970474429;6.965814863695282;0.32177734375;-1.6572265625;1.0458984375;291.4375;131.8125;-111.4375
0.0;-0.38519287109375;0.04949951171875;-0.34429931640625;0.854736328125;7.959318884359679;6.761803200354393;7.020743687785039;0.18896484375;-0.37646484375;0.5888671875;82.0625;83.0;31.4375
0.0;-0.3704833984375;0.04119873046875;-0.3314208984375;0.86669921875;7.996995480263503;6.858129925481161;7.104494274842928;-0.12255859375;-1.0439453125;1.21630859375;101.0625;-36.6875;39.875
0.0;-0.36431884765625;0.0411376953125;-0.3260498046875;0.871337890625;8.04510969372151;6.892628872179503;7.132785480131521;0.35693359375;-0.25634765625;0.89697265625;82.0625;-37.0625;86.25
0.0;-0.34869384765625;0.0338134765625;-0.31903076171875;0.880615234375;8.062266470463408;6.9942682447863245;7.1800644521937205;0.1767578125;-0.443359375;1.09912109375;10.6875;-4.8125;39.8125
0.0;-0.3089599609375;0.0177001953125;-0.30743408203125;0.89984130859375;8.09025010186366;7.248044080450084;7.257572405916422;0.220703125;-0.6806640625;0.83447265625;109.0625;-23.875;41.375
0.0;-0.2579345703125;0.009521484375;-0.3031005859375;0.9173583984375;8.201662075197788;7.55370336690167;7.274726904936388;0.12744140625;-0.3564453125;0.9423828125;261.875;-36.4375;69.375
0.0;-0.22674560546875;0.01165771484375;-0.29638671875;0.92767333984375;8.352424411456418;7.725480394127112;7.301470655338118;0.0498046875;-0.88525390625;0.85498046875;314.875;37.0625;42.25
0.0;-0.1767578125;0.0072021484375;-0.31500244140625;0.93243408203125;8.437992309037213;8.018950841640098;7.181987225304179;0.30517578125;0.04150390625;1.0302734375;167.0;57.3125;60.375
0.0;-0.14544677734375;9.1552734375E-4;-0.3099365234375;0.9395751953125;8.492633070576382;8.202029398923326;7.20997309322608;-0.33251953125;-1.873046875;0.5087890625;280.9375;85.3125;-93.375
0.0;-0.109130859375;-0.02288818359375;-0.308837890625;0.94451904296875;8.364710781867059;8.442977462532923;7.220344386092833;-0.0634765625;-0.103515625;0.7626953125;183.6875;15.375;34.3125
0.0;-0.09375;-0.0355224609375;-0.28924560546875;0.95196533203125;8.299986320751259;8.542156984001851;7.33797246584055;0.4619140625;-0.44873046875;1.0869140625;246.0625;-59.0625;-4.0
0.0;-0.086669921875;-0.04473876953125;-0.27783203125;0.95562744140625;8.231792089900024;8.59160649350024;7.406378712902728;-0.10205078125;-0.41259765625;1.26611328125;116.625;-56.9375;108.125
0.0;-0.07879638671875;-0.05877685546875;-0.270751953125;0.95758056640625;8.10689101202245;8.653808582982045;7.448265998363953;0.00146484375;-0.033203125;1.0849609375;50.0;-54.25;61.3125
0.0;-0.0721435546875;-0.08599853515625;-0.2705078125;0.95611572265625;7.825866459574264;8.732070178525994;7.447822487602254;0.04638671875;-0.134765625;1.1357421875;67.9375;-76.5625;32.0
0.0;-0.076416015625;-0.1202392578125;-0.27679443359375;0.9503173828125;7.428634569839976;8.76560201877403;7.408462488088724;0.27880859375;-0.0283203125;1.11669921875;76.625;-138.8125;-15.3125
0.0;-0.08441162109375;-0.14190673828125;-0.286865234375;0.943603515625;7.156339284901742;8.764522623368054;7.347255717408231;0.2578125;-0.28076171875;1.0126953125;27.6875;-195.3125;-56.5625
0.0;-0.09820556640625;-0.1517333984375;-0.302978515625;0.9356689453125;6.9911358545682365;8.719413882260161;7.255492536241563;0.6318359375;-0.1064453125;0.90576171875;-18.75;-125.375;-69.125
0.0;-0.10491943359375;-0.1591796875;-0.31329345703125;0.9302978515625;6.878140412008851;8.706070943047992;7.193921510497328;0.38818359375;-0.28955078125;1.1083984375;-63.3125;-76.0;-98.125
0.0;-0.07861328125;-0.1785888671875;-0.31695556640625;0.92816162109375;6.758296095075297;8.898575644794155;7.134660927938088;0.37939453125;-0.5703125;1.2509765625;-6.0625;-58.25;-74.8125
0.0;-0.0028076171875;-0.21453857421875;-0.31842041015625;0.92333984375;6.654810867395983;9.41188493974098;7.011654658735644;0.2578125;-0.8447265625;1.13720703125;183.1875;-59.25;-64.5
0.0;0.07135009765625;-0.23785400390625;-0.3076171875;0.91851806640625;6.6854870605114645;9.877988202035345;6.967252220181267;0.5947265625;-0.5908203125;0.70458984375;477.75;-53.5625;-115.6875
0.0;0.136474609375;-0.2490234375;-0.29107666015625;0.91357421875;6.7941034543190675;10.259061203097342;6.983464539861012;0.56640625;0.4521484375;0.34814453125;444.1875;12.125;-42.5625
0.0;0.17474365234375;-0.25225830078125;-0.2760009765625;0.91082763671875;6.8710170037058385;10.470666544894806;7.031775533780063;0.4033203125;0.78271484375;0.53173828125;380.125;58.25;-3.3125
0.0;0.1893310546875;-0.2562255859375;-0.26544189453125;0.90997314453125;6.854311578318746;10.554498027894855;7.072096131322389;0.3857421875;0.81298828125;0.53271484375;222.25;57.125;24.6875
0.0;0.18182373046875;-0.26055908203125;-0.2685546875;0.90936279296875;6.790018523744432;10.526365744285695;7.049653452931051;0.2978515625;0.55419921875;0.66015625;89.875;11.0;40.875
0.0;0.1700439453125;-0.26727294921875;-0.2620849609375;0.91156005859375;6.653762823799746;10.469280514235253;7.084270792476632;0.43603515625;0.38671875;0.544921875;-40.1875;-28.4375;-5.75
0.0;0.19561767578125;-0.27825927734375;-0.2318115234375;0.91131591796875;6.538609553634969;10.614191208104105;7.211535222299458;0.4072265625;-0.2109375;0.76513671875;-7.6875;-41.375;43.25
0.0;0.20513916015625;-0.29010009765625;-0.18902587890625;0.9154052734375;6.30255363196383;10.649566585889163;7.4270127522421205;-0.267578125;0.23046875;0.5673828125;198.4375;2.625;132.8125
0.0;0.195556640625;-0.29705810546875;-0.19488525390625;0.9140625;6.217010380157632;10.6178745481964;7.385301652529716;0.46044921875;0.46728515625;1.01025390625;131.75;3.375;226.9375
0.0;0.18890380859375;-0.29522705078125;-0.19219970703125;0.9166259765625;6.205544740108315;10.568246579841016;7.416170622550447;0.71728515625;0.36328125;0.72265625;-45.625;-42.0625;-20.1875
0.0;0.1915283203125;-0.2979736328125;-0.198974609375;0.91375732421875;6.207432873573378;10.601449257582281;7.363341972390273;0.169921875;0.1201171875;0.728515625;-18.0625;-5.4375;24.625
0.0;0.19403076171875;-0.29913330078125;-0.217529296875;0.9085693359375;6.266600066894818;10.645849564559821;7.242682845422461;0.51123046875;0.37060546875;0.71630859375;12.4375;-20.4375;-44.5625
0.0;0.17620849609375;-0.3070068359375;-0.2235107421875;0.90814208984375;6.138958670541689;10.569615617788203;7.207460977658487;0.86181640625;0.42919921875;0.9072265625;-9.5625;-28.4375;-109.875
0.0;0.14569091796875;-0.3050537109375;-0.23529052734375;0.91119384765625;6.0829772789613585;10.396878585222018;7.181790860450965;0.8818359375;0.56591796875;0.78857421875;-97.25;-50.9375;-2.1875
0.0;0.12591552734375;-0.30401611328125;-0.24017333984375;0.91326904296875;6.034330635628661;10.281932507334332;7.181844239338834;-0.18408203125;0.1845703125;0.78271484375;-182.1875;-44.3125;-2.6875
0.0;0.09796142578125;-0.33306884765625;-0.21124267578125;0.9136962890625;5.54404329443624;10.142259547329015;7.338575754450307;-1.017578125;0.11328125;0.79833984375;-111.125;-42.0;19.0625
0.0;0.09228515625;-0.34893798828125;-0.20721435546875;0.9093017578125;5.339397159022435;10.145216534287131;7.332884841213987;1.82470703125;-0.04248046875;0.42333984375;-53.75;-149.25;211.1875
0.0;0.1156005859375;-0.3548583984375;-0.2288818359375;0.8990478515625;5.418472376651848;10.358617962346267;7.125158010559199;0.90771484375;0.1357421875;0.86767578125;11.5;-85.1875;21.1875
0.0;0.1217041015625;-0.34710693359375;-0.23797607421875;0.89892578125;5.5519613810887956;10.388280085410235;7.078615319263066;1.12646484375;0.6396484375;0.7646484375;87.8125;-28.875;-169.25
0.0;0.1292724609375;-0.344970703125;-0.2364501953125;0.89910888671875;5.600038370471031;10.425015450216486;7.082595875468867;0.6337890625;0.27685546875;0.71240234375;7.9375;45.875;-70.625
0.0;0.1343994140625;-0.35565185546875;-0.22894287109375;0.8961181640625;5.48389959008381;10.479637550129492;7.088439982473239;0.17236328125;0.2685546875;0.65869140625;43.3125;5.6875;-2.875
0.0;0.13134765625;-0.3759765625;-0.2110595703125;0.89263916015625;5.19897658736217;10.496910138637299;7.1435515185142275;0.25341796875;0.28564453125;0.64599609375;62.125;-61.8125;36.6875
0.0;0.12042236328125;-0.38916015625;-0.20965576171875;0.88885498046875;5.010809181812969;10.47265581507201;7.12794257358137;0.751953125;0.70947265625;0.55810546875;45.5;-99.0625;111.5
0.0;0.11309814453125;-0.388671875;-0.21868896484375;0.88787841796875;5.015493945008495;10.444033132543291;7.083116941869063;0.50390625;-0.115234375;0.2548828125;-21.9375;-75.625;17.875
0.0;0.0989990234375;-0.38409423828125;-0.2288818359375;0.88897705078125;5.038794134778811;10.358757286718093;7.058708378827101;0.3701171875;0.541015625;0.55126953125;-68.5;-22.0625;-16.5
0.0;0.0986328125;-0.3829345703125;-0.22955322265625;0.88934326171875;5.051755478658703;10.35353451809795;7.05894620887254;0.4228515625;0.341796875;0.7236328125;-100.75;-1.5625;-20.6875
0.0;0.1109619140625;-0.3829345703125;-0.22894287109375;0.88800048828125;5.099853825728138;10.431831303377278;7.037811675774834;0.64794921875;-0.07177734375;0.88623046875;20.4375;-2.5;-22.375
0.0;0.09344482421875;-0.37725830078125;-0.24755859375;0.887451171875;5.143616089061387;10.34051945632384;6.964716429516675;0.60888671875;0.29931640625;0.958984375;75.375;0.3125;-28.375
0.0;0.09356689453125;-0.3743896484375;-0.262451171875;0.8843994140625;5.218399466321049;10.363799809649317;6.872059672914762;0.21240234375;0.1044921875;0.87255859375;-133.1875;-14.0625;-60.8125
0.0;0.09405517578125;-0.3719482421875;-0.27703857421875;0.88092041015625;5.289898731046167;10.389328044292391;6.779733289712862;0.6689453125;0.60107421875;0.82080078125;-42.875;-1.875;-72.9375
0.0;0.09722900390625;-0.36541748046875;-0.29486083984375;0.8775634765625;5.4268306484537;10.420135896623998;6.676433447412351;0.677734375;0.62939453125;0.69580078125;-43.6875;2.25;-72.375
0.0;0.09735107421875;-0.3582763671875;-0.29888916015625;0.87908935546875;5.512866216541548;10.400668032861452;6.67424048148013;-0.47509765625;0.1923828125;0.828125;-27.6875;6.9375;-100.6875
0.0;0.101318359375;-0.35797119140625;-0.3173828125;0.87225341796875;5.593116825417228;10.459468692678252;6.544404283507059;0.9033203125;0.228515625;0.90966796875;-7.625;46.5;-37.4375
0.0;0.11248779296875;-0.35882568359375;-0.3619384765625;0.85296630859375;5.794546865889896;10.610097434271811;6.2267020200560825;-1.81103515625;-0.365234375;0.6767578125;-14.6875;-16.3125;-113.3125
0.0;0.1162109375;-0.31121826171875;-0.32989501953125;0.88360595703125;6.17489037510108;10.38961886533137;6.596414803561347;0.482421875;-0.99658203125;0.408203125;-7.25;-47.9375;-293.3125
0.0;0.1971435546875;-0.24078369140625;-0.405029296875;0.8597412109375;7.5267072588084485;10.675777717444802;6.254526891212225;-0.66943359375;0.5302734375;0.65234375;-35.875;310.3125;191.625
0.0;0.09063720703125;-0.2960205078125;-0.32415771484375;0.8939208984375;6.1935268994143415;10.182407184931197;6.707299392025466;-2.5283203125;1.40576171875;-0.142578125;159.8125;420.6875;-622.3125
0.0;0.0782470703125;-0.29351806640625;-0.1776123046875;0.93603515625;5.855365794489585;9.854643959937736;7.683329440797944;-1.267578125;-0.53125;0.5791015625;-313.75;-405.8125;700.3125
0.0;0.11822509765625;-0.291748046875;-0.218017578125;0.92376708984375;6.082503909962169;10.166009275628497;7.364651157459003;11.931640625;0.912109375;-1.49951171875;160.3125;138.75;858.1875
0.0;0.1405029296875;-0.2552490234375;-0.2613525390625;0.920166015625;6.665045894299304;10.263863729127241;7.149115694703074;1.54052734375;-0.21826171875;-0.30908203125;150.4375;11.625;-297.5625
0.0;0.12615966796875;-0.23406982421875;-0.24700927734375;0.93182373046875;6.804407856510984;10.111035640379889;7.29718365740433;-0.83349609375;3.00927734375;0.79541015625;2.3125;185.75;-296.375
0.0;0.102294921875;-0.2144775390625;-0.23236083984375;0.943115234375;6.908129433056589;9.912901165278772;7.446018184731907;-0.17236328125;0.21875;0.80517578125;-94.0625;111.3125;99.4375
0.0;0.1187744140625;-0.19281005859375;-0.23724365234375;0.94464111328125;7.206475013211659;9.969653736187231;7.4357359951619335;0.27685546875;-0.46044921875;1.234375;-89.6875;83.375;94.25
0.0;0.13909912109375;-0.1776123046875;-0.24639892578125;0.9425048828125;7.45573443267007;10.06378889821896;7.38902514903834;0.203125;-0.01171875;0.953125;58.625;136.25;-58.75
0.0;0.14227294921875;-0.16937255859375;-0.253662109375;0.941650390625;7.5711397597179735;10.070914095226438;7.356561903319453;0.27587890625;0.72119140625;0.9306640625;75.25;101.0625;-83.4375
0.0;0.14703369140625;-0.16619873046875;-0.255126953125;0.9410400390625;7.6243170857274745;10.092728862731347;7.349692716952501;0.42138671875;0.33837890625;0.84375;-1.6875;54.5;-55.0625
0.0;0.1522216796875;-0.166259765625;-0.25555419921875;0.94012451171875;7.641908385861388;10.122526622622805;7.343898183154279;0.63427734375;0.205078125;0.8515625;28.9375;48.25;-28.5
0.0;0.15679931640625;-0.1669921875;-0.25762939453125;0.93865966796875;7.654259854547998;10.151380431542568;7.327551200823045;0.611328125;0.375;0.802734375;25.625;31.5;-18.1875
0.0;0.162109375;-0.164306640625;-0.25811767578125;0.9381103515625;7.7020657642041295;10.176382179120663;7.325890886468609;0.57861328125;0.31298828125;0.77783203125;26.0625;23.5;-27.5
0.0;0.17181396484375;-0.16412353515625;-0.25469970703125;0.93731689453125;7.728077714180101;10.228937939745999;7.340710216758875;0.21728515625;0.2705078125;0.76416015625;28.625;22.625;-12.5625
0.0;0.1884765625;-0.16156005859375;-0.251708984375;0.9354248046875;7.8031630875039815;10.316642802180137;7.353457810726971;0.30908203125;0.25;0.779296875;62.375;25.1875;3.0
0.0;0.1983642578125;-0.156494140625;-0.2554931640625;0.93316650390625;7.9004907548755625;10.364960288302242;7.334923239712958;0.08056640625;0.50439453125;0.71044921875;80.9375;33.8125;-0.1875
0.0;0.200439453125;-0.14752197265625;-0.258544921875;0.933349609375;8.011060796212178;10.360555171856994;7.331730508334504;0.12255859375;0.6552734375;0.71484375;26.9375;33.0;-32.9375
0.0;0.20465087890625;-0.14324951171875;-0.26531982421875;0.93121337890625;8.089739772775024;10.379083303506244;7.297742446695038;-0.06396484375;0.4228515625;0.85009765625;-4.0;33.75;-20.875
0.0;0.20654296875;-0.13714599609375;-0.26873779296875;0.93072509765625;8.170397499509988;10.37922373605296;7.287451402339706;0.3330078125;0.49169921875;0.88134765625;11.0625;30.25;-53.1875
0.0;0.2115478515625;-0.1309814453125;-0.27301025390625;0.92926025390625;8.265021962278189;10.39700838501691;7.271218262368229;0.2314453125;0.37060546875;0.8203125;2.1875;36.75;-31.625
0.0;0.19384765625;-0.12078857421875;-0.27923583984375;0.9326171875;8.327808474400243;10.279838552045579;7.256739897714615;0.1630859375;0.71142578125;0.76904296875;-3.4375;37.5;-34.875
0.0;0.17840576171875;-0.11004638671875;-0.2841796875;0.935546875;8.400081707580988;10.174423253989247;7.247928402310569;0.232421875;0.32080078125;0.9228515625;-117.1875;23.1875;-28.125
0.0;0.175537109375;-0.10430908203125;-0.28759765625;0.93572998046875;8.459227953592872;10.148493288464032;7.236537327718551;0.02783203125;0.0673828125;1.03955078125;-81.6875;23.25;-23.5
0.0;0.1732177734375;-0.1007080078125;-0.29150390625;0.93536376953125;8.498551320264461;10.129757733770738;7.218928457206118;0.1650390625;0.21728515625;0.95556640625;-14.8125;27.25;-25.25
0.0;0.17059326171875;-0.09674072265625;-0.29681396484375;0.9345703125;8.543703543630487;10.108928290800339;7.1933068683171575;0.2333984375;0.31494140625;0.9541015625;-15.1875;20.3125;-28.0625
0.0;0.17071533203125;-0.09454345703125;-0.30364990234375;0.93255615234375;8.5833063385211;10.106890977918729;7.155645713720117;0.10888671875;0.2548828125;1.0009765625;-13.0625;12.5;-33.9375
0.0;0.17242431640625;-0.09295654296875;-0.31195068359375;0.9296875;8.625792540360939;10.11484126744848;7.108230115292446;0.126953125;0.314453125;0.98779296875;0.875;7.4375;-43.8125
0.0;0.1771240234375;-0.0921630859375;-0.3212890625;0.9256591796875;8.674323423187962;10.140837350953603;7.052983989390541;0.16943359375;0.28759765625;0.9775390625;12.0;8.0625;-55.125
0.0;0.1846923828125;-0.0908203125;-0.33135986328125;0.9207763671875;8.742932771831976;10.181151101569819;6.993888048666559;0.1953125;0.322265625;0.9501953125;27.5625;10.125;-64.3125
0.0;0.19091796875;-0.0853271484375;-0.3426513671875;0.9158935546875;8.854083217522362;10.204991835105576;6.933257106896592;0.13427734375;0.3857421875;0.91796875;38.5625;14.1875;-70.3125
0.0;0.20068359375;-0.07830810546875;-0.352783203125;0.9105224609375;8.994229952041081;10.244072536966032;6.881470689218411;-0.05078125;0.35595703125;0.98974609375;27.1875;21.0625;-75.875
0.0;0.204833984375;-0.07257080078125;-0.3636474609375;0.90582275390625;9.100287285988712;10.254183426568712;6.823829147116745;-0.212890625;0.2587890625;0.90869140625;48.375;28.625;-70.0
0.0;0.206298828125;-0.06634521484375;-0.37420654296875;0.90167236328125;9.19916180896505;10.247839117553708;6.768126436660619;-0.025390625;0.31201171875;0.91796875;17.9375;23.0;-74.3125
0.0;0.20458984375;-0.0584716796875;-0.385498046875;0.8978271484375;9.30234226166939;10.219790891042248;6.708973142018667;-0.1572265625;0.3330078125;0.87939453125;-0.1875;13.375;-67.4375
0.0;0.20452880859375;-0.05316162109375;-0.39752197265625;0.8929443359375;9.387997092407272;10.20539039718573;6.6416689552649;-0.2177734375;0.19677734375;0.97119140625;-9.5625;11.4375;-69.8125
0.0;0.20623779296875;-0.0499267578125;-0.41168212890625;0.88623046875;9.46645956180565;10.204098219833948;6.558139011779294;-0.11328125;0.1904296875;1.0224609375;6.5;9.0;-76.5
0.0;0.21478271484375;-0.04901123046875;-0.427001953125;0.876953125;9.55936634236176;10.243638071636857;6.46550892984038;-0.03955078125;0.1884765625;0.98828125;21.125;4.4375;-92.1875
0.0;0.22857666015625;-0.05023193359375;-0.44287109375;0.865478515625;9.663335787832235;10.315199781706657;6.367668132119489;-0.09521484375;0.32373046875;0.96142578125;49.75;4.0625;-103.0
0.0;0.2442626953125;-0.05303955078125;-0.4591064453125;0.85247802734375;9.769261201442026;10.399750732121158;6.265525279539408;-0.1533203125;0.3974609375;0.87744140625;82.5625;4.375;-109.875
0.0;0.25927734375;-0.0565185546875;-0.475830078125;0.83856201171875;9.87400829711936;10.481370296237932;6.158569498978678;-0.185546875;0.48828125;0.7998046875;96.0625;-0.0625;-114.0
0.0;0.27655029296875;-0.06048583984375;-0.49163818359375;0.823486328125;9.992220711363798;10.57593417031747;6.056521236836396;-0.19775390625;0.48681640625;0.74658203125;96.0;-6.0625;-117.6875
0.0;0.295654296875;-0.06756591796875;-0.5057373046875;0.8076171875;10.094773458044177;10.689034015539317;5.961150855488086;-0.41650390625;0.4287109375;0.78515625;111.9375;-4.1875;-114.75
0.0;0.30657958984375;-0.0723876953125;-0.517333984375;0.795654296875;10.165574060298077;10.753750642697518;5.8815552703564205;-0.39111328125;0.58935546875;0.69873046875;128.5;-10.875;-104.6875
0.0;0.31976318359375;-0.07757568359375;-0.52813720703125;0.78277587890625;10.249317482934593;10.831749122517591;5.806784609600508;-0.32177734375;0.64501953125;0.66650390625;70.0625;-23.625;-81.125
0.0;0.33251953125;-0.08868408203125;-0.53668212890625;0.7703857421875;10.27256182804581;10.926240069343928;5.736895185990692;-0.4375;0.5224609375;0.6826171875;92.5625;-22.625;-74.0
0.0;0.3436279296875;-0.09765625;-0.54278564453125;0.76007080078125;10.29790396232838;11.007866084352553;5.684932705905414;-0.22314453125;0.63134765625;0.59814453125;107.75;-33.0625;-61.4375
0.0;0.3507080078125;-0.1033935546875;-0.5489501953125;0.75164794921875;10.327409296455071;11.058583955615816;5.636071322470248;-0.3359375;0.76171875;0.65283203125;82.0625;-29.625;-44.625
0.0;0.35357666015625;-0.1065673828125;-0.5555419921875;0.74493408203125;10.353852731939966;11.079045251714584;5.586629007079246;-0.35595703125;0.73828125;0.58447265625;49.9375;-28.625;-41.5625
0.0;0.35479736328125;-0.108642578125;-0.561279296875;0.73980712890625;10.374043807209887;11.087792539143951;5.544424684008591;-0.3046875;0.71142578125;0.5712890625;21.5625;-28.1875;-43.0
0.0;0.35394287109375;-0.10980224609375;-0.56634521484375;0.736083984375;10.3844321379398;11.083402672298178;5.507040736185486;-0.31005859375;0.7177734375;0.53369140625;6.25;-26.25;-35.375
0.0;0.35089111328125;-0.1094970703125;-0.57110595703125;0.7340087890625;10.388875724445278;11.062835194751575;5.473997334679909;-0.24072265625;0.75390625;0.48828125;-11.875;-24.5;-32.375
0.0;0.34783935546875;-0.10723876953125;-0.5751953125;0.7325439453125;10.406638708370414;11.036793462825717;5.4483412824438515;-0.17626953125;0.75732421875;0.4619140625;-30.6875;-20.8125;-30.4375
0.0;0.34918212890625;-0.1060791015625;-0.5775146484375;0.730224609375;10.438340381105537;11.038402310859016;5.434493728920895;-0.21337890625;0.580078125;0.5;-27.5625;-12.0625;-25.1875
0.0;0.357666015625;-0.10894775390625;-0.57757568359375;0.7257080078125;10.47747451070778;11.091801356279216;5.432151367493931;-0.24755859375;0.48388671875;0.60107421875;6.8125;1.0625;-17.9375
0.0;0.37213134765625;-0.1171875;-0.57666015625;0.7177734375;10.51277132257658;11.195111006442438;5.428495994727106;-0.27099609375;0.5087890625;0.6533203125;57.875;11.125;-11.5
0.0;0.3858642578125;-0.1268310546875;-0.5750732421875;0.71014404296875;10.528770851518125;11.300143673534162;5.426022996529199;-0.2470703125;0.71533203125;0.6513671875;103.0625;10.625;-15.0
0.0;0.3941650390625;-0.13421630859375;-0.5740966796875;0.7049560546875;10.526969765880061;11.369049897080325;5.420762929227076;-0.24755859375;0.90478515625;0.64208984375;94.1875;4.0625;-11.9375
0.0;0.40057373046875;-0.1397705078125;-0.57421875;0.7001953125;10.532546420735326;11.421226281891293;5.4107592206437465;-0.2177734375;0.708984375;0.70166015625;72.875;-1.4375;-5.1875
0.0;0.40167236328125;-0.14166259765625;-0.5762939453125;0.69744873046875;10.538887627853269;11.431722087361763;5.392713911412878;-0.326171875;0.72900390625;0.701171875;57.5;-7.0;-5.6875
0.0;0.39617919921875;-0.138671875;-0.581298828125;0.69708251953125;10.550129322807996;11.388614912483368;5.362448017498886;-0.341796875;0.85546875;0.6630859375;10.5625;-13.75;-12.625
0.0;0.38616943359375;-0.1312255859375;-0.5880126953125;0.698486328125;10.571363079255876;11.30576468313523;5.326964789902014;-0.279296875;0.818359375;0.60791015625;-42.0;-19.375;-24.9375
0.0;0.3697509765625;-0.1199951171875;-0.59613037109375;0.70245361328125;10.579983121516786;11.175951854413123;5.285088949742687;-0.2841796875;0.818359375;0.59130859375;-83.0;-19.8125;-32.875
0.0;0.3521728515625;-0.1072998046875;-0.60272216796875;0.70794677734375;10.581899469667135;11.037279803573542;5.25434649713521;-0.10009765625;0.69677734375;0.57080078125;-120.0625;-23.8125;-33.875
0.0;0.34503173828125;-0.100341796875;-0.61151123046875;0.7049560546875;10.629014443839306;10.969696787484432;5.199323998933467;-0.33740234375;0.3349609375;0.716796875;-126.875;-20.25;-20.5625
0.0;0.34832763671875;-0.1024169921875;-0.61627197265625;0.69879150390625;10.663149881831426;10.989093555690657;5.161782908967177;-0.2802734375;0.447265625;0.7021484375;-45.8125;-16.625;-52.25
0.0;0.3553466796875;-0.10693359375;-0.61871337890625;0.6923828125;10.695765540823208;11.037795577499443;5.1385513587089005;-0.220703125;0.6845703125;0.64306640625;22.625;-8.375;-43.125
0.0;0.36639404296875;-0.11492919921875;-0.61859130859375;0.6854248046875;10.72037535187117;11.12154549481168;5.129453306577526;-0.2822265625;0.7412109375;0.595703125;43.625;-4.0625;-30.25
0.0;0.38031005859375;-0.12823486328125;-0.615478515625;0.67828369140625;10.710940081229095;11.241447818350053;5.132964625657596;-0.28173828125;0.61328125;0.65576171875;85.6875;3.0625;-14.8125
0.0;0.3946533203125;-0.14312744140625;-0.6103515625;0.67169189453125;10.682790801919166;11.371574193657224;5.145707030960417;-0.19580078125;0.7021484375;0.5986328125;117.5625;-0.375;4.5
0.0;0.406005859375;-0.1556396484375;-0.60662841796875;0.66552734375;10.658440999568265;11.47721716107594;5.149861503728553;-0.2763671875;0.5556640625;0.72509765625;128.9375;-0.5625;19.125
0.0;0.40985107421875;-0.1624755859375;-0.60577392578125;0.662353515625;10.633825267015675;11.52161205975949;5.142195529312243;-0.125;0.8642578125;0.60693359375;102.875;-3.3125;8.9375
0.0;0.4083251953125;-0.1630859375;-0.607177734375;0.66180419921875;10.626000852254293;11.51453430874822;5.130121477233207;-0.265625;0.71044921875;0.61328125;47.9375;-12.8125;4.4375
0.0;0.40313720703125;-0.1602783203125;-0.61083984375;0.66229248046875;10.627285686052996;11.474452378806538;5.108426884653586;-0.32470703125;0.72265625;0.6796875;0.1875;-12.0625;-1.8125
0.0;0.40032958984375;-0.15838623046875;-0.61407470703125;0.66143798828125;10.638896696763657;11.45049540309719;5.088215992346786;-0.35400390625;0.5986328125;0.6552734375;-26.5625;-18.0;-7.625
0.0;0.4012451171875;-0.16058349609375;-0.61578369140625;0.6588134765625;10.64135658523419;11.461410869811381;5.071377741071766;-0.41064453125;0.56640625;0.60107421875;-12.8125;-17.25;-7.3125
0.0;0.404541015625;-0.16693115234375;-0.61553955078125;0.6553955078125;10.621387428885132;11.501085821307626;5.059823229281104;-0.39794921875;0.71142578125;0.5458984375;12.1875;-18.3125;-5.3125
0.0;0.41064453125;-0.17626953125;-0.61309814453125;0.6514892578125;10.58933662980165;11.567786262512028;5.057851638096817;-0.33984375;0.76025390625;0.4189453125;31.375;-21.125;3.0625
0.0;0.4208984375;-0.189208984375;-0.60723876953125;0.646728515625;10.545317357443688;11.67222771031321;5.071127013432058;-0.33984375;0.732421875;0.40625;58.1875;-18.25;14.875
0.0;0.4324951171875;-0.2037353515625;-0.5987548828125;0.642578125;10.483829968058622;11.79168844162814;5.096879621927159;-0.36279296875;0.73095703125;0.39404296875;92.625;-10.9375;31.125
0.0;0.43988037109375;-0.21343994140625;-0.5899658203125;0.64251708984375;10.41680068131999;11.871803416007575;5.1336693520775025;-0.3125;0.85302734375;0.33447265625;98.875;-3.625;41.6875
0.0;0.44219970703125;-0.21844482421875;-0.5810546875;0.64739990234375;10.335829806814779;11.907266601424448;5.181642270949203;-0.26806640625;0.9423828125;0.31298828125;54.25;7.0;46.5625
0.0;0.43878173828125;-0.224609375;-0.5689697265625;0.658203125;10.175005898978537;11.916543493256546;5.244564390677463;-0.3544921875;0.951171875;0.2880859375;6.625;9.3125;64.125
0.0;0.43499755859375;-0.2337646484375;-0.552001953125;0.671875;9.956226069328846;11.935145263103884;5.328697904257141;-0.2861328125;0.779296875;0.29736328125;-7.1875;8.25;102.3125
0.0;0.4312744140625;-0.244873046875;-0.5318603515625;0.6864013671875;9.704190593517602;11.960368862628773;5.423175412173015;-0.22412109375;0.73291015625;0.38720703125;2.0;12.625;137.5
0.0;0.4246826171875;-0.256591796875;-0.51007080078125;0.7025146484375;9.417052550062703;11.970451051252002;5.520792305413525;-0.2802734375;0.94482421875;0.41552734375;9.625;13.3125;158.25
0.0;0.4141845703125;-0.2655029296875;-0.48834228515625;0.720703125;9.125095705141241;11.946755039645831;5.623218911029349;-0.212890625;1.1552734375;0.32763671875;-4.75;8.75;174.8125
0.0;0.4027099609375;-0.27239990234375;-0.46563720703125;0.73944091796875;8.840613079911783;11.908384933976787;5.735746038699104;-0.08740234375;1.14404296875;0.3681640625;-33.25;12.1875;178.75
0.0;0.39300537109375;-0.2789306640625;-0.44085693359375;0.7572021484375;8.564717144576825;11.875943266054461;5.8596363989496;0.0859375;1.04248046875;0.46630859375;-40.75;22.3125;179.375
0.0;0.38507080078125;-0.28375244140625;-0.417236328125;0.772705078125;8.327014614269405;11.844827952064099;5.980779819467555;0.03564453125;0.8837890625;0.52294921875;-26.75;31.0;183.3125
0.0;0.37615966796875;-0.2855224609375;-0.397705078125;0.78662109375;8.137304018280103;11.796229813565377;6.0886461499247035;0.0146484375;0.80712890625;0.4921875;-20.0;35.9375;166.5625
0.0;0.36407470703125;-0.2835693359375;-0.38360595703125;0.7999267578125;7.995932618150631;11.716892839525494;6.179836182927127;0.08203125;0.81982421875;0.48779296875;-35.0625;36.125;139.0
0.0;0.3475341796875;-0.281005859375;-0.37255859375;0.81329345703125;7.85724508490739;11.610921698521066;6.258077264007966;0.126953125;0.82958984375;0.49609375;-66.0625;33.3125;110.25
0.0;0.32977294921875;-0.27679443359375;-0.3641357421875;0.82586669921875;7.746576631708847;11.493068460963723;6.328435538300411;0.2470703125;0.7587890625;0.46875;-97.8125;23.75;98.625
0.0;0.3131103515625;-0.2730712890625;-0.35540771484375;0.8372802734375;7.642485928387107;11.382754844895231;6.399090000293205;0.33544921875;0.59228515625;0.4931640625;-103.5625;20.5;84.125
0.0;0.298828125;-0.26934814453125;-0.3465576171875;0.84735107421875;7.55606908315629;11.285258810443542;6.469998921490869;0.376953125;0.4169921875;0.529296875;-86.9375;25.875;72.3125
0.0;0.28997802734375;-0.26507568359375;-0.338134765625;0.85516357421875;7.509217138511916;11.216316966619775;6.537532034413047;0.43798828125;0.359375;0.56103515625;-70.5;31.4375;63.3125
0.0;0.282470703125;-0.25946044921875;-0.3319091796875;0.86181640625;7.494743321433389;11.152078942657015;6.5954604266722745;0.38330078125;0.45751953125;0.63720703125;-43.875;36.5625;52.6875
0.0;0.2728271484375;-0.25152587890625;-0.32763671875;0.868896484375;7.502980220840943;11.070201731208824;6.649738199188734;0.2998046875;0.560546875;0.6337890625;-47.8125;36.875;41.875
0.0;0.25921630859375;-0.24151611328125;-0.3243408203125;0.8770751953125;7.519609919651627;10.961274892463233;6.705524565638334;0.2724609375;0.60546875;0.66259765625;-69.125;39.875;34.625
0.0;0.24700927734375;-0.23150634765625;-0.3216552734375;0.88427734375;7.549150010875509;10.861675898421169;6.755585309534847;0.26904296875;0.4130859375;0.73974609375;-84.3125;42.0;31.625
0.0;0.24224853515625;-0.2230224609375;-0.318603515625;0.88885498046875;7.598900722955976;10.80900266327672;6.798151835377206;0.29052734375;0.265625;0.8056640625;-68.375;43.25;21.4375
0.0;0.241943359375;-0.214599609375;-0.31817626953125;0.89111328125;7.678976741026235;10.783953573864505;6.821647200645183;0.287109375;0.29248046875;0.865234375;-23.75;45.5;11.375
0.0;0.24456787109375;-0.20758056640625;-0.318359375;0.89202880859375;7.7606711654997405;10.779826728846464;6.836254009333248;0.201171875;0.53466796875;0.9130859375;-12.625;42.375;-4.4375
0.0;0.20989990234375;-0.192138671875;-0.33050537109375;0.89984130859375;7.804997789895747;10.553147756393281;6.816594317843759;0.07568359375;1.1640625;0.57177734375;-43.3125;37.1875;2.6875
0.0;0.18853759765625;-0.17889404296875;-0.3349609375;0.9056396484375;7.859545155340965;10.403870061850736;6.82722657608022;0.27978515625;0.033203125;1.2421875;-220.6875;7.375;-30.5625
0.0;0.17620849609375;-0.16802978515625;-0.34027099609375;0.90826416015625;7.932070961913045;10.311868911593898;6.821427222140604;0.1298828125;0.05078125;1.02001953125;-139.625;27.375;-5.375
0.0;0.16387939453125;-0.15087890625;-0.34912109375;0.91021728515625;8.077932638805121;10.206992935751348;6.8027410389344825;0.26171875;0.2734375;0.94384765625;-81.125;33.3125;-26.1875
0.0;0.16082763671875;-0.13958740234375;-0.36285400390625;0.90716552734375;8.215180075986849;10.168995153315526;6.738611360812373;-0.4091796875;0.2724609375;1.1611328125;-104.4375;48.6875;-44.125
0.0;0.1640625;-0.1312255859375;-0.3631591796875;0.90771484375;8.31613889863322;10.166372603009584;6.748795504259557;0.1357421875;-0.17626953125;0.919921875;-11.25;36.375;-91.3125
0.0;0.16607666015625;-0.12847900390625;-0.35736083984375;0.9100341796875;8.338790201128681;10.168768867685028;6.787595016233829;0.23388671875;0.2802734375;0.93212890625;6.625;57.625;-14.8125
0.0;0.1708984375;-0.1240234375;-0.34295654296875;0.915283203125;8.369522849531428;10.180007044300842;6.879982187359647;0.61181640625;0.39501953125;0.99072265625;8.5625;57.0;17.0625
0.0;0.17889404296875;-0.1168212890625;-0.3328857421875;0.91839599609375;8.452093592462711;10.204802480293722;6.949109675975967;0.10205078125;0.41064453125;0.962890625;22.3125;49.5625;78.3125
0.0;0.18701171875;-0.10552978515625;-0.33038330078125;0.9190673828125;8.596243252854315;10.224497662457738;6.978936306130279;-0.16064453125;0.400390625;0.98828125;34.6875;48.5625;53.375
0.0;0.1917724609375;-0.09918212890625;-0.330078125;0.9189453125;8.68078518205731;10.237220613820572;6.989190574195765;-0.22705078125;0.56787109375;1.060546875;17.0625;58.0;6.9375
0.0;0.19561767578125;-0.09295654296875;-0.3272705078125;0.91973876953125;8.753812659027105;10.245187610420414;7.014107593423468;0.23876953125;0.41650390625;1.03076171875;16.8125;54.0625;-13.9375
0.0;0.1964111328125;-0.08795166015625;-0.32464599609375;0.9210205078125;8.802388642650453;10.239073736306644;7.036611434483833;0.26171875;0.5712890625;0.98876953125;2.1875;57.3125;1.125
0.0;0.19781494140625;-0.08367919921875;-0.32440185546875;0.92120361328125;8.851997339396878;10.238235318722724;7.0437812638837425;0.25537109375;0.44775390625;0.90771484375;-7.1875;45.5625;3.625
0.0;0.2012939453125;-0.077880859375;-0.32421875;0.9210205078125;8.925894797979591;10.245947264603206;7.052498062556239;0.14404296875;0.42919921875;0.8955078125;-1.8125;32.9375;-7.125
0.0;0.20404052734375;-0.07537841796875;-0.32354736328125;0.92083740234375;8.961099310085796;10.256232623667852;7.05971150869024;-0.18701171875;0.3984375;0.90869140625;9.3125;24.375;-1.625
0.0;0.20538330078125;-0.07354736328125;-0.32476806640625;0.9202880859375;8.988737605782184;10.260058653185594;7.0549563813173854;0.03857421875;0.3935546875;0.91357421875;12.4375;21.25;-2.0625
0.0;0.2064208984375;-0.07147216796875;-0.32708740234375;0.91937255859375;9.02072067497263;10.261759204034549;7.043903542754014;0.02099609375;0.37451171875;0.93017578125;7.75;11.375;-11.0
0.0;0.20721435546875;-0.0701904296875;-0.32763671875;0.9190673828125;9.038751167493547;10.263664515098283;7.042288635901328;0.0166015625;0.384765625;0.8837890625;3.625;11.1875;-17.4375
0.0;0.20709228515625;-0.0692138671875;-0.32611083984375;0.91973876953125;9.044422704382733;10.261080212097662;7.0526764663279256;-0.0205078125;0.41015625;0.91064453125;3.1875;6.4375;-4.8125
0.0;0.20721435546875;-0.0667724609375;-0.3226318359375;0.921142578125;9.06127370580449;10.257095695187443;7.0765421780385935;0.0029296875;0.40478515625;0.921875;-0.5625;7.6875;7.875
0.0;0.205322265625;-0.06243896484375;-0.3212890625;0.92230224609375;9.096041827506895;10.238418870227816;7.0899381142284295;-0.0947265625;0.427734375;0.908203125;-4.375;12.375;20.5
0.0;0.2017822265625;-0.0594482421875;-0.31964111328125;0.92388916015625;9.109721107063375;10.213168969357838;7.103367055866269;-0.14453125;0.39892578125;0.91162109375;-17.4375;13.1875;8.5625
0.0;0.19866943359375;-0.0567626953125;-0.31817626953125;0.92523193359375;9.122547086169785;10.190958517797057;7.1151750508243286;-9.765625E-4;0.38623046875;0.90185546875;-24.4375;12.9375;8.8125
0.0;0.19598388671875;-0.0543212890625;-0.3160400390625;0.9266357421875;9.132983053472554;10.171709217915375;7.130536272206522;0.04541015625;0.361328125;0.89794921875;-20.1875;14.9375;6.4375
0.0;0.19366455078125;-0.05291748046875;-0.31390380859375;0.927978515625;9.133922966057975;10.156341777240602;7.144806983704002;-0.0458984375;0.35107421875;0.91748046875;-16.625;9.5;12.5625
0.0;0.19232177734375;-0.052490234375;-0.3123779296875;0.92877197265625;9.12980090559245;10.148232610313132;7.154227745563537;0.01318359375;0.34619140625;0.88427734375;-13.6875;8.5;11.8125
0.0;0.19091796875;-0.05194091796875;-0.31121826171875;0.92950439453125;9.127643082570234;10.139488246193155;7.1616967526658195;0.0341796875;0.34765625;0.85009765625;-7.6875;5.1875;8.3125
0.0;0.1912841796875;-0.0517578125;-0.308349609375;0.93035888671875;9.124112075512024;10.141407973281582;7.178850278003166;0.03173828125;0.28857421875;0.88134765625;-3.6875;5.375;5.6875
0.0;0.19317626953125;-0.050537109375;-0.306884765625;0.9305419921875;9.140462868253099;10.14980757876573;7.189075757979504;-0.03173828125;0.33056640625;0.8720703125;4.0625;4.375;17.0
0.0;0.1923828125;-0.05059814453125;-0.30609130859375;0.93096923828125;9.135021755013145;10.145551340370076;7.193657960053959;-0.10205078125;0.400390625;0.9091796875;7.0;6.5;8.25
0.0;0.191650390625;-0.050537109375;-0.30633544921875;0.9310302734375;9.133607512758562;10.141365554663157;7.192219508278908;0.0634765625;0.345703125;0.880859375;-2.5;4.6875;2.875
0.0;0.19158935546875;-0.0491943359375;-0.306396484375;0.93109130859375;9.147824691248799;10.13862706499451;7.193390669433414;0.05078125;0.33642578125;0.8828125;-2.0625;3.4375;-3.0
0.0;0.19317626953125;-0.0479736328125;-0.30517578125;0.93121337890625;9.16366275523316;10.14539690514861;7.202089087744582;-0.07763671875;0.34033203125;0.8974609375;-0.625;3.5625;-0.3125
0.0;0.195556640625;-0.046875;-0.303955078125;0.93121337890625;9.180970351385639;10.156774824103353;7.210814981311469;-0.11572265625;0.3623046875;0.8935546875;7.5625;4.875;7.5
0.0;0.19720458984375;-0.0440673828125;-0.30426025390625;0.93084716796875;9.217590092688038;10.161057656676576;7.2122863954785545;-0.1533203125;0.3662109375;0.8935546875;12.0625;3.625;7.8125
0.0;0.1983642578125;-0.0438232421875;-0.30364990234375;0.93084716796875;9.222839888576848;10.167127496740468;7.216343838605209;-0.2158203125;0.37060546875;0.95166015625;6.625;5.6875;-0.8125
0.0;0.19805908203125;-0.0416259765625;-0.3055419921875;0.930419921875;9.24972580363101;10.161330698097519;7.207690738365178;-0.0595703125;0.3916015625;0.89892578125;5.625;2.8125;3.3125
0.0;0.1983642578125;-0.04205322265625;-0.30584716796875;0.93017578125;9.247075321668438;10.16380768313525;7.20533163092244;-0.119140625;0.314453125;0.9296875;0.0;3.9375;-11.125
0.0;0.19854736328125;-0.04241943359375;-0.30755615234375;0.9295654296875;9.247995344712354;10.165254416142126;7.194843279699045;-0.017578125;0.373046875;0.90478515625;3.6875;-0.5;-2.125
0.0;0.19903564453125;-0.04339599609375;-0.309814453125;0.9287109375;9.244865620314297;10.169382377665261;7.180494191360052;0.0068359375;0.3828125;0.900390625;2.0625;-0.5;-11.1875
0.0;0.19952392578125;-0.042724609375;-0.3125;0.927734375;9.260379015562604;10.170569885267941;7.165409698890338;0.0625;0.33544921875;0.88525390625;8.0;-0.625;-15.3125
0.0;0.20074462890625;-0.0411376953125;-0.31280517578125;0.92742919921875;9.282497587008503;10.174497663998086;7.16554008288141;-0.0458984375;0.3291015625;0.888671875;5.1875;1.0625;-16.5625
0.0;0.20440673828125;-0.039794921875;-0.31097412109375;0.92730712890625;9.305690945417425;10.192783086521317;7.178397387699061;-0.1171875;0.3173828125;0.87939453125;8.25;5.75;-2.3125
0.0;0.20892333984375;-0.0382080078125;-0.3094482421875;0.9268798828125;9.335228364826092;10.215444706606704;7.189898860236836;-0.12353515625;0.3896484375;0.8984375;18.125;11.125;9.0625
0.0;0.21112060546875;-0.0367431640625;-0.30859375;0.92669677734375;9.356647229083137;10.225348323066282;7.196944565198552;-0.15576171875;0.4287109375;0.892578125;20.25;11.9375;7.3125
0.0;0.2110595703125;-0.03271484375;-0.310791015625;0.9261474609375;9.404824103988052;10.21755221801769;7.188648443056397;-0.09912109375;0.38427734375;0.87841796875;10.3125;9.8125;3.0
0.0;0.21319580078125;-0.033447265625;-0.3114013671875;0.9254150390625;9.406443720972744;10.230674201561268;7.184548072620279;-0.201171875;0.3017578125;0.927734375;0.1875;10.25;-13.25
0.0;0.2159423828125;-0.0352783203125;-0.31231689453125;0.9244384765625;9.399442199098688;10.249029149228361;7.177530511306755;0.03955078125;0.400390625;0.859375;13.1875;5.8125;-7.125
0.0;0.218017578125;-0.03515625;-0.31298828125;0.9237060546875;9.410178498090058;10.260325980697923;7.174031685916071;0.0712890625;0.42578125;0.87841796875;17.5625;2.9375;-9.1875
0.0;0.22021484375;-0.03277587890625;-0.310546875;0.924072265625;9.437050611534445;10.26902384883016;7.191669054941849;-0.10546875;0.34716796875;0.849609375;2.125;5.625;1.4375
0.0;0.224853515625;-0.03277587890625;-0.30657958984375;0.92431640625;9.443232747030398;10.295892557293037;7.216042931253527;-0.11279296875;0.34130859375;0.8466796875;12.4375;9.1875;11.5
0.0;0.2294921875;-0.031982421875;-0.30035400390625;0.92523193359375;9.451263434569976;10.32205921128741;7.254556995611341;-0.11376953125;0.44677734375;0.8515625;22.6875;10.6875;21.625
0.0;0.23486328125;-0.02923583984375;-0.29522705078125;0.92559814453125;9.48508743957077;10.349091330890698;7.2891711624359266;-0.236328125;0.47900390625;0.8466796875;19.6875;10.25;37.125
0.0;0.239990234375;-0.02679443359375;-0.29168701171875;0.925537109375;9.518687017148913;10.375022319044142;7.3142557657833605;-0.37548828125;0.38525390625;0.8896484375;28.375;12.375;33.0
0.0;0.2403564453125;-0.0296630859375;-0.291259765625;0.92547607421875;9.488225135827275;10.381808978598434;7.313126693560782;-0.2998046875;0.681640625;0.9892578125;13.3125;14.0;19.8125
0.0;0.23895263671875;-0.0313720703125;-0.2933349609375;0.92510986328125;9.471185368393591;10.376140822603366;7.29844512551146;0.2958984375;0.5322265625;0.89892578125;3.0625;9.8125;-7.0
0.0;0.23883056640625;-0.03118896484375;-0.29583740234375;0.92431640625;9.479908934322673;10.374620754669406;7.2839490386111505;0.2421875;0.4375;0.86865234375;-3.375;5.75;-19.4375
0.0;0.239990234375;-0.02923583984375;-0.2978515625;0.9234619140625;9.510442569304319;10.377485465200216;7.2749601635253835;0.13232421875;0.4404296875;0.85986328125;-0.0625;10.125;-21.625
0.0;0.24090576171875;-0.02520751953125;-0.30072021484375;0.92242431640625;9.564642857806703;10.375327610595452;7.2635009846064005;0.0078125;0.4814453125;0.85498046875;1.4375;15.4375;-18.5
0.0;0.239990234375;-0.01959228515625;-0.30438232421875;0.92156982421875;9.631503855603379;10.359919714944859;7.248686028282241;-0.07421875;0.49560546875;0.849609375;-4.4375;20.125;-23.375
0.0;0.2384033203125;-0.01318359375;-0.30718994140625;0.92120361328125;9.701802966274915;10.339482587629197;7.239483558006357;-0.14501953125;0.44580078125;0.818359375;-15.5;20.0;-27.375
0.0;0.239501953125;-0.0072021484375;-0.30780029296875;0.9207763671875;9.771101290940193;10.335778664702893;7.2432887686438745;-0.162109375;0.33447265625;0.755859375;-16.5625;23.75;-21.9375
0.0;0.25335693359375;-0.00860595703125;-0.3076171875;0.9171142578125;9.805304878316017;10.416973468659588;7.247576304662556;-0.19287109375;0.318359375;0.77734375;0.375;27.875;-9.1875
0.0;0.2733154296875;-0.0142822265625;-0.30450439453125;0.91229248046875;9.80713166039462;10.54155793252885;7.265654417249665;-0.1162109375;0.24365234375;0.83056640625;93.125;18.1875;-2.75
0.0;0.29193115234375;-0.018310546875;-0.2972412109375;0.90887451171875;9.806341060947531;10.657968992201873;7.3092176425162005;-0.07275390625;0.29345703125;0.763671875;124.375;10.4375;15.0
0.0;0.3038330078125;-0.0152587890625;-0.28955078125;0.90753173828125;9.852577854043995;10.725580313897574;7.363090511025405;-0.18994140625;0.66943359375;0.7060546875;98.1875;18.25;37.3125
0.0;0.30810546875;-0.00823974609375;-0.27972412109375;0.90924072265625;9.905551327962073;10.744649535666436;7.432532769777116;-0.50341796875;0.61865234375;0.65380859375;50.25;26.6875;44.5625
0.0;0.30621337890625;0.00115966796875;-0.27215576171875;0.91217041015625;9.971860229638608;10.724256853940851;7.4898404477359115;-0.5576171875;0.62451171875;0.70068359375;0.9375;36.75;56.75
0.0;0.30023193359375;0.0101318359375;-0.26495361328125;0.916259765625;10.0233865626725;10.68083353772255;7.542123777794625;-0.41015625;0.57568359375;0.7119140625;-34.5;44.375;37.0
0.0;0.29779052734375;0.01953125;-0.258544921875;0.918701171875;10.09461777501426;10.658273522123675;7.5916437911148185;-0.2685546875;0.353515625;0.73828125;-44.4375;44.0;34.0625
0.0;0.30096435546875;0.0277099609375;-0.25140380859375;0.91943359375;10.167151472497782;10.671580068176036;7.64653326416772;-0.3251953125;0.31982421875;0.73046875;-22.75;47.4375;28.75
0.0;0.30938720703125;0.0362548828125;-0.24481201171875;0.91815185546875;10.25953943960589;10.716526071400917;7.702263764727668;-0.291015625;0.41748046875;0.81005859375;9.3125;54.625;30.125
0.0;0.31805419921875;0.04644775390625;-0.24005126953125;0.91595458984375;10.375716240728698;10.761803247156614;7.750821483889327;-0.2294921875;0.4609375;0.701171875;34.3125;66.6875;21.3125
0.0;0.32476806640625;0.05828857421875;-0.2366943359375;0.913818359375;10.50868110187438;10.79436231463411;7.7934066866806795;-0.240234375;0.498046875;0.654296875;32.0625;72.125;6.6875
0.0;0.33111572265625;0.072021484375;-0.232666015625;0.91156005859375;10.658342533759342;10.825467261756135;7.843365359107938;-0.265625;0.5615234375;0.70361328125;19.4375;76.125;-4.75
0.0;0.33709716796875;0.0870361328125;-0.2283935546875;0.9091796875;10.819490899517511;10.855643457773132;7.897551038198974;-0.30810546875;0.61181640625;0.69873046875;11.9375;86.25;-5.375
0.0;0.3409423828125;0.102783203125;-0.22442626953125;0.90704345703125;10.984788258447745;10.8743161330965;7.950013515503155;-0.30419921875;0.67724609375;0.6552734375;4.375;93.6875;-9.25
0.0;0.342529296875;0.11810302734375;-0.2213134765625;0.9053955078125;11.143677537186994;10.880154815657805;7.995128964052575;-0.34033203125;0.7177734375;0.6943359375;-8.3125;94.4375;-14.0625
0.0;0.34332275390625;0.1337890625;-0.21807861328125;0.9036865234375;11.305148999306994;10.882927457346993;8.041045786454017;-0.32421875;0.6484375;0.71630859375;-15.3125;90.375;-18.5625
0.0;0.34716796875;0.14996337890625;-0.21429443359375;0.90057373046875;11.476586308016605;10.908046882752194;8.095807268868864;-0.30419921875;0.57470703125;0.76416015625;-13.875;95.25;-19.625
0.0;0.35028076171875;0.164306640625;-0.2098388671875;0.89788818359375;11.623759405993345;10.932083211865638;8.151712515601027;-0.30078125;0.67724609375;0.763671875;1.8125;100.1875;-15.125
0.0;0.349365234375;0.179931640625;-0.2044677734375;0.896484375;11.774359751662665;10.932921225862831;8.210267784200237;-0.34423828125;0.7177734375;0.73291015625;-6.5;94.875;-14.6875
0.0;0.34063720703125;0.1929931640625;-0.1953125;0.899169921875;11.869589114130923;10.888342972064061;8.274517400602084;-0.44189453125;0.7685546875;0.72705078125;-35.125;93.5;-14.375
0.0;0.32855224609375;0.20098876953125;-0.18896484375;0.90325927734375;11.916291979048038;10.817627032445216;8.306565475309185;-0.44677734375;0.82958984375;0.83740234375;-84.125;78.9375;3.8125
0.0;0.320068359375;0.20428466796875;-0.186767578125;0.906005859375;11.932544308222216;10.764604869743867;8.31098501179568;-0.361328125;0.54541015625;0.90283203125;-80.25;48.5625;2.6875
0.0;0.31866455078125;0.20184326171875;-0.18792724609375;0.90679931640625;11.907066041958696;10.753216236373948;8.297423542416968;-0.455078125;0.45849609375;0.888671875;-46.8125;16.4375;-1.75
0.0;0.3189697265625;0.1971435546875;-0.19158935546875;0.906982421875;11.867672004464248;10.749486585236175;8.267856452946619;-0.40966796875;0.43017578125;0.83447265625;3.125;-9.0;-2.375
0.0;0.319580078125;0.1893310546875;-0.19525146484375;0.90765380859375;11.793832985086583;10.748047343031008;8.233909990654695;-0.4169921875;0.38818359375;0.81396484375;19.75;-24.625;-8.4375
0.0;0.3204345703125;0.182861328125;-0.20013427734375;0.9075927734375;11.740230297561332;10.74719859019886;8.195277300585806;-0.3037109375;0.46337890625;0.82861328125;20.5;-35.5;-7.6875
0.0;0.32135009765625;0.17755126953125;-0.20452880859375;0.9073486328125;11.698107051460685;10.747752534000966;8.161686307874348;-0.32568359375;0.25390625;0.8662109375;35.0;-30.375;-9.125
0.0;0.3197021484375;0.17144775390625;-0.2078857421875;0.90838623046875;11.638565420088451;10.733352904746422;8.129420798063345;-0.4365234375;0.51171875;0.79638671875;18.0;-31.5625;-13.0
0.0;0.319580078125;0.16717529296875;-0.21051025390625;0.9085693359375;11.600042952286472;10.730075896966508;8.106825040599157;-0.38916015625;0.47119140625;0.82958984375;5.6875;-35.0625;-7.375
0.0;0.32177734375;0.16375732421875;-0.21173095703125;0.90814208984375;11.570448903498999;10.74349939915331;8.09744374520717;-0.400390625;0.45361328125;0.8125;12.25;-23.3125;-5.4375
0.0;0.324462890625;0.160888671875;-0.2117919921875;0.90771484375;11.543805805543892;10.761403474239383;8.096526758706453;-0.4365234375;0.52783203125;0.76416015625;17.5625;-16.375;1.3125
0.0;0.3271484375;0.1597900390625;-0.2100830078125;0.9073486328125;11.530506167233895;10.781109939572397;8.108896628317998;-0.43359375;0.537109375;0.7451171875;17.625;-11.5;6.25
0.0;0.32867431640625;0.15838623046875;-0.20703125;0.90771484375;11.506613879941337;10.794991244733701;8.127082301363359;-0.47216796875;0.58251953125;0.70556640625;10.5;-2.125;12.875
0.0;0.32720947265625;0.15771484375;-0.20294189453125;0.9093017578125;11.481240588530353;10.790451324524032;8.148384975212103;-0.4775390625;0.59912109375;0.6826171875;0.5;-4.375;20.25
0.0;0.3250732421875;0.15692138671875;-0.19873046875;0.9111328125;11.45303735913329;10.781715587482465;8.169252939003094;-0.43603515625;0.51806640625;0.705078125;-13.875;-0.8125;24.125
0.0;0.3245849609375;0.1561279296875;-0.1947021484375;0.91229248046875;11.42863520915332;10.783378978209079;8.191252869334603;-0.392578125;0.474609375;0.7373046875;-14.6875;1.0;24.5625
0.0;0.324462890625;0.1551513671875;-0.190185546875;0.9134521484375;11.40101333860634;10.787875410307988;8.216289690847955;-0.3662109375;0.498046875;0.779296875;-4.4375;4.9375;22.625
0.0;0.32525634765625;0.1531982421875;-0.184814453125;0.91461181640625;11.360850203892365;10.799176321252716;8.245892101446199;-0.32177734375;0.47998046875;0.751953125;-2.625;6.8125;24.8125
0.0;0.32574462890625;0.15069580078125;-0.1793212890625;0.91595458984375;11.313553109979386;10.808490912281108;8.274704878472923;-0.24560546875;0.55908203125;0.82666015625;1.625;10.3125;27.0
0.0;0.32354736328125;0.1474609375;-0.17315673828125;0.91845703125;11.251540140193587;10.801122262353136;8.302630724597618;-0.2666015625;0.646484375;0.85107421875;-3.5;6.1875;27.6875
0.0;0.3201904296875;0.14349365234375;-0.16595458984375;0.92156982421875;11.176333940073214;10.787320738919828;8.33390231093352;-0.275390625;0.62890625;0.87451171875;-18.1875;-0.875;32.3125
0.0;0.318359375;0.1385498046875;-0.1585693359375;0.92425537109375;11.092195527834043;10.783173894904625;8.366380988522067;-0.23681640625;0.57958984375;0.87841796875;-22.6875;-3.375;39.5
0.0;0.3170166015625;0.13226318359375;-0.149658203125;0.9271240234375;10.988626665434323;10.783207368510837;8.4057914726134;-0.26513671875;0.60498046875;0.875;-14.9375;-8.625;44.1875
0.0;0.31463623046875;0.1256103515625;-0.1395263671875;0.930419921875;10.875763741687969;10.777297333847109;8.450208257741522;-0.2578125;0.69140625;0.88427734375;-16.9375;-13.25;53.1875
0.0;0.31097412109375;0.1190185546875;-0.12908935546875;0.93402099609375;10.761622847238963;10.76302796427887;8.495031078742075;-0.2138671875;0.67919921875;0.85595703125;-24.375;-13.6875;59.75
0.0;0.306640625;0.1124267578125;-0.1180419921875;0.937744140625;10.645472338296472;10.74450568343456;8.542695331928284;-0.18798828125;0.6591796875;0.8427734375;-31.9375;-14.1875;61.125
0.0;0.3031005859375;0.10595703125;-0.105712890625;0.94110107421875;10.52796692346173;10.731279442901906;8.598512694920624;-0.18212890625;0.61669921875;0.84033203125;-34.125;-14.75;65.1875
0.0;0.30072021484375;0.10003662109375;-0.09259033203125;0.94384765625;10.415584088427064;10.72504527861044;8.66052476035138;-0.1279296875;0.65771484375;0.85498046875;-32.375;-9.25;70.5
0.0;0.29766845703125;0.09454345703125;-0.0787353515625;0.9466552734375;10.305561154770643;10.714238341820002;8.726695074772739;-0.1259765625;0.67236328125;0.81201171875;-28.5625;-5.4375;74.3125
0.0;0.29327392578125;0.08941650390625;-0.06365966796875;0.94964599609375;10.195780716976191;10.695172343812605;8.799335619413132;-0.14208984375;0.67333984375;0.76953125;-35.125;-5.0;78.9375
0.0;0.28875732421875;0.0849609375;-0.04803466796875;0.952392578125;10.092833282045031;10.67483755205436;8.876159535322207;-0.1142578125;0.65478515625;0.77490234375;-42.4375;-0.9375;84.25
0.0;0.28448486328125;0.08184814453125;-0.032958984375;0.95458984375;10.007997833278784;10.655302379111326;8.95240619974396;-0.09765625;0.6220703125;0.78173828125;-41.625;3.5625;86.375
0.0;0.27960205078125;0.0794677734375;-0.01806640625;0.95660400390625;9.93320473195962;10.631630688868528;9.028669121214708;-0.12646484375;0.59033203125;0.73583984375;-40.0;7.125;83.625
0.0;0.27435302734375;0.07769775390625;-0.0035400390625;0.95843505859375;9.867859351877732;10.605268468024345;9.103916205866087;-0.15087890625;0.57177734375;0.72509765625;-42.8125;8.8125;82.4375
0.0;0.26898193359375;0.07574462890625;0.0103759765625;0.9600830078125;9.804012563906497;10.577451397973578;9.175654262234751;-0.17138671875;0.55419921875;0.73779296875;-43.4375;9.6875;80.8125
0.0;0.26495361328125;0.0732421875;0.02392578125;0.96112060546875;9.736124440561465;10.556990039376268;9.245287272908168;-0.19189453125;0.52685546875;0.744140625;-42.5;6.3125;78.9375
0.0;0.26300048828125;0.07073974609375;0.03594970703125;0.96148681640625;9.672650389828755;10.547899891630177;9.30736485486082;-0.18115234375;0.49365234375;0.7470703125;-32.375;2.9375;78.625
0.0;0.2618408203125;0.068359375;0.04669189453125;0.96148681640625;9.61432965787;10.542886454396433;9.362871276375849;-0.171875;0.48974609375;0.74072265625;-19.3125;0.25;71.1875
0.0;0.2607421875;0.06695556640625;0.05670166015625;0.96136474609375;9.569181827721948;10.538186255542572;9.415893706698135;-0.16064453125;0.4990234375;0.71533203125;-15.5625;-0.875;64.3125
0.0;0.25872802734375;0.06610107421875;0.06585693359375;0.96136474609375;9.533786530780459;10.528004448507058;9.464847074004682;-0.1875;0.474609375;0.69921875;-13.75;1.125;60.0625
0.0;0.25567626953125;0.06494140625;0.0736083984375;0.96173095703125;9.50070536291675;10.510923556576369;9.505307312317678;-0.181640625;0.45458984375;0.71826171875;-16.75;3.125;54.625
0.0;0.25372314453125;0.06353759765625;0.08001708984375;0.9617919921875;9.468209399743085;10.499882958586575;9.538337255407997;-0.189453125;0.43896484375;0.748046875;-20.875;-0.625;47.0625
0.0;0.25347900390625;0.06280517578125;0.08465576171875;0.9615478515625;9.446604922650518;10.498830851598452;9.562954212546334;-0.1845703125;0.3955078125;0.755859375;-11.4375;-4.3125;40.75
0.0;0.25439453125;0.06268310546875;0.087890625;0.96099853515625;9.434531595530357;10.504835813122826;9.580998500451333;-0.15625;0.37841796875;0.759765625;0.5625;-2.375;29.875
0.0;0.25592041015625;0.06341552734375;0.09027099609375;0.9603271484375;9.433586705039597;10.514845342638207;9.59572186391654;-0.1259765625;0.4189453125;0.7763671875;6.5625;0.1875;21.0625
0.0;0.25872802734375;0.06512451171875;0.09063720703125;0.95941162109375;9.447775433217643;10.5328004781068;9.601076290695028;-0.11572265625;0.39453125;0.76123046875;11.9375;3.9375;14.9375
0.0;0.2642822265625;0.06787109375;0.08953857421875;0.95782470703125;9.474371208926502;10.567490773150984;9.600648449852851;-0.15087890625;0.34765625;0.751953125;23.1875;4.0;4.3125
0.0;0.271484375;0.07080078125;0.08734130859375;0.955810546875;9.504440630780064;10.611950212590058;9.59505069844069;-0.177734375;0.3505859375;0.74169921875;40.8125;4.75;-3.125
0.0;0.27960205078125;0.0743408203125;0.084228515625;0.9534912109375;9.543238571082375;10.66222290330449;9.585966467174888;-0.2099609375;0.41943359375;0.73095703125;47.375;1.9375;-7.1875
0.0;0.288818359375;0.0787353515625;0.08154296875;0.95062255859375;9.5888814486462;10.719996021800487;9.581491447727245;-0.25;0.4072265625;0.72314453125;54.8125;1.4375;-11.5625
0.0;0.29498291015625;0.0819091796875;0.08099365234375;0.948486328125;9.617730940225341;10.759325781272889;9.586102458794763;-0.31103515625;0.525390625;0.66064453125;54.125;3.125;-8.125
0.0;0.29736328125;0.08587646484375;0.0814208984375;0.94732666015625;9.656321255652951;10.777019628484277;9.596514828033609;-0.25390625;0.55859375;0.64990234375;32.9375;4.9375;1.6875
0.0;0.30291748046875;0.0892333984375;0.0828857421875;0.9451904296875;9.680397177956099;10.813538629422826;9.612700458273135;-0.3134765625;0.43115234375;0.71044921875;20.9375;9.3125;6.25
0.0;0.30926513671875;0.09112548828125;0.08526611328125;0.94268798828125;9.683903604170526;10.8541932517376;9.63164867421026;-0.34619140625;0.474609375;0.7822265625;40.1875;6.3125;16.3125
0.0;0.31134033203125;0.0908203125;0.08868408203125;0.9417724609375;9.665233309112278;10.867302553237645;9.650474003729869;-0.29541015625;0.60107421875;0.7900390625;38.25;2.5625;21.375
0.0;0.3123779296875;0.08984375;0.093017578125;0.9410400390625;9.63726956941869;10.873978735936726;9.672706606950921;-0.24072265625;0.609375;0.81494140625;11.4375;-2.75;25.625
0.0;0.31439208984375;0.08831787109375;0.0986328125;0.94000244140625;9.5970812944445;10.886041919594286;9.701067233695083;-0.23828125;0.5771484375;0.8544921875;8.6875;-4.3125;31.625
0.0;0.3114013671875;0.08416748046875;0.1055908203125;0.94061279296875;9.531203647463215;10.86583582526516;9.730249572999751;-0.197265625;0.64892578125;0.8330078125;8.6875;-3.6875;38.375
0.0;0.30340576171875;0.07879638671875;0.112060546875;0.94293212890625;9.462330138141644;10.814247813527981;9.753522252987478;-0.06298828125;0.73828125;0.888671875;-26.4375;-6.125;40.8125
0.0;0.296142578125;0.0751953125;0.11614990234375;0.94500732421875;9.42055530929559;10.768333518429053;9.767770195165681;0.05419921875;0.6142578125;0.94580078125;-49.3125;-5.3125;33.5
0.0;0.29144287109375;0.0732421875;0.1185302734375;0.94635009765625;9.39876054721935;10.73889491251734;9.776373996285322;-0.013671875;0.49560546875;0.93994140625;-37.1875;-4.6875;21.625
0.0;0.28863525390625;0.07196044921875;0.11993408203125;0.9471435546875;9.384642968991876;10.721220870599726;9.781277792148215;-0.0927734375;0.51953125;0.91943359375;-23.1875;-4.875;14.25
0.0;0.2860107421875;0.0714111328125;0.119140625;0.94805908203125;9.385655988075131;10.705019925009612;9.775427876236856;-0.05322265625;0.4384765625;0.76416015625;-13.0;-2.375;8.25
0.0;0.28460693359375;0.070556640625;0.11669921875;0.9488525390625;9.386893409114293;10.695480177656208;9.760154747856227;-0.1162109375;0.49169921875;0.8330078125;-12.0;-5.875;-3.0625
0.0;0.28387451171875;0.07049560546875;0.11248779296875;0.9495849609375;9.401536213389038;10.690346776267713;9.736611183705236;-0.05810546875;0.47314453125;0.7978515625;-4.8125;-7.4375;-12.75
0.0;0.28228759765625;0.0706787109375;0.107666015625;0.95062255859375;9.422050768011719;10.680173083383732;9.709914940273489;-0.1005859375;0.4814453125;0.763671875;-1.5625;-9.0625;-22.3125
0.0;0.28033447265625;0.070068359375;0.103515625;0.95172119140625;9.43204229106795;10.66724175299895;9.685471446707318;-0.11279296875;0.49951171875;0.75146484375;-8.5;-9.0625;-25.9375
0.0;0.2808837890625;0.07061767578125;0.09844970703125;0.9520263671875;9.454025754106203;10.670026570913736;9.658541784429904;-0.0546875;0.43603515625;0.7587890625;-7.5;-8.375;-23.375
0.0;0.284912109375;0.0736083984375;0.09405517578125;0.9510498046875;9.49577536944457;10.695538103315982;9.64041536075828;-0.05615234375;0.4189453125;0.76171875;9.6875;-4.875;-28.5625
0.0;0.28826904296875;0.0777587890625;0.09124755859375;0.949951171875;9.545925926573258;10.718386704917554;9.63314102007289;-0.13232421875;0.48046875;0.6142578125;23.125;3.375;-24.3125
0.0;0.28594970703125;0.08087158203125;0.08966064453125;0.9505615234375;9.5881928970325;10.706699025773935;9.629204062179578;-0.18310546875;0.60888671875;0.57373046875;10.9375;10.0625;-16.9375
0.0;0.283935546875;0.08380126953125;0.0882568359375;0.9510498046875;9.627426366484709;10.696743267584012;9.625986484213396;-0.177734375;0.509765625;0.56298828125;-18.5625;9.0625;-12.0625
0.0;0.2811279296875;0.08624267578125;0.08673095703125;0.9517822265625;9.66276820920687;10.68164977640227;9.620925090807889;-0.17333984375;0.46435546875;0.64111328125;-11.75;9.3125;-10.375
0.0;0.28179931640625;0.08953857421875;0.0850830078125;0.95147705078125;9.703283349567831;10.687884591904588;9.617808259165885;-0.205078125;0.4140625;0.71728515625;-10.875;5.6875;-9.625
0.0;0.2847900390625;0.09344482421875;0.08349609375;0.9503173828125;9.747295615105992;10.708694212498873;9.617122120775997;-0.19140625;0.4208984375;0.69384765625;9.0625;10.125;-10.0
0.0;0.289794921875;0.0965576171875;0.08221435546875;0.9486083984375;9.779046885620687;10.740982194089128;9.617648031286057;-0.22265625;0.439453125;0.67724609375;22.25;11.0625;-8.25
0.0;0.29315185546875;0.09820556640625;0.080810546875;0.947509765625;9.797480079648794;10.762149969054011;9.614317168783549;-0.17138671875;0.48779296875;0.64892578125;29.8125;9.5625;-6.1875
0.0;0.30145263671875;0.1004638671875;0.07861328125;0.94482421875;9.819067762820804;10.813401299704852;9.609958721069887;-0.1728515625;0.41748046875;0.734375;27.375;3.125;-5.5
0.0;0.31488037109375;0.10150146484375;0.0777587890625;0.9404296875;9.816092029598089;10.89508521561033;9.612990449254157;-0.25048828125;0.46435546875;0.6962890625;54.5625;-1.0625;-3.875
0.0;0.32745361328125;0.10015869140625;0.0771484375;0.93634033203125;9.787706392034567;10.969868169811033;9.612220096115145;-0.19091796875;0.70703125;0.64990234375;70.0625;-3.375;4.125
0.0;0.3365478515625;0.099365234375;0.07598876953125;0.93328857421875;9.772006694922416;11.02412938803298;9.608001846988401;-0.01611328125;0.7783203125;0.67431640625;62.75;-6.0;1.375
0.0;0.3460693359375;0.09942626953125;0.074951171875;0.92987060546875;9.76453147534881;11.08204020249736;9.606379560533982;-0.01611328125;0.75341796875;0.69677734375;46.4375;-2.875;-4.3125
0.0;0.355224609375;0.09912109375;0.07489013671875;0.92645263671875;9.749647295273176;11.137855666592845;9.609055113756716;-0.07177734375;0.767578125;0.7099609375;50.8125;-0.875;-3.0
0.0;0.36187744140625;0.10028076171875;0.0762939453125;0.923583984375;9.747179665044074;11.18038194116521;9.621859904499125;-0.021484375;0.7919921875;0.71142578125;48.5;1.5625;0.8125
0.0;0.36651611328125;0.099609375;0.0789794921875;0.921630859375;9.722259942348462;11.209021766592812;9.636531792351011;-0.1103515625;0.78466796875;0.697265625;34.9375;8.625;8.5
0.0;0.37017822265625;0.0987548828125;0.08050537109375;0.92010498046875;9.701587263897272;11.231253552382777;9.644151258035112;-0.072265625;0.68212890625;0.7880859375;30.625;4.5625;16.3125
0.0;0.3740234375;0.09771728515625;0.08160400390625;0.9185791015625;9.680505923327718;11.25425178453711;9.64903786484985;-0.10595703125;0.6494140625;0.841796875;30.5;0.0625;12.4375
0.0;0.37811279296875;0.09759521484375;0.08245849609375;0.9168701171875;9.669670032483909;11.279576045743216;9.654760235563495;-0.107421875;0.64599609375;0.79931640625;29.8125;-2.6875;10.8125
0.0;0.37933349609375;0.0975341796875;0.08355712890625;0.916259765625;9.662383690908868;11.287381703267839;9.660910879308206;-0.10546875;0.7216796875;0.73681640625;26.3125;1.0625;7.125
0.0;0.38043212890625;0.09722900390625;0.083984375;0.915771484375;9.655707533659012;11.294051879857596;9.662876040008104;-0.1455078125;0.67138671875;0.74462890625;11.75;0.4375;8.6875
0.0;0.38275146484375;0.09649658203125;0.0833740234375;0.91497802734375;9.647487465695965;11.307464543659423;9.658688354174515;-0.11962890625;0.65283203125;0.73876953125;11.4375;-0.5625;4.375
0.0;0.3858642578125;0.09552001953125;0.0819091796875;0.91387939453125;9.639527901599976;11.325529434223196;9.649694955805103;-0.11083984375;0.66015625;0.716796875;18.1875;-5.5625;0.5
0.0;0.388916015625;0.09417724609375;0.0797119140625;0.9129638671875;9.631302942066815;11.342576028770038;9.635866165181774;-0.09326171875;0.70361328125;0.70263671875;20.875;-8.4375;-4.0625
0.0;0.392822265625;0.09332275390625;0.076904296875;0.91156005859375;9.629992001024517;11.365557647200728;9.62033206367506;-0.0849609375;0.68798828125;0.701171875;21.3125;-11.5625;-7.625
0.0;0.3963623046875;0.0914306640625;0.07403564453125;0.91046142578125;9.61891343730257;11.385208477295178;9.601817002085358;-0.1240234375;0.70703125;0.64501953125;24.3125;-12.6875;-9.1875
0.0;0.4017333984375;0.08966064453125;0.070556640625;0.9085693359375;9.60989572626875;11.416368389582825;9.580969838952827;-0.0966796875;0.68310546875;0.6484375;23.0625;-16.625;-8.4375
0.0;0.408203125;0.08837890625;0.067138671875;0.90606689453125;9.604744329232224;11.455043521793442;9.562003704919961;-0.083984375;0.6796875;0.611328125;33.5;-17.8125;-11.25
0.0;0.4146728515625;0.087646484375;0.0633544921875;0.90350341796875;9.607547477652558;11.494202836385536;9.542488568479184;-0.08740234375;0.7119140625;0.5673828125;38.25;-16.0;-11.25
0.0;0.42181396484375;0.086669921875;0.059814453125;0.9005126953125;9.60640391813777;11.537741034135331;9.52394415226925;-0.13525390625;0.71533203125;0.54345703125;37.875;-15.8125;-11.75
0.0;0.4300537109375;0.084716796875;0.0565185546875;0.89697265625;9.593372101303075;11.587757823935114;9.504564002796428;-0.146484375;0.69921875;0.5224609375;42.75;-17.3125;-8.75
0.0;0.4384765625;0.0828857421875;0.05279541015625;0.893310546875;9.58424961929562;11.639105937390596;9.483279417508408;-0.1240234375;0.7060546875;0.525390625;50.25;-20.5;-5.5
0.0;0.44683837890625;0.0806884765625;0.04925537109375;0.88958740234375;9.571290156336481;11.690129067198715;9.461929486593743;-0.146484375;0.7158203125;0.51904296875;52.4375;-21.9375;-6.1875
0.0;0.45538330078125;0.07818603515625;0.0458984375;0.8856201171875;9.554868647425465;11.742609158695705;9.440728427681698;-0.1708984375;0.73779296875;0.53564453125;52.6875;-24.5;-3.125
0.0;0.46368408203125;0.07537841796875;0.0428466796875;0.8817138671875;9.534745935994431;11.793593012050723;9.42006410913106;-0.18505859375;0.748046875;0.5537109375;56.125;-25.75;-0.125
0.0;0.47186279296875;0.07257080078125;0.0399169921875;0.87774658203125;9.51481339408789;11.844183620114975;9.399871318061574;-0.18798828125;0.7705078125;0.56689453125;55.6875;-26.125;2.3125
0.0;0.47760009765625;0.06976318359375;0.03680419921875;0.875;9.498728619130933;11.879181698980815;9.377958435766818;-0.1396484375;0.818359375;0.54541015625;53.0;-24.4375;0.3125
0.0;0.4825439453125;0.0667724609375;0.0335693359375;0.87261962890625;9.48268635759651;11.909151770460644;9.35464393779371;-0.17138671875;0.8203125;0.53076171875;37.4375;-25.75;-0.125
0.0;0.48638916015625;0.0635986328125;0.0301513671875;0.870849609375;9.46717234292139;11.931891072355386;9.329529193002148;-0.1591796875;0.83056640625;0.52392578125;32.375;-26.75;-1.0
0.0;0.4879150390625;0.0604248046875;0.0262451171875;0.870361328125;9.456428837020688;11.939470979538996;9.301329830843173;-0.1416015625;0.859375;0.51123046875;23.9375;-27.8125;-3.0625
0.0;0.48895263671875;0.057373046875;0.02166748046875;0.8701171875;9.451146299141405;11.943975663209946;9.270002374163289;-0.13134765625;0.80517578125;0.552734375;13.9375;-28.625;-6.5625
0.0;0.490234375;0.0545654296875;0.01666259765625;0.86968994140625;9.450678481347298;11.950289784764408;9.237311486525648;-0.14794921875;0.74169921875;0.5537109375;13.125;-30.5;-9.0625
0.0;0.49151611328125;0.052001953125;0.0115966796875;0.86920166015625;9.453139452335646;11.956844190780146;9.205028071504039;-0.1689453125;0.76904296875;0.52783203125;12.625;-30.9375;-10.875
0.0;0.492431640625;0.0491943359375;0.0062255859375;0.868896484375;9.45520016746394;11.960938685414213;9.17044159066274;-0.208984375;0.75732421875;0.4912109375;11.4375;-31.9375;-9.375
0.0;0.49566650390625;0.04638671875;7.9345703125E-4;0.86724853515625;9.456985168926247;11.980400030092191;9.13616882110086;-0.197265625;0.7236328125;0.4814453125;9.6875;-33.6875;-10.625
0.0;0.50152587890625;0.04364013671875;-0.004150390625;0.86395263671875;9.456441865478567;12.017717465033641;9.105228105072863;-0.189453125;0.7841796875;0.42431640625;20.0;-33.1875;-11.0
0.0;0.50860595703125;0.04071044921875;-0.009033203125;0.85992431640625;9.454334773455498;12.06318826188694;9.074377887381557;-0.142578125;0.8994140625;0.36767578125;31.0;-29.9375;-11.6875
0.0;0.51641845703125;0.0384521484375;-0.0146484375;0.85528564453125;9.464105314049037;12.114050598574021;9.042135026046797;-0.111328125;0.9716796875;0.3544921875;36.9375;-28.9375;-12.75
0.0;0.5225830078125;0.03472900390625;-0.02081298828125;0.8515625;9.464085630067963;12.153740972561025;9.002444652059792;-0.1435546875;0.9609375;0.267578125;38.5625;-29.125;-16.25
0.0;0.5267333984375;0.03436279296875;-0.0269775390625;0.848876953125;9.497746684730627;12.180785631948968;8.972388739488196;-0.03369140625;0.8466796875;0.2958984375;34.625;-34.5625;-21.0
0.0;0.53436279296875;0.0325927734375;-0.0325927734375;0.84393310546875;9.515525060916275;12.231509596736963;8.94194487753924;-0.11669921875;0.7431640625;0.47607421875;36.25;-20.3125;-25.625
0.0;0.54119873046875;0.03009033203125;-0.03759765625;0.8394775390625;9.52338895468821;12.276908820591819;8.912080377782086;-0.06005859375;0.82666015625;0.27734375;45.9375;-23.3125;-22.625
0.0;0.5474853515625;0.0257568359375;-0.04339599609375;0.83526611328125;9.51951870786478;12.318549227949008;8.872543396614232;-0.09716796875;0.93017578125;0.2890625;39.75;-26.0625;-16.125
0.0;0.5550537109375;0.02178955078125;-0.050048828125;0.8299560546875;9.526361711945224;12.36956584095212;8.830466807592021;0.01123046875;0.94482421875;0.294921875;37.4375;-34.6875;-20.9375
0.0;0.56396484375;0.01934814453125;-0.0550537109375;0.82366943359375;9.539259973131246;12.430591702010759;8.801648760386179;0.0478515625;0.9169921875;0.31103515625;50.4375;-33.75;-28.625
0.0;0.57177734375;0.01812744140625;-0.05706787109375;0.81817626953125;9.54472930925384;12.484792787872362;8.79071767320279;0.06494140625;1.01123046875;0.24365234375;53.5625;-20.75;-27.875
0.0;0.5792236328125;0.01837158203125;-0.06072998046875;0.8126220703125;9.57519994747297;12.536847738166397;8.776837567578273;0.0849609375;1.02880859375;0.29736328125;49.9375;-5.0625;-18.6875
0.0;0.58343505859375;0.01214599609375;-0.06243896484375;0.8095703125;9.530965765226675;12.566305056462994;8.749548802050672;-0.1875;0.94970703125;0.20166015625;44.6875;-10.9375;-13.4375
0.0;0.5927734375;0.0081787109375;-0.06549072265625;0.8026123046875;9.520836637151058;12.632275314740786;8.725033455595655;0.26220703125;0.87939453125;0.416015625;40.0625;-24.0;-10.75
0.0;0.6002197265625;0.00762939453125;-0.06951904296875;0.7967529296875;9.548664589608023;12.685138746916856;8.707019956055479;0.076171875;0.9609375;0.00830078125;48.625;-23.0625;-14.3125
0.0;0.605712890625;0.0032958984375;-0.07379150390625;0.79217529296875;9.542977064792915;12.724763988376916;8.674314999341963;-0.19482421875;0.98681640625;0.17578125;47.0;-15.875;-12.0
0.0;0.61224365234375;-0.0030517578125;-0.077392578125;0.78680419921875;9.516204053744135;12.772448004361227;8.637941872612712;-0.02734375;0.85546875;0.26953125;44.8125;-30.8125;-9.9375
0.0;0.61688232421875;-0.0107421875;-0.0802001953125;0.7828369140625;9.471132909672257;12.807344816994856;8.599627730859407;0.0205078125;0.9580078125;0.28955078125;53.875;-36.125;-4.125
0.0;0.6190185546875;-0.01788330078125;-0.08447265625;0.78057861328125;9.439695595859133;12.824438719325046;8.555671461370414;0.1318359375;0.9970703125;0.291015625;41.1875;-38.5625;-2.4375
0.0;0.62066650390625;-0.02593994140625;-0.08837890625;0.778564453125;9.397519594383631;12.83911191460187;8.509886390554614;0.06103515625;0.98583984375;0.306640625;25.375;-43.625;-4.5625
0.0;0.6229248046875;-0.0322265625;-0.09283447265625;0.7760009765625;9.376421319763448;12.857997057053783;8.467960398091884;0.1064453125;0.9267578125;0.29931640625;23.75;-46.125;-1.75
0.0;0.6268310546875;-0.03497314453125;-0.09857177734375;0.77203369140625;9.39899949044412;12.887583953070415;8.433255094122487;0.06982421875;0.9052734375;0.255859375;25.1875;-40.875;-8.0
0.0;0.6319580078125;-0.03656005859375;-0.1044921875;0.7669677734375;9.435861193224726;12.92592082940798;8.402318906685316;-0.0849609375;0.95654296875;0.18505859375;30.1875;-31.625;-17.4375
0.0;0.63482666015625;-0.0419921875;-0.106689453125;0.7640380859375;9.408855066521149;12.949814846227493;8.373597007495897;-0.21630859375;0.90673828125;-0.0224609375;26.375;-29.875;-14.4375
0.0;0.64239501953125;-0.04534912109375;-0.10687255859375;0.75750732421875;9.393395198678506;13.007935647461789;8.36247812302263;0.1787109375;0.87646484375;0.2060546875;28.4375;-27.1875;-9.25
0.0;0.64892578125;-0.04339599609375;-0.108154296875;0.7518310546875;9.430812749344092;13.055883588829115;8.365770821888423;0.1181640625;0.99267578125;-0.22314453125;31.625;-11.8125;-7.1875
0.0;0.65447998046875;-0.04248046875;-0.1087646484375;0.7469482421875;9.452615921740202;13.09742788456418;8.36810044937831;-0.26318359375;1.01611328125;-0.1396484375;27.125;2.6875;-5.3125
0.0;0.66180419921875;-0.04400634765625;-0.10736083984375;0.7406005859375;9.44119114028803;13.154071072355226;8.370626980631663;-0.396484375;0.9169921875;0.07421875;37.25;0.3125;12.0625
0.0;0.66705322265625;-0.045166015625;-0.1060791015625;0.73602294921875;9.430327216800837;13.194942384026971;8.373281613641247;-0.34130859375;1.091796875;0.115234375;55.625;-0.9375;24.0
0.0;0.66949462890625;-0.04315185546875;-0.10888671875;0.73345947265625;9.473261221109556;13.212797447023148;8.369619468688024;-0.2548828125;1.06787109375;-0.03515625;29.9375;-0.1875;17.6875
0.0;0.671630859375;-0.04461669921875;-0.10748291015625;0.73162841796875;9.453677802145288;13.230147458259703;8.370687541048841;-0.384765625;0.90625;0.08251953125;17.5;-3.625;0.0
0.0;0.67535400390625;-0.04376220703125;-0.11029052734375;0.72784423828125;9.489162733306705;13.258456026082342;8.36315347807669;0.06494140625;0.84033203125;0.19482421875;25.375;1.4375;0.6875
0.0;0.67816162109375;-0.041259765625;-0.11846923828125;0.72406005859375;9.57934882936949;13.27892386182878;8.338944870479173;-0.087890625;0.86279296875;0.13818359375;33.375;-5.75;-17.5
0.0;0.682861328125;-0.04595947265625;-0.1263427734375;0.718017578125;9.611693185515444;13.31806091676338;8.289083139870574;-0.3984375;0.8046875;0.15771484375;29.4375;-21.3125;-24.75
0.0;0.68756103515625;-0.053466796875;-0.131591796875;0.7120361328125;9.601700114377866;13.35960579788323;8.239408459583043;-0.197265625;0.880859375;0.10302734375;47.25;-48.6875;-12.625
0.0;0.69000244140625;-0.06134033203125;-0.137451171875;0.70794677734375;9.59025789631064;13.384139460084498;8.184693357926943;0.12646484375;1.10302734375;0.05517578125;47.25;-48.625;-14.6875
0.0;0.6927490234375;-0.0655517578125;-0.14508056640625;0.703369140625;9.62459967628047;13.40897707828055;8.13708242488347;0.11572265625;1.03369140625;0.07958984375;32.8125;-53.5625;-12.5
0.0;0.69549560546875;-0.07305908203125;-0.15155029296875;0.69854736328125;9.624245706200002;13.436926726704922;8.081272256427038;-0.12646484375;0.99072265625;0.11572265625;35.625;-46.375;-17.625
0.0;0.70245361328125;-0.0797119140625;-0.1578369140625;0.68939208984375;9.642163430036167;13.498907710615784;8.031393527065443;0.12548828125;0.9453125;0.0751953125;37.9375;-54.4375;-17.1875
0.0;0.70904541015625;-0.08477783203125;-0.165283203125;0.68023681640625;9.683738024922231;13.55739997174667;7.983070730176374;-0.0693359375;1.03662109375;-0.18115234375;54.8125;-50.9375;-13.25
0.0;0.7108154296875;-0.08990478515625;-0.1719970703125;0.676025390625;9.70634560134617;13.577228131201892;7.935342859216487;-0.24609375;1.11572265625;-0.17626953125;53.3125;-49.4375;-12.25
0.0;0.71417236328125;-0.09576416015625;-0.17962646484375;0.669677734375;9.737212246434215;13.611186867322342;7.881663141189997;-0.01611328125;1.01611328125;0.171875;39.625;-46.0625;-17.8125
0.0;0.7147216796875;-0.100830078125;-0.18890380859375;0.665771484375;9.78035642026148;13.621657027977701;7.822995374842532;-0.0634765625;1.0537109375;0.017578125;44.5625;-53.4375;-18.75
0.0;0.7120361328125;-0.1044921875;-0.19952392578125;0.66497802734375;9.834759485972489;13.60400299387819;7.762590863268182;-0.08984375;1.11865234375;0.0556640625;25.4375;-58.3125;-23.5
0.0;0.71221923828125;-0.10791015625;-0.2100830078125;0.6610107421875;9.900933183357333;13.609760994260903;7.704854001877119;-0.05712890625;1.0625;0.04345703125;-3.3125;-60.125;-31.875
0.0;0.71173095703125;-0.114501953125;-0.21282958984375;0.6595458984375;9.87382652223243;13.61415786183705;7.66616412115627;-0.14453125;0.77490234375;0.03564453125;18.9375;-57.8125;-29.3125
0.0;0.70245361328125;-0.1142578125;-0.22149658203125;0.6666259765625;9.914050871137006;13.537854932164798;7.625093576548018;0.0703125;1.46630859375;-0.13818359375;5.0625;-39.0;-5.9375
0.0;0.69134521484375;-0.1129150390625;-0.230224609375;0.6754150390625;9.954472425729364;13.446304413289148;7.5861747618100335;-0.18017578125;0.9970703125;0.06494140625;-64.5;-40.4375;-17.6875
0.0;0.6798095703125;-0.1136474609375;-0.23699951171875;0.68463134765625;9.959164124581033;13.355148094039041;7.546591472970061;-0.1533203125;0.87353515625;0.0478515625;-83.3125;-38.0625;-19.6875
0.0;0.670166015625;-0.10986328125;-0.2459716796875;0.69158935546875;10.023726888805339;13.273843078299688;7.515302600257699;9.765625E-4;0.96142578125;0.1455078125;-77.625;-37.375;-15.3125
0.0;0.66265869140625;-0.10400390625;-0.25262451171875;0.697265625;10.094017272416368;13.207500315101024;7.502521472980376;-0.19140625;0.74169921875;0.11376953125;-72.3125;-28.4375;-30.1875
0.0;0.66070556640625;-0.101806640625;-0.25726318359375;0.69775390625;10.141360424445965;13.189144305266451;7.488316200690676;-0.32421875;0.53662109375;0.00830078125;-67.0;-11.25;-21.1875
0.0;0.66363525390625;-0.10107421875;-0.25689697265625;0.6951904296875;10.15637106480067;13.210994975927989;7.494835488776059;-0.19482421875;0.5322265625;-0.0224609375;-21.3125;-12.9375;-19.0
0.0;0.66778564453125;-0.10009765625;-0.2569580078125;0.69134521484375;10.181740363490217;13.241993095028397;7.501330452800053;-0.18212890625;0.8974609375;-0.078125;8.9375;4.625;-7.0
0.0;0.6737060546875;-0.10064697265625;-0.2568359375;0.685546875;10.200974506478085;13.289124661860773;7.504300300241918;-0.16845703125;0.69580078125;-0.19775390625;11.875;3.75;-10.5
0.0;0.684326171875;-0.10272216796875;-0.25543212890625;0.6751708984375;10.217493191999484;13.37614190899104;7.51088786125365;-0.15283203125;0.67236328125;-0.1982421875;29.5;0.0625;-8.6875
0.0;0.6910400390625;-0.1044921875;-0.25421142578125;0.66845703125;10.221975832430271;13.432560618762503;7.51471520046188;-0.1982421875;0.83056640625;-0.25537109375;65.625;2.5625;-6.6875
0.0;0.69012451171875;-0.1044921875;-0.25579833984375;0.6688232421875;10.231598357164973;13.425018534257344;7.507019635011266;-0.16845703125;1.14794921875;-0.35595703125;29.25;-1.8125;-7.875
0.0;0.68487548828125;-0.1021728515625;-0.259033203125;0.67333984375;10.254589380499652;13.379658840303778;7.497506923945945;-0.15576171875;1.13134765625;-0.26611328125;-26.5;-11.75;-11.375
0.0;0.67974853515625;-0.0994873046875;-0.26177978515625;0.6778564453125;10.276885660219396;13.335225844671584;7.491414733568827;-0.21337890625;1.09619140625;-0.052734375;-50.1875;-10.1875;-14.0625
0.0;0.67596435546875;-0.09710693359375;-0.2640380859375;0.68109130859375;10.298479635984332;13.302139901890405;7.487236188648813;-0.23193359375;1.0751953125;0.06005859375;-43.0;-5.5625;-12.1875
0.0;0.67523193359375;-0.09564208984375;-0.2646484375;0.68182373046875;10.311899841895805;13.294395871705543;7.4894794292735645;-0.25244140625;0.99951171875;0.17041015625;-25.25;-1.625;-9.6875
0.0;0.67694091796875;-0.09539794921875;-0.26422119140625;0.6802978515625;10.317544318877184;13.307814997601772;7.4937680573341945;-0.25341796875;0.927734375;0.17822265625;-0.5625;4.0625;-4.0
0.0;0.6795654296875;-0.09576416015625;-0.26385498046875;0.677734375;10.322794419456434;13.329307168062686;7.496237094597403;-0.26416015625;0.9345703125;0.140625;17.6875;5.25;0.5625
0.0;0.68206787109375;-0.09661865234375;-0.26397705078125;0.675048828125;10.32778079354998;13.350324562091487;7.494566831475316;-0.275390625;0.9169921875;0.0869140625;22.875;3.0625;1.4375
0.0;0.68463134765625;-0.09820556640625;-0.26416015625;0.67218017578125;10.327867983509021;13.372671182426624;7.4898693792192015;-0.26953125;0.89697265625;0.06298828125;22.75;-1.8125;1.375
0.0;0.68701171875;-0.099853515625;-0.2642822265625;0.66943359375;10.32648477527113;13.39392013624709;7.484994933394326;-0.25927734375;0.87939453125;0.0498046875;24.0;-4.375;3.0625
0.0;0.689208984375;-0.10162353515625;-0.2637939453125;0.6671142578125;10.318154492359866;13.413796864873175;7.482191898873094;-0.25439453125;0.88232421875;0.0302734375;22.125;-5.0;3.875
0.0;0.6910400390625;-0.10284423828125;-0.2633056640625;0.6651611328125;10.312758636878591;13.4303971619152;7.481129480381297;-0.22216796875;0.9130859375;0.0;18.8125;-3.375;4.25
0.0;0.69244384765625;-0.103759765625;-0.26239013671875;0.6639404296875;10.303937198035413;13.442881728234102;7.482805360384822;-0.2080078125;0.90576171875;0.00244140625;15.4375;-1.5;2.75
0.0;0.69244384765625;-0.10418701171875;-0.26226806640625;0.6639404296875;10.299573542939616;13.443342830177556;7.48167843448463;-0.19970703125;0.94580078125;-0.0224609375;9.3125;0.6875;2.9375
0.0;0.69219970703125;-0.10400390625;-0.262451171875;0.66412353515625;10.301565954991945;13.441231963819796;7.481362715818273;-0.19189453125;0.9560546875;0.0029296875;-0.375;-1.1875;-0.0625
0.0;0.6920166015625;-0.10400390625;-0.2623291015625;0.6644287109375;10.299517524347658;13.439492700804395;7.48178564050113;-0.20263671875;0.9560546875;0.013671875;-2.5;-0.625;-2.0625
0.0;0.69122314453125;-0.10382080078125;-0.26226806640625;0.66522216796875;10.297184164235837;13.433143326247889;7.482037376230986;-0.18896484375;0.96484375;-4.8828125E-4;-3.5625;0.375;-1.25
0.0;0.6905517578125;-0.10382080078125;-0.26263427734375;0.66583251953125;10.297240643141528;13.427465620634315;7.479884784287914;-0.18701171875;0.966796875;0.02490234375;-6.125;0.1875;-1.375
0.0;0.6903076171875;-0.10400390625;-0.262939453125;0.6658935546875;10.297531390236882;13.425870207271618;7.477584372121633;-0.193359375;0.9521484375;0.0263671875;-5.0;-2.1875;-1.8125
0.0;0.69024658203125;-0.10400390625;-0.262939453125;0.66595458984375;10.297271918617072;13.425383849636791;7.47753076708457;-0.20703125;0.931640625;0.01611328125;-1.8125;-2.3125;-0.875
0.0;0.690673828125;-0.10357666015625;-0.26318359375;0.66552734375;10.30436303697751;13.428137397465392;7.478519658070252;-0.1982421875;0.904296875;0.04248046875;0.0;-0.5;-0.875
0.0;0.69061279296875;-0.10272216796875;-0.26373291015625;0.66546630859375;10.315472611111616;13.42672142174428;7.479357382478652;-0.212890625;0.92138671875;0.0107421875;1.6875;0.9375;-3.6875
0.0;0.69049072265625;-0.10162353515625;-0.26409912109375;0.6656494140625;10.32639830955695;13.42424754996896;7.4819480710935355;-0.23046875;0.91015625;0.01513671875;-2.4375;0.8125;-4.375
0.0;0.69036865234375;-0.1002197265625;-0.26483154296875;0.66571044921875;10.342884861622458;13.421484607668173;7.484092098704732;-0.228515625;0.9091796875;0.02392578125;-2.8125;2.625;-4.5
0.0;0.6898193359375;-0.0982666015625;-0.266357421875;0.66595458984375;10.36863640081818;13.414668598422711;7.484454946495644;-0.22705078125;0.9130859375;0.01806640625;-4.0;1.875;-7.4375
0.0;0.6893310546875;-0.09649658203125;-0.26788330078125;0.66607666015625;10.393342847780758;13.408680004024944;7.484110492777614;-0.2470703125;0.90625;0.02685546875;-6.75;0.9375;-11.3125
0.0;0.6884765625;-0.09417724609375;-0.27008056640625;0.66644287109375;10.426286333420332;13.398822986040821;7.482574065728855;-0.2451171875;0.92041015625;0.01611328125;-7.0625;-0.375;-11.1875
0.0;0.68719482421875;-0.09149169921875;-0.2725830078125;0.6671142578125;10.463005604408652;13.385276161799904;7.480580044513145;-0.25146484375;0.91455078125;0.0205078125;-10.1875;-1.0625;-15.1875
0.0;0.6856689453125;-0.08905029296875;-0.27471923828125;0.6680908203125;10.493804620799088;13.37024011057576;7.478916026106924;-0.275390625;0.916015625;0.03173828125;-13.375;-1.375;-15.9375
0.0;0.68328857421875;-0.08642578125;-0.2774658203125;0.66973876953125;10.527439894080052;13.347909280662641;7.47427295173089;-0.26513671875;0.91943359375;0.03173828125;-15.4375;-1.5625;-14.1875
0.0;0.68084716796875;-0.0836181640625;-0.2802734375;0.67144775390625;10.562692546102769;13.324815225294955;7.469846510526196;-0.26708984375;0.9169921875;0.06396484375;-20.0;-3.3125;-16.0
0.0;0.678466796875;-0.0809326171875;-0.28253173828125;0.67327880859375;10.592611361890551;13.30244112477566;7.46735167269318;-0.27490234375;0.90576171875;0.068359375;-20.875;-3.1875;-16.4375
0.0;0.67657470703125;-0.0780029296875;-0.2841796875;0.67474365234375;10.621894179522704;13.284360746240901;7.468871904821457;-0.27490234375;0.91455078125;0.08837890625;-20.125;-0.875;-14.3125
0.0;0.67425537109375;-0.0755615234375;-0.28564453125;0.6767578125;10.643590591861313;13.262962382471432;7.468900838554682;-0.2744140625;0.9111328125;0.07470703125;-18.125;2.5625;-13.625
0.0;0.67205810546875;-0.07305908203125;-0.28741455078125;0.67852783203125;10.668868401619038;13.242427152074994;7.467796973680757;-0.2529296875;0.88916015625;0.087890625;-20.375;1.125;-12.0625
0.0;0.669921875;-0.07080078125;-0.288818359375;0.68023681640625;10.689774306901501;13.22311262894226;7.467375131867223;-0.27197265625;0.8876953125;0.1064453125;-18.625;0.5;-12.25
0.0;0.6678466796875;-0.06854248046875;-0.290283203125;0.681884765625;10.711367115678067;13.204162787121847;7.46667741577247;-0.27001953125;0.8974609375;0.111328125;-17.4375;1.0625;-10.9375
0.0;0.66644287109375;-0.0667724609375;-0.291748046875;0.68280029296875;10.731956064155831;13.191109857641758;7.464835384693928;-0.271484375;0.892578125;0.12646484375;-16.5;1.1875;-11.0
0.0;0.6651611328125;-0.06512451171875;-0.29315185546875;0.68359375;10.75160779413373;13.179195506939717;7.462905726447894;-0.27978515625;0.88427734375;0.12451171875;-10.75;-0.1875;-10.0
0.0;0.66424560546875;-0.064208984375;-0.29443359375;0.68402099609375;10.765807286873706;13.17085421189473;7.4592302378281445;-0.31103515625;0.88134765625;0.14306640625;-8.5;-0.3125;-8.125
0.0;0.663330078125;-0.0634765625;-0.29571533203125;0.6844482421875;10.77843517740527;13.162604447294758;7.4548671052964055;-0.3046875;0.8916015625;0.12646484375;-5.875;-2.125;-6.25
0.0;0.66302490234375;-0.06317138671875;-0.29656982421875;0.68438720703125;10.786768073312988;13.159813724588359;7.451607120074746;-0.31298828125;0.884765625;0.13671875;-4.625;-2.8125;-4.9375
0.0;0.66290283203125;-0.0633544921875;-0.29705810546875;0.68426513671875;10.788843307382283;13.158975567970534;7.448487724826171;-0.31640625;0.88525390625;0.13232421875;-0.1875;-2.375;-2.5625
0.0;0.6630859375;-0.0638427734375;-0.2969970703125;0.68408203125;10.78509523276091;13.160847634541689;7.447201577161952;-0.32568359375;0.8828125;0.1328125;1.9375;-2.625;1.0
0.0;0.6634521484375;-0.0650634765625;-0.296142578125;0.6839599609375;10.769683994003069;13.165119063702297;7.447143088201554;-0.3310546875;0.88623046875;0.12744140625;3.8125;-1.3125;4.875
0.0;0.6636962890625;-0.0657958984375;-0.29541015625;0.68402099609375;10.758507769155823;13.16767996325053;7.448199825101953;-0.29736328125;0.8818359375;0.10400390625;4.25;-1.125;8.3125
0.0;0.663818359375;-0.0665283203125;-0.2945556640625;0.68414306640625;10.746147490513401;13.169683538773295;7.449619478006072;-0.29833984375;0.87158203125;0.11669921875;3.375;0.4375;7.0
0.0;0.66351318359375;-0.06683349609375;-0.2943115234375;0.6845703125;10.740133326241239;13.167384046842484;7.449331677468952;-0.28759765625;0.89404296875;0.09912109375;1.125;0.5625;6.375
0.0;0.6636962890625;-0.0670166015625;-0.2940673828125;0.6844482421875;10.737505237322088;13.169165309075206;7.449989764357712;-0.2890625;0.86865234375;0.12255859375;-0.75;-0.5;4.0
0.0;0.66363525390625;-0.067138671875;-0.29364013671875;0.6846923828125;10.73265246942306;13.168812835691488;7.451483951653595;-0.298828125;0.8818359375;0.10693359375;1.875;0.6875;2.6875
0.0;0.66357421875;-0.0667724609375;-0.2933349609375;0.6849365234375;10.732775603128244;13.167957025312091;7.454206124898899;-0.2880859375;0.88623046875;0.10546875;-0.8125;0.875;3.4375
0.0;0.6639404296875;-0.06634521484375;-0.29290771484375;0.68475341796875;10.734447536948538;13.170714417174619;7.458161396702316;-0.28125;0.876953125;0.11669921875;-0.875;2.875;0.375
0.0;0.66351318359375;-0.06573486328125;-0.2926025390625;0.68536376953125;10.73503255084935;13.166762650482376;7.461364588269359;-0.28662109375;0.92138671875;0.08642578125;0.3125;3.625;-0.5625
0.0;0.66290283203125;-0.06488037109375;-0.29278564453125;0.68597412109375;10.74086129176445;13.161024161236913;7.462973591584529;-0.2861328125;0.91064453125;0.10302734375;-5.0;2.8125;-0.125
0.0;0.66217041015625;-0.06378173828125;-0.293212890625;0.68658447265625;10.750312560412327;13.154182826996873;7.464166817079325;-0.28271484375;0.89453125;0.10693359375;-6.375;1.6875;-2.4375
0.0;0.66168212890625;-0.0623779296875;-0.29345703125;0.68707275390625;10.761770288106373;13.149000496833382;7.467611175674303;-0.2900390625;0.8955078125;0.11376953125;-6.6875;1.8125;-4.375
0.0;0.6611328125;-0.0609130859375;-0.29339599609375;0.687744140625;10.770995886788674;13.1433739026884;7.472630896758427;-0.30078125;0.88671875;0.1162109375;-5.9375;3.875;-4.1875
0.0;0.66009521484375;-0.0594482421875;-0.29376220703125;0.68878173828125;10.781445929336524;13.133521143474677;7.475113450607713;-0.2958984375;0.8916015625;0.11181640625;-7.0625;5.25;-3.4375
0.0;0.65869140625;-0.05810546875;-0.2943115234375;0.69000244140625;10.791124276236562;13.121127079518264;7.475798890247014;-0.298828125;0.88427734375;0.1171875;-10.25;3.0625;-4.0625
0.0;0.6575927734375;-0.0567626953125;-0.29547119140625;0.69061279296875;10.807300312284024;13.111240087871222;7.473891473019515;-0.28955078125;0.873046875;0.13916015625;-11.3125;1.5625;-4.375
0.0;0.65716552734375;-0.05596923828125;-0.296142578125;0.69085693359375;10.817384752706964;13.106829971521053;7.473126943288544;-0.318359375;0.86181640625;0.16259765625;-6.3125;0.125;-6.0
0.0;0.65667724609375;-0.0556640625;-0.2965087890625;0.69110107421875;10.82114889810132;13.10295092432698;7.471873011283553;-0.33154296875;0.87255859375;0.14599609375;-2.5;-0.0625;-2.6875
0.0;0.65643310546875;-0.05499267578125;-0.2972412109375;0.69110107421875;10.831601702515673;13.100197656660214;7.470558139312022;-0.3056640625;0.8994140625;0.150390625;-1.9375;-0.375;-1.5
0.0;0.65576171875;-0.05450439453125;-0.29803466796875;0.69140625;10.839425072267764;13.094422430737216;7.467742159089415;-0.3076171875;0.88916015625;0.1201171875;-2.6875;-0.75;-4.4375
0.0;0.6552734375;-0.05413818359375;-0.2989501953125;0.6915283203125;10.847825718993185;13.089979207647163;7.464141801407177;-0.31005859375;0.88818359375;0.14599609375;-3.625;-1.9375;-3.6875
0.0;0.6549072265625;-0.053955078125;-0.299560546875;0.691650390625;10.85271763758048;13.086719426832195;7.461471809427072;-0.3173828125;0.88134765625;0.1435546875;-2.125;-2.375;-3.3125
0.0;0.6549072265625;-0.05340576171875;-0.30047607421875;0.69134521484375;10.864625593769345;13.085887805536135;7.459115987274112;-0.29833984375;0.8818359375;0.126953125;-2.625;-2.3125;-2.9375
0.0;0.65435791015625;-0.052001953125;-0.30157470703125;0.69140625;10.883269883123457;13.080441426404825;7.458219053056849;-0.29638671875;0.88720703125;0.1201171875;-0.6875;-1.75;-6.6875
0.0;0.654052734375;-0.05059814453125;-0.30242919921875;0.69146728515625;10.900534420979618;13.076525029318905;7.458842056243973;-0.3232421875;0.875;0.13623046875;-4.75;0.625;-7.8125
0.0;0.65362548828125;-0.048828125;-0.30340576171875;0.69158935546875;10.921429009172156;13.071409851018819;7.460019353224014;-0.30908203125;0.87353515625;0.12646484375;-4.4375;1.75;-8.125
0.0;0.65301513671875;-0.0474853515625;-0.3040771484375;0.69195556640625;10.935591812416911;13.065375334475993;7.4608606335458445;-0.328125;0.88232421875;0.1396484375;-5.1875;2.6875;-9.1875
0.0;0.652099609375;-0.04632568359375;-0.304931640625;0.69256591796875;10.948261471427742;13.056853940852209;7.459792944389597;-0.31640625;0.88330078125;0.13525390625;-6.3125;1.75;-6.9375
0.0;0.65087890625;-0.0452880859375;-0.30615234375;0.69317626953125;10.961990548609194;13.046339726409073;7.456049548574888;-0.31103515625;0.88525390625;0.13916015625;-8.0;-0.125;-6.8125
0.0;0.65008544921875;-0.04510498046875;-0.30682373046875;0.69366455078125;10.96554026604652;13.039670484415375;7.452475108252473;-0.3359375;0.8798828125;0.16455078125;-7.875;-2.0;-6.25
0.0;0.64990234375;-0.04522705078125;-0.3072509765625;0.693603515625;10.967339794234572;13.038347986099133;7.449722572816195;-0.31103515625;0.8759765625;0.16259765625;-3.9375;-2.3125;-2.5625
0.0;0.65008544921875;-0.04571533203125;-0.30706787109375;0.6934814453125;10.962521251731225;13.040226824218738;7.449096267447688;-0.31787109375;0.87939453125;0.15673828125;0.5;-2.25;-1.3125
0.0;0.6497802734375;-0.04638671875;-0.306884765625;0.69384765625;10.953940522949756;13.038252344086272;7.447225609048989;-0.33349609375;0.8984375;0.1484375;2.25;-1.0;2.5
0.0;0.6494140625;-0.04693603515625;-0.3072509765625;0.6939697265625;10.950823170753036;13.035806488047339;7.44302441732558;-0.3037109375;0.87744140625;0.1455078125;-1.125;-2.3125;3.375
0.0;0.6500244140625;-0.047607421875;-0.3070068359375;0.69342041015625;10.945940200392569;13.04136660448102;7.442548444145812;-0.31396484375;0.8525390625;0.18798828125;1.8125;-3.25;1.1875
0.0;0.65069580078125;-0.047607421875;-0.3074951171875;0.69256591796875;10.952825632922472;13.046576139201607;7.441026615433648;-0.287109375;0.86767578125;0.14990234375;6.5625;-0.4375;0.875
0.0;0.6517333984375;-0.0472412109375;-0.30792236328125;0.69146728515625;10.9636896075134;13.054222803385255;7.4416067036930915;-0.3125;0.88671875;0.154296875;6.5625;-0.4375;-4.125
0.0;0.65301513671875;-0.04693603515625;-0.307861328125;0.6903076171875;10.971231123429698;13.064125440646004;7.444623038450896;-0.33349609375;0.861328125;0.13671875;7.625;1.3125;-3.875
0.0;0.65374755859375;-0.046630859375;-0.30767822265625;0.689697265625;10.975484740063695;13.069796883797624;7.447524448460667;-0.349609375;0.8759765625;0.13525390625;8.625;2.875;-1.125
0.0;0.65460205078125;-0.04644775390625;-0.30743408203125;0.68902587890625;10.978606177078841;13.076424813559;7.450461775819476;-0.33740234375;0.853515625;0.130859375;4.9375;2.875;0.0
0.0;0.65460205078125;-0.04638671875;-0.30743408203125;0.68902587890625;10.979130050697089;13.076390915388268;7.450679233430061;-0.34375;0.87060546875;0.1279296875;5.4375;2.75;0.8125
0.0;0.65460205078125;-0.04638671875;-0.30743408203125;0.68902587890625;10.979130050697089;13.076390915388268;7.450679233430061;-0.34228515625;0.87841796875;0.1220703125;0.8125;0.1875;-0.1875
0.0;0.65484619140625;-0.04608154296875;-0.30780029296875;0.68865966796875;10.985707522582128;13.077976982210101;7.450335736971322;-0.32666015625;0.87841796875;0.14453125;0.8125;-0.875;-0.3125
0.0;0.6546630859375;-0.0450439453125;-0.30877685546875;0.6884765625;11.001592630576807;13.07544644117158;7.44914140215463;-0.31884765625;0.8818359375;0.1259765625;1.625;0.125;-3.4375
0.0;0.6544189453125;-0.0440673828125;-0.3094482421875;0.6884765625;11.014219342383164;13.0725699794694;7.4491055196459;-0.34228515625;0.86279296875;0.1298828125;-2.1875;-0.0625;-6.5625
0.0;0.654052734375;-0.04302978515625;-0.30999755859375;0.6885986328125;11.026010719376465;13.068888070838968;7.449681825748866;-0.3310546875;0.86669921875;0.130859375;-2.9375;0.875;-5.5625
0.0;0.654052734375;-0.0416259765625;-0.31072998046875;0.68841552734375;11.043596222483426;13.067436020356425;7.451222821747027;-0.31005859375;0.86962890625;0.126953125;-4.3125;1.4375;-6.875
0.0;0.653564453125;-0.0399169921875;-0.31134033203125;0.68865966796875;11.061030343282066;13.062286716257528;7.45373284555822;-0.31982421875;0.88720703125;0.1044921875;-3.875;2.0;-9.5
0.0;0.653564453125;-0.03826904296875;-0.311279296875;0.68878173828125;11.074382830017605;13.061096276452751;7.459942574608997;-0.3359375;0.8818359375;0.12646484375;-6.875;3.3125;-8.1875
0.0;0.65264892578125;-0.037353515625;-0.31103515625;0.68975830078125;11.07637245675473;13.053379622177088;7.4631415768238965;-0.357421875;0.91162109375;0.115234375;-5.0;6.125;-5.1875
0.0;0.6513671875;-0.03729248046875;-0.31097412109375;0.6910400390625;11.07080880079746;13.043001257212932;7.4619466080272145;-0.3701171875;0.89404296875;0.1396484375;-8.875;2.75;0.9375
0.0;0.64990234375;-0.03839111328125;-0.31072998046875;0.6925048828125;11.053192099017814;13.032096516334434;7.457269711430399;-0.3623046875;0.85546875;0.16650390625;-7.9375;-1.375;4.9375
0.0;0.64923095703125;-0.0394287109375;-0.310546875;0.693115234375;11.040229763063923;13.02774668622336;7.453550368440524;-0.3046875;0.837890625;0.18408203125;-6.25;-4.375;7.25
0.0;0.64947509765625;-0.03961181640625;-0.3104248046875;0.69293212890625;11.038720213868034;13.029842709644717;7.4538137661664745;-0.294921875;0.8505859375;0.16943359375;-1.375;-3.625;3.9375
0.0;0.6500244140625;-0.039306640625;-0.30999755859375;0.692626953125;11.040137793447057;13.034068022742206;7.457700191859398;-0.3291015625;0.86474609375;0.14990234375;2.375;0.3125;0.8125
0.0;0.65020751953125;-0.0389404296875;-0.30950927734375;0.69268798828125;11.040040382079665;13.035390783593275;7.46161289668058;-0.357421875;0.8662109375;0.1494140625;3.25;3.625;1.9375
0.0;0.65008544921875;-0.0390625;-0.3089599609375;0.69305419921875;11.033965055566213;13.03460264170534;7.463686332459517;-0.37109375;0.8642578125;0.13720703125;-0.25;2.875;3.5625
0.0;0.6495361328125;-0.038818359375;-0.30889892578125;0.693603515625;11.033232556170146;13.030109219148391;7.464126113246854;-0.333984375;0.8896484375;0.1376953125;-2.0;1.1875;3.3125
0.0;0.64874267578125;-0.0384521484375;-0.30908203125;0.69427490234375;11.034506357922332;13.02354771683229;7.463492694021795;-0.33154296875;0.873046875;0.1455078125;-4.8125;0.3125;0.6875
0.0;0.6483154296875;-0.03778076171875;-0.3095703125;0.69451904296875;11.042271847458684;13.019458206380868;7.462959806679385;-0.3203125;0.86083984375;0.1572265625;-5.4375;0.0;-0.75
0.0;0.64788818359375;-0.03680419921875;-0.31024169921875;0.69464111328125;11.054305218237284;13.015294920102598;7.462582950306202;-0.3330078125;0.86328125;0.15771484375;-3.375;0.25;-3.875
0.0;0.6474609375;-0.035888671875;-0.3109130859375;0.69482421875;11.065599109061948;13.010945463201004;7.462014563840555;-0.35009765625;0.8701171875;0.15283203125;-3.6875;0.625;-4.75
0.0;0.64715576171875;-0.03546142578125;-0.31134033203125;0.6949462890625;11.07138559402227;13.008085465107165;7.461043093690382;-0.35498046875;0.86962890625;0.15380859375;-3.75;0.3125;-4.0625
0.0;0.6463623046875;-0.0352783203125;-0.31195068359375;0.6954345703125;11.074497230771644;13.001466881632217;7.457658852301546;-0.34814453125;0.87890625;0.14794921875;-2.875;-0.9375;-2.5
0.0;0.64605712890625;-0.03521728515625;-0.31231689453125;0.695556640625;11.07669813403718;12.99891339493778;7.455677243210902;-0.33154296875;0.865234375;0.1708984375;-4.25;-2.3125;-1.875
0.0;0.64605712890625;-0.03533935546875;-0.31207275390625;0.6956787109375;11.073615482214219;12.999002447821024;7.456448346756897;-0.34130859375;0.85107421875;0.1748046875;-0.5625;-1.0625;-0.75
0.0;0.64581298828125;-0.03558349609375;-0.31170654296875;0.69598388671875;11.067791319075036;12.997607994979196;7.457007551475208;-0.34619140625;0.876953125;0.16552734375;0.625;0.4375;2.25
0.0;0.64569091796875;-0.03594970703125;-0.3116455078125;0.69610595703125;11.063666249905417;12.996927166141603;7.455848720506776;-0.3369140625;0.873046875;0.1572265625;-1.25;0.0;3.0
0.0;0.64617919921875;-0.0364990234375;-0.3114013671875;0.69580078125;11.058850511196919;13.001012204585626;7.455783926559885;-0.333984375;0.853515625;0.171875;0.875;-1.125;2.375
0.0;0.646240234375;-0.037109375;-0.3111572265625;0.69573974609375;11.05222512406449;13.002294237883977;7.454851412951053;-0.34033203125;0.87109375;0.14990234375;3.9375;-0.4375;2.875
0.0;0.64617919921875;-0.0374755859375;-0.311279296875;0.69573974609375;11.049787987939773;13.001990398157302;7.45288919984155;-0.32568359375;0.876953125;0.15478515625;1.625;-1.5;2.6875
0.0;0.64630126953125;-0.0377197265625;-0.311279296875;0.69561767578125;11.048217637943608;13.003119369948058;7.452188892950378;-0.32568359375;0.865234375;0.15966796875;0.8125;-1.875;0.5
0.0;0.64642333984375;-0.0379638671875;-0.311279296875;0.695556640625;11.04643791965474;13.00403423365628;7.4515223029874305;-0.33740234375;0.8759765625;0.15185546875;1.375;-0.875;0.8125
0.0;0.64617919921875;-0.03826904296875;-0.31103515625;0.69580078125;11.04109224806169;13.002666107248757;7.451269572646774;-0.3466796875;0.87646484375;0.1494140625;0.875;-1.0;1.9375
0.0;0.6461181640625;-0.03857421875;-0.31060791015625;0.696044921875;11.0347341991086;13.002480422838104;7.452200124134656;-0.34033203125;0.8828125;0.15380859375;-1.4375;-0.9375;2.875
0.0;0.6455078125;-0.0386962890625;-0.31060791015625;0.69659423828125;11.031148579985135;12.997800516506143;7.450965074910204;-0.32421875;0.88525390625;0.13818359375;-1.625;0.125;2.75
0.0;0.64532470703125;-0.03857421875;-0.31085205078125;0.69671630859375;11.033199196771601;12.996010613816724;7.449997144351518;-0.3095703125;0.87158203125;0.162109375;-3.75;-1.1875;0.3125
0.0;0.64532470703125;-0.03839111328125;-0.3109130859375;0.69671630859375;11.035189023261573;12.99579567944122;7.45035580977653;-0.3212890625;0.85498046875;0.16357421875;-0.8125;-0.25;-1.3125
0.0;0.64520263671875;-0.03778076171875;-0.31109619140625;0.69671630859375;11.041559902639111;12.994551991982213;7.451421645010525;-0.32470703125;0.8623046875;0.1552734375;-0.3125;0.375;-1.0625
0.0;0.64520263671875;-0.0372314453125;-0.31085205078125;0.69683837890625;11.044307337382332;12.994264314161274;7.454544409471056;-0.3369140625;0.8642578125;0.16455078125;-0.875;1.6875;-1.9375
0.0;0.64544677734375;-0.03631591796875;-0.310546875;0.69683837890625;11.050506045569925;12.995446536822193;7.4596133184806925;-0.32958984375;0.87548828125;0.16552734375;-0.8125;3.375;-1.0625
0.0;0.64532470703125;-0.0357666015625;-0.3104248046875;0.697021484375;11.053720074546506;12.994160142275398;7.4619817785167974;-0.337890625;0.8828125;0.1572265625;-0.75;5.0625;-2.25
0.0;0.64508056640625;-0.03564453125;-0.3106689453125;0.6971435546875;11.05571224225047;12.992085824984809;7.460897132785313;-0.33740234375;0.86181640625;0.15380859375;-1.8125;2.3125;-0.6875
0.0;0.6451416015625;-0.0360107421875;-0.3106689453125;0.69708251953125;11.052804071439178;12.992784417792826;7.45969246761306;-0.34228515625;0.85693359375;0.16650390625;-1.125;-0.5625;0.0
0.0;0.64532470703125;-0.03594970703125;-0.31085205078125;0.69683837890625;11.055562803641672;12.994119522303022;7.459258392836968;-0.33251953125;0.86328125;0.162109375;1.5;-1.25;1.4375
0.0;0.6456298828125;-0.03619384765625;-0.3104248046875;0.69671630859375;11.05137168838134;12.99687937409424;7.460875087673855;-0.353515625;0.8681640625;0.1650390625;2.25;-0.5;-0.0625
0.0;0.64581298828125;-0.03662109375;-0.309814453125;0.69683837890625;11.043422927093983;12.998650639628382;7.4626057747461525;-0.34912109375;0.87646484375;0.1474609375;1.75;0.875;3.3125
0.0;0.6463623046875;-0.0369873046875;-0.30902099609375;0.6966552734375;11.03621625039453;13.00348391364319;7.465893520076836;-0.328125;0.873046875;0.1630859375;1.4375;1.125;3.9375
0.0;0.64666748046875;-0.03717041015625;-0.3084716796875;0.69659423828125;11.031530263355377;13.006209320031251;7.468311953756779;-0.31298828125;0.87255859375;0.140625;3.0;2.3125;3.0625
0.0;0.6463623046875;-0.03704833984375;-0.3082275390625;0.69696044921875;11.029418048926527;13.003888188634257;7.469515568173478;-0.3271484375;0.87646484375;0.13671875;0.75;1.375;2.875
0.0;0.6456298828125;-0.0367431640625;-0.308349609375;0.6976318359375;11.029829417762816;12.997754036196978;7.469060823351124;-0.33837890625;0.86083984375;0.15478515625;-2.5;0.9375;1.875
0.0;0.64532470703125;-0.03631591796875;-0.3087158203125;0.69775390625;11.035217112263927;12.995013002092186;7.468376828867257;-0.3271484375;0.8486328125;0.177734375;-4.1875;-0.0625;0.3125
0.0;0.6458740234375;-0.03582763671875;-0.3087158203125;0.697265625;11.041684657155937;12.999002969041339;7.470822699700368;-0.3232421875;0.87158203125;0.18896484375;-0.3125;0.875;-3.1875
0.0;0.6461181640625;-0.03509521484375;-0.30914306640625;0.6968994140625;11.052351426708533;13.000244114419463;7.471662665596531;-0.31884765625;0.87646484375;0.1484375;2.625;2.75;-3.8125
0.0;0.64654541015625;-0.03387451171875;-0.3099365234375;0.6961669921875;11.071101864745522;13.002692649472007;7.472664266972641;-0.310546875;0.869140625;0.1552734375;1.0625;1.9375;-6.0625
0.0;0.646728515625;-0.03277587890625;-0.31005859375;0.696044921875;11.082037507417132;13.00316617428496;7.47623412327358;-0.353515625;0.873046875;0.14453125;1.625;2.125;-8.125
0.0;0.6473388671875;-0.03228759765625;-0.30975341796875;0.69561767578125;11.086328313310299;13.007808750807346;7.480268046729209;-0.3662109375;0.85693359375;0.16259765625;0.125;4.125;-2.5
0.0;0.6475830078125;-0.03192138671875;-0.30987548828125;0.69537353515625;11.091383150396139;13.009388096444567;7.481314816036306;-0.3388671875;0.861328125;0.14794921875;2.9375;4.125;-1.25
0.0;0.64739990234375;-0.0318603515625;-0.31036376953125;0.6953125;11.095160682995761;13.007822648480227;7.478894611638704;-0.34423828125;0.8720703125;0.14013671875;0.5625;0.875;-1.875
0.0;0.6470947265625;-0.03192138671875;-0.310791015625;0.69537353515625;11.0969362398954;13.005434217954566;7.476164381592348;-0.34423828125;0.87109375;0.15478515625;-0.4375;-1.9375;-1.75
0.0;0.64739990234375;-0.0321044921875;-0.31103515625;0.69500732421875;11.098513257144061;13.007786133353394;7.4747582804035035;-0.34033203125;0.86767578125;0.16162109375;-0.9375;-2.3125;-1.375
0.0;0.64697265625;-0.0318603515625;-0.31158447265625;0.6951904296875;11.103194516070117;13.004013708217222;7.472371674353276;-0.34033203125;0.87646484375;0.15380859375;3.0;-0.8125;-1.25
0.0;0.64715576171875;-0.03167724609375;-0.31243896484375;0.69464111328125;11.112474537980928;13.005118755790926;7.469096894073315;-0.333984375;0.853515625;0.16357421875;-2.125;-1.8125;-2.625
0.0;0.6475830078125;-0.03173828125;-0.31280517578125;0.69403076171875;11.116882274822446;13.008605483990095;7.467655658425574;-0.3525390625;0.86669921875;0.15966796875;2.75;-1.9375;-4.25
0.0;0.6480712890625;-0.03179931640625;-0.3131103515625;0.6934814453125;11.120739261886891;13.012274523793145;7.466645887070779;-0.3544921875;0.87548828125;0.1474609375;3.9375;-1.3125;-1.75
0.0;0.64813232421875;-0.0316162109375;-0.3133544921875;0.693359375;11.124414030223067;13.012438526323779;7.466207229548552;-0.3447265625;0.8701171875;0.1240234375;2.125;-1.1875;-1.875
0.0;0.64788818359375;-0.03155517578125;-0.313232421875;0.693603515625;11.123056191556554;13.010638912765835;7.466661069756182;-0.35888671875;0.87646484375;0.13818359375;-0.4375;-0.5;-1.1875
0.0;0.6474609375;-0.03179931640625;-0.3131103515625;0.69403076171875;11.118239054224032;13.00750166720728;7.465794611252023;-0.35400390625;0.86376953125;0.14990234375;-1.8125;0.0;1.5
0.0;0.64739990234375;-0.03192138671875;-0.313232421875;0.69403076171875;11.117922666965775;13.007054259716366;7.464683521958124;-0.32763671875;0.85205078125;0.16943359375;-1.5625;-0.5;1.75
0.0;0.64764404296875;-0.0325927734375;-0.31329345703125;0.69378662109375;11.113589558888286;13.009286864086604;7.46236264050996;-0.3427734375;0.8544921875;0.17236328125;1.375;-0.6875;0.625
0.0;0.64788818359375;-0.03289794921875;-0.31378173828125;0.69329833984375;11.11608942037977;13.011391186756162;7.45921748509714;-0.33203125;0.87890625;0.1513671875;3.0625;-2.3125;0.6875
0.0;0.64837646484375;-0.0330810546875;-0.3138427734375;0.69281005859375;11.117082539408004;13.015362159830575;7.458943248171334;-0.3525390625;0.8564453125;0.15478515625;3.9375;-2.4375;-0.75
0.0;0.64825439453125;-0.03375244140625;-0.31365966796875;0.69293212890625;11.109519062462262;13.015060496709104;7.457263449952379;-0.3681640625;0.87060546875;0.1357421875;3.0625;-0.875;1.125
0.0;0.648193359375;-0.03448486328125;-0.3135986328125;0.6929931640625;11.102501906955826;13.015064789087642;7.454884627298654;-0.34375;0.8740234375;0.146484375;0.25;-2.375;3.6875
0.0;0.6480712890625;-0.03509521484375;-0.31378173828125;0.6929931640625;11.098298412846137;13.014484251885209;7.451658403799703;-0.3271484375;0.8720703125;0.14990234375;0.625;-2.8125;2.0625
0.0;0.6484375;-0.0352783203125;-0.31365966796875;0.6927490234375;11.0971257417523;13.017367551691942;7.452130087931816;-0.33837890625;0.8583984375;0.15380859375;1.1875;-3.1875;1.9375
0.0;0.6483154296875;-0.03558349609375;-0.3135986328125;0.69281005859375;11.093747736535477;13.0168642212523;7.451143509091326;-0.341796875;0.8720703125;0.14306640625;2.4375;0.25;0.8125
0.0;0.648193359375;-0.03546142578125;-0.3138427734375;0.69287109375;11.096075722896556;13.015563419977754;7.450247498698398;-0.3310546875;0.87255859375;0.140625;-1.0;-1.1875;0.8125
0.0;0.64825439453125;-0.03546142578125;-0.3138427734375;0.69281005859375;11.09634930639487;13.016061301932469;7.450328262561108;-0.33349609375;0.85595703125;0.15185546875;-0.5;-0.625;-1.375
0.0;0.647705078125;-0.03509521484375;-0.31414794921875;0.69317626953125;11.09970021407792;13.011458982212611;7.449376148576778;-0.34375;0.87353515625;0.13134765625;-0.6875;0.25;-0.75
0.0;0.64715576171875;-0.03472900390625;-0.31451416015625;0.69354248046875;11.103448780794277;13.006740993059182;7.448137480476622;-0.3515625;0.8681640625;0.15673828125;-3.5;-0.8125;-0.9375
