0.0;-0.07977294921875;-0.4132080078125;-0.9014892578125;-0.10150146484375;8.656356906695251;11.484262666376852;17.27802799186316;0.22119140625;0.818359375;0.46484375;18.5625;4.5;-14.1875
0.0;-0.0841064453125;-0.41632080078125;-0.8994140625;-0.10357666015625;8.627049386752795;11.508214931325057;17.25577009540725;0.14208984375;0.92041015625;0.5029296875;26.8125;-6.625;-12.6875
0.0;-0.08868408203125;-0.41937255859375;-0.8975830078125;-0.103515625;8.584978790701683;11.531867236207958;17.243924981629675;0.234375;0.912109375;0.56201171875;11.875;-18.5625;-11.625
0.0;-0.09405517578125;-0.4229736328125;-0.89569091796875;-0.1005859375;8.521670764478998;11.559549049441964;17.24463727395674;0.23681640625;0.86279296875;0.60302734375;17.0625;-15.0;0.1875
0.0;-0.098876953125;-0.4268798828125;-0.893798828125;-0.09576416015625;8.45493792750781;11.58853166101562;17.256125686123394;0.2314453125;0.8671875;0.61083984375;23.1875;-12.6875;17.5625
0.0;-0.1014404296875;-0.42864990234375;-0.89312744140625;-0.09149169921875;8.41021848612185;11.601586028117469;17.271078281673425;0.2490234375;0.9287109375;0.6015625;22.4375;-5.0625;25.5
0.0;-0.101806640625;-0.42694091796875;-0.894287109375;-0.0877685546875;8.384984265537286;11.590361157977753;17.290022292531734;0.1650390625;0.90087890625;0.60009765625;8.6875;0.625;24.1875
0.0;-0.09991455078125;-0.42510986328125;-0.89581298828125;-0.08331298828125;8.379063636704165;11.575803155748618;17.3187441483679;0.1083984375;0.79296875;0.61279296875;-9.5625;7.125;21.625
0.0;-0.09478759765625;-0.4263916015625;-0.896240234375;-0.0780029296875;8.40666008893276;11.577651571346587;17.359224035578645;0.0869140625;0.70654296875;0.57568359375;-10.8125;19.8125;20.8125
0.0;-0.085205078125;-0.42724609375;-0.89703369140625;-0.07489013671875;8.490175642244095;11.57360624367261;17.39982385511992;0.080078125;0.7529296875;0.5068359375;1.0;40.0625;15.25
0.0;-0.0753173828125;-0.42449951171875;-0.899169921875;-0.07537841796875;8.590297295602026;11.54790970169803;17.423154011790718;-0.05224609375;0.8173828125;0.4833984375;-9.0625;52.0625;0.5
0.0;-0.06646728515625;-0.4161376953125;-0.903564453125;-0.0782470703125;8.684805047057159;11.48852931284783;17.43194389777909;-0.12255859375;0.82861328125;0.5634765625;-30.0625;41.375;-13.625
0.0;-0.05413818359375;-0.41259765625;-0.90594482421875;-0.07843017578125;8.808766401572036;11.4576255436278;17.46147601370248;0.0595703125;0.6044921875;0.5810546875;-54.875;37.4375;-31.625
0.0;-0.0418701171875;-0.41387939453125;-0.90570068359375;-0.0821533203125;8.955081183688897;11.457982800237946;17.471432785684247;-0.0673828125;0.5966796875;0.60498046875;-24.8125;57.875;-23.1875
0.0;-0.03143310546875;-0.41766357421875;-0.9036865234375;-0.0894775390625;9.102737523493854;11.4756597704094;17.458224148182165;-0.15087890625;0.6484375;0.55908203125;0.375;48.1875;-40.375
0.0;-0.01849365234375;-0.416259765625;-0.9036865234375;-0.09906005859375;9.281095585204445;11.459379575354491;17.438773940375604;-0.09130859375;0.7861328125;0.49072265625;8.125;34.5625;-60.875
0.0;-0.00634765625;-0.41448974609375;-0.9031982421875;-0.11163330078125;9.465004722921808;11.440691345131071;17.40095781669625;-0.07373046875;0.650390625;0.5498046875;-16.5625;42.0;-78.625
0.0;6.7138671875E-4;-0.4134521484375;-0.90185546875;-0.1259765625;9.604819949420676;11.427938919383903;17.341317040561798;-0.244140625;0.60107421875;0.65380859375;-9.3125;24.0625;-84.875
0.0;0.00604248046875;-0.4134521484375;-0.90008544921875;-0.1378173828125;9.717056187203667;11.422503784896259;17.290956974014318;-0.07763671875;0.64013671875;0.66455078125;-2.25;3.0;-92.25
0.0;0.00921630859375;-0.41815185546875;-0.89654541015625;-0.14605712890625;9.797061230710684;11.44835564370463;17.256432178365756;0.01220703125;0.66064453125;0.6181640625;2.125;5.5;-81.625
0.0;0.00750732421875;-0.42401123046875;-0.8927001953125;-0.15277099609375;9.821819876975923;11.4842317421495;17.21937611300863;-0.01318359375;0.74072265625;0.60888671875;28.625;5.9375;-59.1875
0.0;0.00201416015625;-0.42730712890625;-0.8897705078125;-0.16082763671875;9.810620016085494;11.505662714117143;17.16516515459592;-0.013671875;0.8310546875;0.578125;34.125;-14.3125;-40.875
0.0;-0.00537109375;-0.4290771484375;-0.8876953125;-0.1671142578125;9.769300319587014;11.51975466529269;17.11504325983152;-0.05517578125;0.79443359375;0.5830078125;24.9375;-41.375;-35.375
0.0;-0.013671875;-0.43109130859375;-0.88592529296875;-0.17095947265625;9.707447045859492;11.537120066486617;17.07568073781951;-0.02001953125;0.80517578125;0.6279296875;19.1875;-46.25;-22.625
0.0;-0.0235595703125;-0.432373046875;-0.8848876953125;-0.17193603515625;9.614103974797166;11.552514484124362;17.047158861740698;-0.08837890625;0.7744140625;0.62646484375;22.0625;-48.5625;-2.8125
0.0;-0.0335693359375;-0.43402099609375;-0.8839111328125;-0.17132568359375;9.51267687480003;11.571207622000683;17.02655332017402;-0.091796875;0.7626953125;0.6416015625;19.8125;-50.625;17.9375
0.0;-0.0404052734375;-0.435546875;-0.88287353515625;-0.1710205078125;9.445210535107755;11.587042920580426;17.01169793579548;-0.0498046875;0.66845703125;0.6181640625;25.3125;-46.0;25.0625
0.0;-0.04254150390625;-0.43487548828125;-0.883056640625;-0.17138671875;9.423940492757946;11.584642098908843;17.004357039098615;-0.1064453125;0.74267578125;0.6806640625;22.3125;-33.3125;18.9375
0.0;-0.04107666015625;-0.430419921875;-0.88507080078125;-0.17242431640625;9.434236396502087;11.555172674717078;17.001444090613056;-0.2080078125;0.79443359375;0.654296875;-0.6875;-18.125;11.1875
0.0;-0.0380859375;-0.4271240234375;-0.88690185546875;-0.17218017578125;9.456083514770324;11.531654924591509;17.00926484320893;-0.25634765625;0.6865234375;0.740234375;-18.875;-6.4375;4.5625
0.0;-0.03228759765625;-0.4229736328125;-0.88909912109375;-0.1722412109375;9.506484938417488;11.500508023376236;17.021791840341873;-0.18701171875;0.64208984375;0.6611328125;-16.75;8.375;2.9375
0.0;-0.02410888671875;-0.4232177734375;-0.88909912109375;-0.17303466796875;9.594527762361995;11.495001514889918;17.03708605865621;-0.1806640625;0.6044921875;0.6552734375;-24.3125;21.5;-5.625
0.0;-0.0145263671875;-0.42303466796875;-0.888427734375;-0.177734375;9.715514730377048;11.485261733002865;17.034579269455556;-0.248046875;0.73193359375;0.5576171875;-10.25;32.6875;-15.9375
0.0;-0.00732421875;-0.4176025390625;-0.88946533203125;-0.18572998046875;9.816825936494837;11.44333267900981;17.006349995616063;-0.3369140625;0.8212890625;0.51708984375;-19.3125;26.8125;-36.875
0.0;-7.9345703125E-4;-0.413818359375;-0.88995361328125;-0.19183349609375;9.90528894534744;11.41272475494359;16.98664950658597;-0.2666015625;0.74267578125;0.61279296875;-40.0;5.8125;-50.25
0.0;0.005615234375;-0.40899658203125;-0.89080810546875;-0.19818115234375;9.990956659540384;11.375349451738174;16.96423857975408;-0.17041015625;0.6279296875;0.517578125;-30.0;12.5;-44.1875
0.0;0.0106201171875;-0.40667724609375;-0.889892578125;-0.20660400390625;10.077346665689696;11.353765377408337;16.92813951046054;-0.17333984375;0.4990234375;0.625;-25.25;11.5625;-43.875
0.0;0.01708984375;-0.40924072265625;-0.886474609375;-0.21551513671875;10.192806127052817;11.36116764952998;16.89503476359987;-0.11474609375;0.53466796875;0.60888671875;-9.4375;5.8125;-56.875
0.0;0.02398681640625;-0.41265869140625;-0.883056640625;-0.22222900390625;10.304783572538982;11.374442081449844;16.875421193926723;-0.20947265625;0.6220703125;0.56005859375;13.0625;13.5625;-63.0
0.0;0.028564453125;-0.41497802734375;-0.8804931640625;-0.22760009765625;10.383800184332443;11.38297373623564;16.857470545246965;-0.1865234375;0.67529296875;0.54541015625;13.9375;24.125;-55.375
0.0;0.02886962890625;-0.41522216796875;-0.87823486328125;-0.23565673828125;10.426401271512676;11.379897744085165;16.813822719002257;-0.1611328125;0.73681640625;0.63427734375;10.625;16.8125;-45.5625
0.0;0.02752685546875;-0.41363525390625;-0.87713623046875;-0.24273681640625;10.442210192427874;11.366787309860799;16.77053696032514;-0.1748046875;0.7275390625;0.68701171875;8.75;-13.125;-48.0625
0.0;0.02630615234375;-0.415283203125;-0.87591552734375;-0.244384765625;10.442046268017622;11.377300133548879;16.760024136637057;-0.09521484375;0.6865234375;0.7099609375;1.5;-17.4375;-41.3125
0.0;0.0240478515625;-0.4200439453125;-0.874267578125;-0.242431640625;10.422201972528041;11.41034719365925;16.76960211603927;-0.08642578125;0.6796875;0.669921875;15.5625;0.125;-14.625
0.0;0.0189208984375;-0.421142578125;-0.8741455078125;-0.2412109375;10.36647296991507;11.42220832154704;16.765915576059765;-0.228515625;0.78125;0.705078125;30.9375;2.0625;11.9375
0.0;0.01177978515625;-0.42071533203125;-0.87518310546875;-0.2386474609375;10.279220124475565;11.426726382096414;16.76403767388086;-0.28173828125;0.73291015625;0.68798828125;14.5625;-22.5;20.3125
0.0;0.0069580078125;-0.42169189453125;-0.87615966796875;-0.23370361328125;10.207922540371404;11.43921601860028;16.78116327035994;-0.1806640625;0.69921875;0.62744140625;5.3125;-28.8125;29.8125
0.0;0.00469970703125;-0.4222412109375;-0.87738037109375;-0.22784423828125;10.15751762413468;11.447398852340212;16.808409241711516;-0.2041015625;0.73046875;0.68603515625;11.3125;-10.125;37.75
0.0;0.00433349609375;-0.41876220703125;-0.88037109375;-0.22271728515625;10.119531767467326;11.427959285145823;16.83345662850467;-0.26318359375;0.7490234375;0.6474609375;2.3125;0.75;39.4375
0.0;0.00445556640625;-0.4176025390625;-0.88238525390625;-0.21685791015625;10.089301837535583;11.42301017752212;16.864955048606614;-0.27099609375;0.59716796875;0.66796875;-17.0;2.5625;36.4375
0.0;0.00714111328125;-0.41650390625;-0.88409423828125;-0.21197509765625;10.090540799295628;11.415942401087468;16.896879934448652;-0.2587890625;0.61474609375;0.6728515625;-4.4375;10.5;37.125
0.0;0.01104736328125;-0.4139404296875;-0.88616943359375;-0.208251953125;10.106729364356468;11.3983416765491;16.9243292966196;-0.28564453125;0.67236328125;0.66259765625;-9.9375;19.4375;26.125
0.0;0.0164794921875;-0.41015625;-0.8885498046875;-0.2052001953125;10.139599229817023;11.371936067610894;16.950640657310224;-0.27734375;0.705078125;0.59814453125;-24.75;20.625;16.625
0.0;0.02069091796875;-0.40936279296875;-0.88897705078125;-0.2044677734375;10.178100114619506;11.364422617420106;16.963332826248518;-0.2646484375;0.55908203125;0.60009765625;-26.9375;26.3125;10.625
0.0;0.023681640625;-0.40972900390625;-0.88836669921875;-0.20623779296875;10.218352256748114;11.363827172029703;16.960450238115886;-0.36865234375;0.66845703125;0.61865234375;-10.3125;13.8125;3.3125
0.0;0.0260009765625;-0.40478515625;-0.89013671875;-0.2078857421875;10.239020283078105;11.33044437724753;16.953165269518077;-0.3193359375;0.78759765625;0.56005859375;-8.375;4.8125;-12.0625
0.0;0.0279541015625;-0.3994140625;-0.891845703125;-0.210693359375;10.260033106927184;11.293970407139312;16.938320518915976;-0.26416015625;0.630859375;0.4892578125;-37.0625;-3.125;-8.75
0.0;0.02886962890625;-0.39556884765625;-0.8924560546875;-0.21514892578125;10.281040235608407;11.266980462427881;16.913066059070157;-0.2353515625;0.54248046875;0.57763671875;-30.875;-5.5625;-14.5625
0.0;0.02935791015625;-0.39031982421875;-0.8934326171875;-0.22052001953125;10.29788457873763;11.231003635714703;16.88075271965311;-0.1884765625;0.591796875;0.62451171875;-19.75;-9.6875;-24.9375
0.0;0.02862548828125;-0.3907470703125;-0.8922119140625;-0.22467041015625;10.31001419419954;11.232071189981395;16.85649653486418;-0.1396484375;0.51806640625;0.69140625;-20.625;-12.25;-29.8125
0.0;0.02703857421875;-0.396728515625;-0.88934326171875;-0.22601318359375;10.314366565741835;11.269852410615588;16.849983945689726;-0.095703125;0.50439453125;0.65185546875;13.4375;-6.8125;-24.4375
0.0;0.0225830078125;-0.40234375;-0.88665771484375;-0.22711181640625;10.28718625898913;11.307915327221004;16.838479974348253;-0.11572265625;0.64404296875;0.5927734375;36.875;1.1875;-10.6875
0.0;0.01544189453125;-0.40545654296875;-0.88482666015625;-0.2291259765625;10.230509760945312;11.332231320601455;16.81430177141237;-0.150390625;0.677734375;0.6357421875;40.1875;-14.8125;-1.125
0.0;0.00738525390625;-0.4075927734375;-0.8841552734375;-0.22845458984375;10.149431419504316;11.352626318533316;16.802125074735592;-0.1513671875;0.708984375;0.65185546875;28.625;-33.875;1.125
0.0;4.8828125E-4;-0.40997314453125;-0.8839111328125;-0.22509765625;10.068577429257074;11.375061913942979;16.806919348111208;-0.07275390625;0.7451171875;0.66796875;21.6875;-30.5625;14.625
0.0;-0.005859375;-0.41217041015625;-0.88421630859375;-0.21990966796875;9.984006511823992;11.396415711577948;16.82247463598873;-0.10400390625;0.72412109375;0.68310546875;22.3125;-19.875;28.4375
0.0;-0.01141357421875;-0.41339111328125;-0.885009765625;-0.21417236328125;9.902413770724634;11.411094394375269;16.84186898827148;-0.134765625;0.7529296875;0.7109375;20.25;-14.75;39.6875
0.0;-0.01568603515625;-0.41522216796875;-0.88592529296875;-0.20635986328125;9.825402868008778;11.428984077319358;16.8752923245268;-0.14990234375;0.74609375;0.67431640625;11.875;-12.5625;42.625
0.0;-0.0177001953125;-0.4168701171875;-0.88726806640625;-0.1968994140625;9.762789704182737;11.443881870757846;16.92231204880813;-0.1279296875;0.74755859375;0.6220703125;10.6875;-0.6875;49.75
0.0;-0.01806640625;-0.417236328125;-0.8892822265625;-0.1866455078125;9.710045795316663;11.449340743686978;16.97657051792967;-0.162109375;0.7919921875;0.6416015625;5.8125;12.9375;55.375
0.0;-0.01654052734375;-0.41583251953125;-0.891845703125;-0.17742919921875;9.677965458994693;11.441699213906427;17.028847548298838;-0.15185546875;0.75732421875;0.60107421875;-4.875;21.5;56.6875
0.0;-0.01434326171875;-0.41424560546875;-0.8941650390625;-0.16943359375;9.658740083273074;11.432079515198911;17.076025402688494;-0.1904296875;0.63671875;0.63427734375;-9.625;24.875;50.875
0.0;-0.0118408203125;-0.4132080078125;-0.8958740234375;-0.16314697265625;9.652296699321209;11.425240510491411;17.114963137829207;-0.181640625;0.5791015625;0.62255859375;-9.125;25.625;42.8125
0.0;-0.01031494140625;-0.4112548828125;-0.8974609375;-0.15924072265625;9.645709031248897;11.41296797148934;17.13858873539765;-0.24658203125;0.6845703125;0.68701171875;-7.1875;20.9375;35.375
0.0;-0.00762939453125;-0.4111328125;-0.8984375;-0.15423583984375;9.64944043854825;11.41158303760978;17.17137836597827;-0.17626953125;0.67822265625;0.6083984375;-14.6875;12.1875;21.875
0.0;-0.0054931640625;-0.40673828125;-0.90087890625;-0.1519775390625;9.652958249753736;11.383170680159987;17.186776845836874;-0.1953125;0.7451171875;0.56640625;-10.25;20.875;24.375
0.0;-0.0045166015625;-0.40289306640625;-0.9031982421875;-0.14837646484375;9.639527074572936;11.35944521272359;17.20686556567871;-0.27490234375;0.73193359375;0.6181640625;-32.625;4.25;17.375
0.0;-0.00103759765625;-0.3955078125;-0.90679931640625;-0.14599609375;9.65228989019646;11.312033017231135;17.22475048121296;-0.08935546875;0.76123046875;0.51318359375;-35.875;9.9375;17.0625
0.0;0.00115966796875;-0.38702392578125;-0.9102783203125;-0.1474609375;9.667496490783716;11.257533984041798;17.218715561259035;-0.08740234375;0.611328125;0.58984375;-49.25;17.875;7.0625
0.0;0.00189208984375;-0.38531494140625;-0.91070556640625;-0.14892578125;9.678874025905753;11.246248601286126;17.21174968935027;-0.06494140625;0.3974609375;0.724609375;-37.5625;3.875;-9.6875
0.0;0.00286865234375;-0.39501953125;-0.90692138671875;-0.146728515625;9.695641814500396;11.306475193944411;17.229243752175094;-0.05517578125;0.3505859375;0.74072265625;8.5625;2.25;-9.25
0.0;0.0040283203125;-0.40802001953125;-0.90191650390625;-0.14190673828125;9.706857730369116;11.3883599468483;17.262500528873765;-0.0400390625;0.619140625;0.6044921875;58.75;21.5;2.9375
0.0;6.7138671875E-4;-0.4166259765625;-0.89849853515625;-0.1385498046875;9.669850501212286;11.445067594486257;17.275818963185884;-0.04931640625;0.8095703125;0.556640625;68.375;30.5625;14.125
0.0;-0.00677490234375;-0.4237060546875;-0.89556884765625;-0.1358642578125;9.59114013159967;11.494310033625688;17.274924484904354;-0.091796875;0.76220703125;0.60498046875;51.75;-1.875;21.125
0.0;-0.0135498046875;-0.43182373046875;-0.8927001953125;-0.12860107421875;9.498326974672553;11.550785378223443;17.299189877078433;0.06640625;0.81884765625;0.6298828125;46.1875;-18.6875;19.9375
0.0;-0.0174560546875;-0.43560791015625;-0.8919677734375;-0.119873046875;9.420310543902922;11.578466918179274;17.33613711445695;0.12548828125;0.958984375;0.578125;43.4375;-1.875;38.3125
0.0;-0.022705078125;-0.43896484375;-0.89111328125;-0.113037109375;9.336916652284664;11.60357884734968;17.35937893567128;-0.0234375;0.85400390625;0.65087890625;23.0;6.75;50.4375
0.0;-0.0272216796875;-0.4439697265625;-0.88970947265625;-0.1033935546875;9.248530171952146;11.638854688253877;17.398798408839347;-0.07275390625;0.76123046875;0.65576171875;27.0625;-7.9375;47.8125
0.0;-0.02813720703125;-0.44757080078125;-0.88922119140625;-0.09100341796875;9.18003677042715;11.663246649762517;17.460810441000163;0.05615234375;0.8427734375;0.58349609375;30.125;8.4375;53.3125
0.0;-0.0274658203125;-0.44818115234375;-0.8902587890625;-0.07659912109375;9.11320218846906;11.667608815910642;17.53666867988268;-0.01806640625;0.89306640625;0.58935546875;17.3125;29.25;63.5
0.0;-0.024658203125;-0.44781494140625;-0.8917236328125;-0.06103515625;9.061238034765639;11.664522520816403;17.623805680763;0.0048828125;0.84228515625;0.529296875;-3.0;41.625;70.8125
0.0;-0.02044677734375;-0.44744873046875;-0.89288330078125;-0.04681396484375;9.03082642567038;11.660885391010863;17.70759379123825;0.00830078125;0.76904296875;0.5078125;-8.125;55.0625;71.9375
0.0;-0.015869140625;-0.4481201171875;-0.893310546875;-0.0323486328125;9.003666541408894;11.663950348893703;17.7935303002887;-0.080078125;0.71484375;0.5205078125;-5.0;54.8125;66.3125
0.0;-0.0098876953125;-0.44964599609375;-0.89300537109375;-0.0185546875;8.994423010212241;11.672675153884295;17.879565000699074;-0.017578125;0.7158203125;0.4375;-2.6875;60.1875;63.4375
0.0;-0.003662109375;-0.451416015625;-0.892333984375;-0.00799560546875;9.003913083028007;11.683387153837476;17.949652246806803;-0.09521484375;0.708984375;0.46923828125;5.625;62.125;60.375
0.0;0.00323486328125;-0.45062255859375;-0.89276123046875;-0.00262451171875;9.0466417435221;11.678222264384004;17.994927601030767;-0.13671875;0.78857421875;0.4951171875;5.9375;53.5;45.4375
0.0;0.0069580078125;-0.44384765625;-0.8961181640625;-6.103515625E-5;9.07175688491174;11.635031964830725;0.01738138477179367;-0.1611328125;0.7744140625;0.52001953125;-8.3125;42.5;18.3125
0.0;0.012451171875;-0.43646240234375;-0.899658203125;0.003662109375;9.110048115206485;11.588479754765675;0.0500232755430713;-0.05712890625;0.7353515625;0.50244140625;-46.5625;23.625;6.1875
0.0;0.01934814453125;-0.42706298828125;-0.904052734375;0.0074462890625;9.16400216947202;11.529775621298416;0.0859508354021815;-0.0849609375;0.85791015625;0.4990234375;-56.9375;34.375;8.5625
0.0;0.0250244140625;-0.422119140625;-0.90618896484375;0.009033203125;9.216198758254102;11.499724186243212;0.10751842491115121;-0.0654296875;0.54931640625;0.58056640625;-52.75;43.3125;3.5625
0.0;0.0281982421875;-0.42138671875;-0.90643310546875;0.0068359375;9.2599665200667;11.495652170866254;0.10370952871762396;-0.06396484375;0.5009765625;0.64453125;-18.8125;31.75;-4.25
0.0;0.033203125;-0.4268798828125;-0.90374755859375;0.00439453125;9.322496521281;11.531275431635034;0.10414148303991187;-0.01025390625;0.53515625;0.61572265625;5.125;12.6875;-20.4375
0.0;0.0391845703125;-0.435791015625;-0.89923095703125;0.0032958984375;9.387581453565828;11.58950033084498;0.1151064567029353;0.04052734375;0.68115234375;0.5283203125;33.8125;24.125;-28.625
0.0;0.04034423828125;-0.4427490234375;-0.895751953125;-4.2724609375E-4;9.416639776178634;11.63386355801869;0.10043443301919075;-0.0302734375;0.84521484375;0.4951171875;48.1875;30.0625;-20.9375
0.0;0.03759765625;-0.44854736328125;-0.89300537109375;-0.006103515625;9.416435236787006;11.669374496891493;0.0655685942241674;-0.0390625;0.82421875;0.53662109375;40.1875;-1.5625;-22.375
0.0;0.0341796875;-0.455078125;-0.8897705078125;-0.00994873046875;9.400682029824043;11.71011942239138;0.038494725182868186;0.01123046875;0.83544921875;0.611328125;37.375;-24.125;-25.75
0.0;0.03155517578125;-0.4595947265625;-0.8875732421875;-0.011474609375;9.381602761065306;11.73838537415924;0.024792313569286;0.01708984375;0.92919921875;0.5380859375;35.25;-23.125;-15.375
0.0;0.02880859375;-0.46209716796875;-0.8863525390625;-0.009765625;9.344495996551968;11.754318243849456;0.02672680641236157;-0.03955078125;0.92626953125;0.6669921875;29.9375;-14.9375;-2.0625
0.0;0.02581787109375;-0.462158203125;-0.88641357421875;-0.006591796875;9.297280807540321;11.754569471269779;0.03493358388581375;-0.04931640625;0.9443359375;0.69775390625;18.125;-8.25;14.9375
0.0;0.0235595703125;-0.462158203125;-0.88653564453125;-0.00140380859375;9.24682846183468;11.754531025917764;0.05530408061299565;-0.0322265625;0.90478515625;0.65869140625;1.25;-5.625;22.75
0.0;0.02276611328125;-0.46026611328125;-0.88751220703125;0.00592041015625;9.200334349911039;11.742714392772154;0.0902060823881023;-4.8828125E-4;0.93408203125;0.6435546875;-1.3125;4.0625;29.4375
0.0;0.02508544921875;-0.45452880859375;-0.89031982421875;0.01324462890625;9.186964748481579;11.706706603139803;0.1330010973155074;0.029296875;0.912109375;0.54638671875;-18.875;17.8125;35.0625
0.0;0.02777099609375;-0.4508056640625;-0.89202880859375;0.0174560546875;9.193730468414746;11.683796853487884;0.16112165671031548;-0.0859375;0.75634765625;0.5927734375;-35.0;28.625;33.1875
0.0;0.0257568359375;-0.44873046875;-0.89312744140625;0.01959228515625;9.162871471960598;11.66998353764683;0.16662765809557345;-0.22509765625;0.78857421875;0.59716796875;-22.75;16.75;24.75
0.0;0.02703857421875;-0.44635009765625;-0.89422607421875;0.0233154296875;9.1578100023709;11.65519406511609;0.18878700264396553;-0.06494140625;0.7265625;0.54248046875;-13.9375;-6.4375;17.8125
0.0;0.03125;-0.44427490234375;-0.89501953125;0.02618408203125;9.187215856981974;11.643414522476021;0.21411288441046217;-0.00439453125;0.73828125;0.46923828125;-20.25;16.875;14.4375
0.0;0.03436279296875;-0.4384765625;-0.897705078125;0.02734375;9.21613475268845;11.607572063034835;0.22735644747397513;-0.146484375;0.73193359375;0.46533203125;-17.3125;23.9375;9.6875
0.0;0.03521728515625;-0.42987060546875;-0.90191650390625;0.02496337890625;9.241054959182277;11.552884914791871;0.21611335712482;-0.14306640625;0.67626953125;0.52734375;-36.375;14.5;3.0
0.0;0.03839111328125;-0.43011474609375;-0.90167236328125;0.0235595703125;9.280654029064353;11.55551529235386;0.21678143491585067;-0.0673828125;0.466796875;0.625;-40.625;-2.1875;-14.75
0.0;0.0439453125;-0.4342041015625;-0.8995361328125;0.02191162109375;9.344130357662374;11.58334821912394;0.22286087009877315;-0.07568359375;0.62548828125;0.53125;3.9375;11.25;-13.0625
0.0;0.0494384765625;-0.43359375;-0.89959716796875;0.01885986328125;9.41626868860065;11.581373043159893;0.22081333800583708;-0.09765625;0.859375;0.45751953125;15.125;22.3125;-19.3125
0.0;0.05181884765625;-0.431640625;-0.9005126953125;0.01409912109375;9.46544269361235;11.569169503705707;0.20170637887106846;-0.10888671875;0.8173828125;0.49267578125;-10.375;18.625;-27.6875
0.0;0.05181884765625;-0.43206787109375;-0.900390625;0.0076904296875;9.49713470309619;11.570805758244688;0.16866451300549293;-0.06982421875;0.75439453125;0.50830078125;-15.8125;0.1875;-31.5
0.0;0.05120849609375;-0.43707275390625;-0.89801025390625;0.0013427734375;9.520908826063899;11.601452491107743;0.13574788187168924;0.00830078125;0.751953125;0.49658203125;-1.375;-12.3125;-38.25
0.0;0.0465087890625;-0.44287109375;-0.8953857421875;-0.00555419921875;9.506019456930069;11.635740260191096;0.089881366824615;-0.07373046875;0.83447265625;0.51513671875;25.9375;-18.4375;-30.75
0.0;0.038818359375;-0.4508056640625;-0.8917236328125;-0.01177978515625;9.457982296926883;11.683469064750907;0.040207674860872344;-0.06787109375;0.85791015625;0.55126953125;32.8125;-40.1875;-23.5
0.0;0.02886962890625;-0.45733642578125;-0.88873291015625;-0.01617431640625;9.379015894404693;11.722784301997496;17.993273655963467;-0.02685546875;0.93505859375;0.498046875;41.0625;-52.375;-14.5
0.0;0.0186767578125;-0.46185302734375;-0.8865966796875;-0.01873779296875;9.289022768801399;11.750470944476337;17.954180753815297;0.0390625;0.94091796875;0.546875;35.75;-56.6875;-2.1875
0.0;0.00799560546875;-0.46783447265625;-0.88360595703125;-0.01983642578125;9.187318636723854;11.788653089698892;17.920961048546975;0.046875;0.83935546875;0.564453125;28.5625;-54.125;8.5
0.0;-0.00213623046875;-0.47149658203125;-0.88165283203125;-0.02105712890625;9.092185987469875;11.812827198522532;17.88782349101473;0.05517578125;0.86572265625;0.5693359375;38.1875;-52.6875;17.875
0.0;-0.01214599609375;-0.47418212890625;-0.880126953125;-0.02191162109375;8.996563519593789;11.831469036421458;17.85646026871524;-0.033203125;0.82275390625;0.6142578125;28.9375;-54.6875;22.0625
0.0;-0.02020263671875;-0.47442626953125;-0.8798828125;-0.02142333984375;8.912780041638534;11.834562641122474;17.836997406215644;0.00732421875;0.81103515625;0.57666015625;21.25;-52.3125;22.0
0.0;-0.02490234375;-0.47314453125;-0.88043212890625;-0.02044677734375;8.859614154774167;11.827453064611237;17.829206559958195;0.01025390625;0.8408203125;0.58837890625;5.0;-39.4375;24.5
0.0;-0.02667236328125;-0.46954345703125;-0.88232421875;-0.0203857421875;8.840005187272284;11.804485493040655;17.825026254816557;-0.0400390625;0.87744140625;0.59521484375;-6.3125;-23.6875;21.625
0.0;-0.02484130859375;-0.46417236328125;-0.88519287109375;-0.0208740234375;8.859046422898276;11.769253403387065;17.827923199960214;-0.0400390625;0.81982421875;0.59716796875;-20.5625;-11.625;9.8125
0.0;-0.019775390625;-0.45947265625;-0.8876953125;-0.0223388671875;8.916455630234932;11.737825397591518;17.834212686690346;-0.0537109375;0.69287109375;0.57470703125;-29.6875;4.375;-1.9375
0.0;-0.0126953125;-0.4539794921875;-0.890625;-0.024658203125;8.998711587189668;11.700954411971644;17.841080731811903;-0.07861328125;0.78955078125;0.5849609375;-29.75;17.9375;-14.6875
0.0;-0.00225830078125;-0.44781494140625;-0.893798828125;-0.026611328125;9.11342117848785;11.659791056007819;17.85785867204051;-0.046875;0.697265625;0.4990234375;-37.4375;27.5;-26.8125
0.0;0.00616455078125;-0.44110107421875;-0.89691162109375;-0.03076171875;9.21890010351563;11.616069462485234;17.857335317688104;-0.16796875;0.57470703125;0.5341796875;-35.4375;41.4375;-27.4375
0.0;0.01220703125;-0.43243408203125;-0.90087890625;-0.03607177734375;9.304898597124671;11.560004561679046;17.843761355577858;-0.19384765625;0.59912109375;0.53857421875;-39.4375;24.4375;-33.1875
0.0;0.01953125;-0.42413330078125;-0.90460205078125;-0.0391845703125;9.393170645382062;11.506650561335121;17.84394280311204;-0.0966796875;0.6787109375;0.6162109375;-51.6875;14.125;-39.5
0.0;0.02667236328125;-0.41314697265625;-0.90924072265625;-0.04437255859375;9.488524605516751;11.436442773585647;17.831280890567157;-0.09033203125;0.7197265625;0.55078125;-56.0;26.8125;-32.625
0.0;0.02996826171875;-0.4063720703125;-0.91156005859375;-0.05523681640625;9.571188954466823;11.391742468735227;17.779981290723047;-0.16845703125;0.51611328125;0.64599609375;-59.3125;17.3125;-38.875
0.0;0.02899169921875;-0.41162109375;-0.90875244140625;-0.06353759765625;9.602628152704;11.4229044870453;17.73575304726307;-0.201171875;0.28662109375;0.73681640625;-15.25;-15.25;-56.125
0.0;0.028076171875;-0.42059326171875;-0.90423583984375;-0.069091796875;9.625091934063256;11.47850052357712;17.707487422486434;-0.0419921875;0.55615234375;0.57763671875;40.0;-19.875;-43.125
0.0;0.02410888671875;-0.42333984375;-0.90234375;-0.07757568359375;9.626841634248745;11.494449532530092;17.654523920328195;0.064453125;0.7822265625;0.4794921875;48.5625;-7.3125;-36.3125
0.0;0.01312255859375;-0.42327880859375;-0.90155029296875;-0.0888671875;9.567524221653311;11.493610337870097;17.569065338145865;-0.048828125;0.701171875;0.6162109375;23.125;-37.0;-37.625
0.0;-1.220703125E-4;-0.42242431640625;-0.90142822265625;-0.094970703125;9.458931444484541;11.4909801538778;17.505181217509676;0.10546875;0.7080078125;0.677734375;12.6875;-74.8125;-42.6875
0.0;-0.01190185546875;-0.4263916015625;-0.8994140625;-0.09588623046875;9.346020492962676;11.520490266613288;17.472919913432307;0.2421875;0.69140625;0.6904296875;9.0;-68.75;-16.0
0.0;-0.0240478515625;-0.43359375;-0.89599609375;-0.09307861328125;9.215603323765464;11.572130904115712;17.458858058179633;0.17626953125;0.69921875;0.69775390625;38.0;-49.75;10.125
0.0;-0.0360107421875;-0.43621826171875;-0.89459228515625;-0.09051513671875;9.0832984360604;11.59539889065089;17.442518241886244;0.15966796875;0.83642578125;0.662109375;52.1875;-43.5;30.75
0.0;-0.046630859375;-0.43780517578125;-0.89385986328125;-0.0850830078125;8.949219785878489;11.61199557818133;17.443812685285344;0.1103515625;0.76416015625;0.689453125;28.5625;-48.375;34.875
0.0;-0.05291748046875;-0.4385986328125;-0.89404296875;-0.07525634765625;8.836099213497361;11.620639645351035;17.478507200431682;0.16943359375;0.77978515625;0.69921875;22.0625;-32.9375;44.75
0.0;-0.0557861328125;-0.4368896484375;-0.89556884765625;-0.06365966796875;8.746139228301812;11.610883701011229;17.531194066743208;0.1201171875;0.7666015625;0.70458984375;15.625;-3.5;60.8125
0.0;-0.056884765625;-0.436279296875;-0.89666748046875;-0.05047607421875;8.667714653490657;11.606275669514101;17.59652918115045;0.05419921875;0.6611328125;0.71875;3.375;14.5625;66.6875
0.0;-0.054931640625;-0.43609619140625;-0.89752197265625;-0.03680419921875;8.618713879554381;11.602388588205612;17.672074442038603;0.06640625;0.68115234375;0.69287109375;7.875;27.625;70.0625
0.0;-0.05096435546875;-0.43359375;-0.89935302734375;-0.024169921875;8.594531451134008;11.58288250652039;17.74789305638069;0.04248046875;0.67724609375;0.6923828125;9.8125;42.8125;66.375
0.0;-0.045166015625;-0.43194580078125;-0.9007568359375;-0.01031494140625;8.584528397839218;11.567947711157164;17.834472564117;-0.00146484375;0.62158203125;0.66943359375;-4.4375;48.8125;59.1875
0.0;-0.0364990234375;-0.42938232421875;-0.90240478515625;0.00335693359375;8.60576119616032;11.547103663629574;17.92738635839586;0.04248046875;0.60498046875;0.625;-1.0;63.125;58.5
0.0;-0.026611328125;-0.42620849609375;-0.9041748046875;0.01556396484375;8.6480903269313;11.523336397628169;0.015672518144907166;-0.02734375;0.58251953125;0.64501953125;-5.125;74.5625;53.75
0.0;-0.01690673828125;-0.42340087890625;-0.90545654296875;0.0257568359375;8.699495170633448;11.50369490951887;0.09274658852165792;-0.07373046875;0.68408203125;0.6171875;-14.9375;75.875;46.5
0.0;-0.00567626953125;-0.4171142578125;-0.90814208984375;0.036865234375;8.764678866883415;11.463288465007134;0.17850266537647114;-0.04736328125;0.81884765625;0.5556640625;-22.125;71.3125;34.9375
0.0;0.00897216796875;-0.41119384765625;-0.9102783203125;0.04833984375;8.865816421744121;11.427772118109608;0.2737178341815567;0.08154296875;0.68359375;0.5458984375;-38.625;88.4375;28.1875
0.0;0.01873779296875;-0.40966796875;-0.91033935546875;0.0562744140625;8.93129276340514;11.420823680899543;0.33828977262835397;-0.103515625;0.56494140625;0.65478515625;-24.3125;99.25;30.6875
0.0;0.0257568359375;-0.411865234375;-0.90875244140625;0.06292724609375;8.971228936063701;11.437121103373707;0.38959975379251116;-0.01318359375;0.68115234375;0.63330078125;-4.125;68.8125;19.375
0.0;0.03338623046875;-0.41912841796875;-0.90460205078125;0.07037353515625;9.00808644779267;11.486281893303369;0.446710298936734;0.1318359375;0.72802734375;0.63525390625;16.4375;57.4375;12.25
0.0;0.03662109375;-0.42529296875;-0.9012451171875;0.074951171875;9.012929263951435;11.526779627002941;0.4784521573531968;0.05517578125;0.8505859375;0.58154296875;41.4375;57.9375;20.375
0.0;0.03533935546875;-0.43133544921875;-0.89813232421875;0.07806396484375;8.977857754280278;11.564351065612769;0.4914409054827067;0.0302734375;0.84375;0.59423828125;34.9375;27.5;16.8125
0.0;0.03338623046875;-0.43682861328125;-0.89501953125;0.0843505859375;8.920188260217778;11.597918691001613;0.5189447526336849;0.126953125;0.85546875;0.5361328125;29.4375;4.375;15.0
0.0;0.0323486328125;-0.44049072265625;-0.89251708984375;0.09173583984375;8.867793756555455;11.620391567257478;0.554310616073782;0.25146484375;0.8798828125;0.45361328125;20.625;14.0;26.8125
0.0;0.0299072265625;-0.44219970703125;-0.8909912109375;0.09881591796875;8.804604297835954;11.6295208393078;0.5845773795724754;0.14404296875;0.88134765625;0.47021484375;11.5;17.125;35.5
0.0;0.02618408203125;-0.44439697265625;-0.8890380859375;0.10699462890625;8.721786367835195;11.640830758250893;0.6171585341360275;0.0849609375;0.90966796875;0.52490234375;0.25;7.0;41.0625
0.0;0.0240478515625;-0.45086669921875;-0.8843994140625;0.11865234375;8.630469483502209;11.6795098837168;0.6707900278498229;0.13134765625;0.8125;0.51904296875;7.0625;4.5625;48.1875
0.0;0.02557373046875;-0.4573974609375;-0.87933349609375;0.13037109375;8.574012200500412;11.720740913267162;0.7337951294367121;0.23486328125;0.857421875;0.48779296875;33.3125;23.0625;59.0625
0.0;0.0267333984375;-0.45599365234375;-0.8780517578125;0.14300537109375;8.521214587956473;11.710627123685576;0.8024462065181939;0.16064453125;0.9951171875;0.45849609375;31.3125;38.4375;55.875
0.0;0.0284423828125;-0.45281982421875;-0.87725830078125;0.15692138671875;8.470947330399671;11.689194117782527;0.8799381775750602;0.1396484375;0.818359375;0.45556640625;-12.8125;43.1875;58.125
0.0;0.033935546875;-0.45611572265625;-0.87274169921875;0.17095947265625;8.445018450367566;11.711989891010731;0.9661177459530262;0.185546875;0.67822265625;0.494140625;-14.625;51.9375;59.75
0.0;0.0406494140625;-0.45709228515625;-0.869384765625;0.18365478515625;8.442202346993628;11.721688456499058;1.0492965147546978;0.1083984375;0.85205078125;0.38916015625;18.0;63.4375;60.75
0.0;0.04779052734375;-0.45513916015625;-0.86785888671875;0.193603515625;8.464806149698303;11.714390056772348;1.1203044584522648;0.0556640625;0.8720703125;0.4189453125;6.0625;65.5625;52.1875
0.0;0.05645751953125;-0.45111083984375;-0.8675537109375;0.20172119140625;8.517946945117014;11.696696950426732;1.1862791583934706;0.099609375;0.7412109375;0.44580078125;-5.375;65.3125;31.375
0.0;0.06524658203125;-0.44573974609375;-0.86865234375;0.206298828125;8.595419509385737;11.672138463093487;1.2341161237078029;0.02734375;0.70751953125;0.50927734375;-12.4375;67.0625;19.4375
0.0;0.07293701171875;-0.4403076171875;-0.87054443359375;0.2073974609375;8.681014851368694;11.647279803283384;1.2605871967860336;-4.8828125E-4;0.755859375;0.525390625;-22.6875;58.4375;0.875
0.0;0.078369140625;-0.433349609375;-0.87298583984375;0.20977783203125;8.742185270140663;11.610495632189991;1.2880213537685317;-0.02197265625;0.8466796875;0.52490234375;-29.625;43.875;-13.9375
0.0;0.0855712890625;-0.4234619140625;-0.876220703125;0.21356201171875;8.822861033949144;11.558469979903204;1.3273591885721456;0.154296875;0.89697265625;0.44384765625;-49.5;45.625;-13.1875
0.0;0.09173583984375;-0.413330078125;-0.8802490234375;0.21453857421875;8.909195077732445;11.504401079511368;1.3485214262411174;0.09033203125;0.72119140625;0.47216796875;-56.625;58.75;-10.6875
0.0;0.09503173828125;-0.40838623046875;-0.88299560546875;0.21112060546875;8.973575155344925;11.478914042611239;1.338572226369971;0.00830078125;0.5673828125;0.5986328125;-46.75;43.25;-20.0625
0.0;0.09747314453125;-0.40521240234375;-0.88525390625;0.2066650390625;9.029164063863133;11.462948723972364;1.3207368516844746;0.0625;0.638671875;0.626953125;-21.1875;15.9375;-34.1875
0.0;0.10272216796875;-0.4097900390625;-0.8831787109375;0.203857421875;9.082313809335563;11.498749275139502;1.318931963335417;0.0791015625;0.603515625;0.642578125;-9.375;8.25;-37.3125
0.0;0.10662841796875;-0.4168701171875;-0.87982177734375;0.2021484375;9.109365957573507;11.548042061563695;1.3200341169696463;0.03857421875;0.66748046875;0.53271484375;34.1875;18.25;-24.0
0.0;0.1083984375;-0.42144775390625;-0.878173828125;0.19873046875;9.131076354689412;11.578912409299141;1.306792353938754;0.076171875;0.88232421875;0.47119140625;35.75;13.375;-15.0625
0.0;0.104248046875;-0.42071533203125;-0.880126953125;0.19384765625;9.116847108847761;11.568026471481764;1.2701994792504123;0.05126953125;0.94189453125;0.517578125;18.6875;-0.25;-21.0
0.0;0.09881591796875;-0.41571044921875;-0.8839111328125;0.19036865234375;9.094029764388948;11.529114311063573;1.2376338799983218;0.12646484375;0.9072265625;0.62548828125;-15.625;-26.6875;-25.8125
0.0;0.094970703125;-0.41534423828125;-0.88421630859375;0.19158935546875;9.050406941163912;11.521607927376694;1.2344374849726252;0.09912109375;0.71044921875;0.70068359375;-32.1875;-27.3125;-17.6875
0.0;0.09429931640625;-0.42401123046875;-0.879150390625;0.1961669921875;8.996863524034065;11.574435745545173;1.2570934449577826;0.14794921875;0.61279296875;0.6650390625;1.125;-9.375;6.3125
0.0;0.09027099609375;-0.432373046875;-0.87506103515625;0.197998046875;8.924181871983857;11.620978087624888;1.256288041781374;0.0615234375;0.82421875;0.6279296875;50.9375;3.1875;31.5625
0.0;0.08135986328125;-0.43560791015625;-0.8739013671875;0.19989013671875;8.816935236814123;11.629278713342936;1.2431535497058805;-0.0703125;0.8974609375;0.60400390625;41.9375;-26.4375;32.875
0.0;0.07427978515625;-0.4378662109375;-0.87249755859375;0.20404052734375;8.718789880838642;11.63390537166611;1.2466315725568842;0.06298828125;0.8095703125;0.6025390625;7.0625;-41.875;32.6875
0.0;0.06884765625;-0.441162109375;-0.8702392578125;0.20843505859375;8.632646345012715;11.647326358675583;1.2554492213582449;0.00390625;0.73779296875;0.62744140625;8.25;-28.9375;43.5
0.0;0.063720703125;-0.44610595703125;-0.86712646484375;0.21240234375;8.54693334361699;11.671665432751105;1.2622967514057766;-0.04833984375;0.67822265625;0.595703125;18.4375;-23.875;45.375
0.0;0.06060791015625;-0.4539794921875;-0.8623046875;0.21630859375;8.472923748588757;11.71698662254365;1.2728684026567374;-0.0361328125;0.62451171875;0.58349609375;31.625;-24.75;43.8125
0.0;0.0604248046875;-0.45782470703125;-0.85931396484375;0.21990966796875;8.440425716302393;11.740632497363054;1.2903147400111579;0.03125;0.80517578125;0.53515625;43.6875;-15.6875;39.625
0.0;0.06158447265625;-0.4578857421875;-0.85888671875;0.22113037109375;8.445007069225293;11.74217751476494;1.2997336693224213;0.005859375;0.82763671875;0.462890625;18.4375;1.5625;28.6875
0.0;0.0614013671875;-0.455078125;-0.86090087890625;0.2193603515625;8.461092470947976;11.724333677656256;1.2906833598233387;-0.10009765625;0.8095703125;0.50927734375;-1.0;1.5625;14.6875
0.0;0.05718994140625;-0.4500732421875;-0.86474609375;0.21551513671875;8.454412996286704;11.68848334762384;1.2610538795258406;-0.125;0.68798828125;0.57470703125;-14.0625;-11.6875;-0.1875
0.0;0.06158447265625;-0.45458984375;-0.86175537109375;0.21673583984375;8.478423664246582;11.722067052281954;1.2775235630050283;0.0537109375;0.60302734375;0.62841796875;-28.0625;-27.9375;-13.5
0.0;0.0670166015625;-0.44927978515625;-0.86376953125;0.2183837890625;8.538577698314905;11.694711955089714;1.3015238253688195;0.10791015625;1.16796875;0.42626953125;11.6875;22.25;1.1875
0.0;0.06719970703125;-0.4361572265625;-0.8701171875;0.21942138671875;8.572972881170214;11.61255852331174;1.3105902526914623;-0.11669921875;0.96875;0.361328125;-45.125;30.0;2.0625
0.0;0.06658935546875;-0.42626953125;-0.87652587890625;0.21368408203125;8.624828460463373;11.550793549111468;1.28053192684219;0.09716796875;0.56005859375;0.4296875;-81.625;19.625;-11.0
0.0;0.06451416015625;-0.417724609375;-0.88336181640625;0.20269775390625;8.682642063050595;11.49658440693067;1.2184542562667424;0.16796875;0.49267578125;0.5390625;-56.0625;-2.9375;-45.875
0.0;0.06451416015625;-0.41168212890625;-0.88812255859375;0.19390869140625;8.74171350822972;11.46016301002494;1.1725033735145214;0.2568359375;0.60205078125;0.58740234375;-53.625;-20.125;-73.25
0.0;0.06646728515625;-0.4161376953125;-0.88677978515625;0.19000244140625;8.769333998731774;11.490328713740874;1.1557915363747018;0.16455078125;0.42578125;0.646484375;-24.0;-10.5;-59.75
0.0;0.06585693359375;-0.4273681640625;-0.88232421875;0.18603515625;8.754739275513847;11.559849530652325;1.131865912157633;0.142578125;0.51416015625;0.5703125;36.75;0.9375;-27.5625
0.0;0.059326171875;-0.43743896484375;-0.87933349609375;0.17864990234375;8.702150898543447;11.616593944377463;1.0752374085732848;0.021484375;0.794921875;0.5078125;61.25;-23.75;-8.375
0.0;0.0491943359375;-0.4442138671875;-0.8779296875;0.171875;8.619752371876137;11.64986792295121;1.0128745349525052;0.03564453125;0.85546875;0.5087890625;45.6875;-60.8125;-13.25
0.0;0.03924560546875;-0.448486328125;-0.876953125;0.16845703125;8.528153931686855;11.668288750548935;0.9687506647580354;0.16357421875;0.88330078125;0.62060546875;27.0625;-70.5625;-10.1875
0.0;0.03009033203125;-0.45166015625;-0.87554931640625;0.16888427734375;8.426863921683848;11.680903583590357;0.9468643994531879;0.20556640625;0.86181640625;0.7333984375;20.3125;-58.1875;3.75
0.0;0.0206298828125;-0.45465087890625;-0.87371826171875;0.17193603515625;8.309157178248402;11.691970385680804;0.9377294735702985;0.1591796875;0.74755859375;0.76953125;22.9375;-46.5625;24.1875
0.0;0.01202392578125;-0.4622802734375;-0.86932373046875;0.1746826171875;8.191816879341996;11.734210161932822;0.9269779470368682;0.06298828125;0.626953125;0.80517578125;29.6875;-46.0625;43.875
0.0;0.0059814453125;-0.46514892578125;-0.86700439453125;0.1787109375;8.103231983900772;11.747695794885182;0.9311623005190219;0.20556640625;0.8447265625;0.74169921875;48.8125;-42.0625;38.0
0.0;-2.44140625E-4;-0.462890625;-0.866943359375;0.18499755859375;8.011469777860892;11.727077054364244;0.9493163919784819;0.11767578125;0.865234375;0.64111328125;16.0;-24.5;41.5
0.0;-0.00531005859375;-0.46563720703125;-0.8636474609375;0.19329833984375;7.90958006685735;11.738839203419074;0.978486204662065;0.04833984375;0.6337890625;0.65625;-6.0625;-17.8125;52.625
0.0;-0.0068359375;-0.46856689453125;-0.8602294921875;0.20123291015625;7.844404372558617;11.753971352655189;1.014603170350082;0.21044921875;0.64208984375;0.60595703125;25.5;-5.6875;55.0
0.0;-0.00701904296875;-0.46832275390625;-0.85919189453125;0.2061767578125;7.816134257411905;11.750304598726652;1.0404065873858768;0.1474609375;0.71728515625;0.54345703125;24.6875;8.625;48.5625
0.0;-0.005615234375;-0.466064453125;-0.85931396484375;0.21075439453125;7.810708764023962;11.7346831436451;1.069683136012844;0.11376953125;0.79052734375;0.5322265625;0.375;9.1875;31.25
0.0;-0.00421142578125;-0.4632568359375;-0.8604736328125;0.2122802734375;7.823445714480311;11.716752417432884;1.0831286750814546;0.09033203125;0.66015625;0.57177734375;-3.5625;17.1875;23.125
0.0;-0.001220703125;-0.45867919921875;-0.8621826171875;0.215087890625;7.849720868449536;11.688244091811727;1.1084681017478926;0.12744140625;0.7275390625;0.58642578125;-11.75;11.1875;5.6875
0.0;0.00115966796875;-0.45025634765625;-0.86639404296875;0.21612548828125;7.889552028934132;11.635272530234356;1.1249837941291168;0.1318359375;0.8955078125;0.5224609375;-31.0;25.8125;9.3125
0.0;0.002197265625;-0.44256591796875;-0.86993408203125;0.2177734375;7.911022865766143;11.58621106270142;1.1408674540047778;0.05517578125;0.7783203125;0.52294921875;-53.3125;20.1875;1.0625
0.0;0.00421142578125;-0.43402099609375;-0.8741455078125;0.21795654296875;7.95237663509427;11.5334797467711;1.1515156219216693;0.20068359375;0.73681640625;0.47607421875;-51.9375;21.0;0.125
0.0;0.00732421875;-0.4232177734375;-0.880126953125;0.21514892578125;8.025847207637105;11.468836588522395;1.149331949876566;0.28076171875;0.6865234375;0.453125;-56.5;27.75;-15.9375
0.0;0.01092529296875;-0.4154052734375;-0.88470458984375;0.2113037109375;8.101261603657061;11.4243630156472;1.1405953312568584;0.35791015625;0.470703125;0.578125;-55.9375;30.9375;-42.8125
0.0;0.01361083984375;-0.41741943359375;-0.8837890625;0.211181640625;8.124391050087162;11.439323831485638;1.1450430129178732;0.10693359375;0.3251953125;0.736328125;-22.8125;15.0625;-36.25
0.0;0.02044677734375;-0.42706298828125;-0.8782958984375;0.2142333984375;8.154394018650379;11.50515621799278;1.1728873123177659;0.27978515625;0.486328125;0.5517578125;22.125;17.8125;-15.0625
0.0;0.02685546875;-0.44073486328125;-0.8709716796875;0.2156982421875;8.175892499357381;11.597087272606917;1.1899808471067541;0.263671875;0.74560546875;0.45458984375;61.0;37.6875;0.25
0.0;0.02252197265625;-0.4449462890625;-0.86932373046875;0.214111328125;8.129364476295896;11.620229793297437;1.169097902407358;0.0849609375;1.0166015625;0.44189453125;74.8125;18.8125;7.75
0.0;0.01458740234375;-0.4488525390625;-0.86810302734375;0.2115478515625;8.052746562099827;11.638917371981535;1.1341431102406907;0.1416015625;0.8173828125;0.61865234375;19.5625;-31.25;6.75
0.0;0.006591796875;-0.45648193359375;-0.8646240234375;0.2099609375;7.9614284406299705;11.68181854426132;1.1018686661129748;0.17431640625;0.6640625;0.685546875;23.0625;-51.375;7.4375
0.0;6.7138671875E-4;-0.46502685546875;-0.85980224609375;0.2110595703125;7.874761210950464;11.732228867787175;1.087841579511674;0.22509765625;0.75537109375;0.6904296875;45.0;-52.1875;14.875
0.0;-0.00439453125;-0.47283935546875;-0.855224609375;0.21240234375;7.797397642613049;11.778958595756428;1.0770364152609533;0.20068359375;0.8427734375;0.666015625;51.5625;-37.8125;27.0
0.0;-0.00860595703125;-0.4786376953125;-0.8515625;0.2138671875;7.732782958997016;11.813711803839956;1.069974676148004;0.1416015625;0.77490234375;0.6279296875;49.8125;-34.3125;28.875
0.0;-0.01092529296875;-0.4813232421875;-0.8492431640625;0.21697998046875;7.685524752952998;11.828592086857306;1.0784512678680112;0.166015625;0.89208984375;0.5712890625;31.75;-26.25;27.25
0.0;-0.01165771484375;-0.481201171875;-0.847900390625;0.222412109375;7.647925419114122;11.824923069959961;1.105368801214785;0.16943359375;0.9267578125;0.57421875;14.625;-9.4375;29.4375
0.0;-0.00958251953125;-0.48236083984375;-0.84478759765625;0.23162841796875;7.613542690948376;11.829759684983806;1.1587597461735366;0.21728515625;0.85009765625;0.529296875;0.5625;10.9375;31.6875
0.0;-0.0048828125;-0.48388671875;-0.84130859375;0.2410888671875;7.602417004643395;11.838766325584874;1.2200695960649195;0.21630859375;0.7861328125;0.47216796875;15.0625;34.0;44.0625
0.0;7.9345703125E-4;-0.4847412109375;-0.839111328125;0.246826171875;7.623379001741794;11.846273502383143;1.264720265748015;0.15869140625;0.7109375;0.42431640625;21.375;45.5;40.125
0.0;0.00396728515625;-0.48297119140625;-0.83868408203125;0.25189208984375;7.631222542051837;11.834750809854624;1.3012355642899769;0.1484375;0.75927734375;0.42138671875;13.875;40.4375;19.25
0.0;0.00848388671875;-0.48193359375;-0.83782958984375;0.25653076171875;7.6524912672299275;11.829805715362749;1.338438720643581;0.2490234375;0.7783203125;0.39599609375;-9.5;34.5;15.0
0.0;0.00982666015625;-0.47869873046875;-0.83984375;0.2559814453125;7.6788608736418045;11.810066046920033;1.3412621494145696;0.080078125;0.822265625;0.42919921875;-2.4375;31.9375;19.6875
0.0;0.007568359375;-0.47149658203125;-0.8447265625;0.25335693359375;7.6932396503071265;11.76219861075533;1.3265668587447532;0.0517578125;0.89404296875;0.55615234375;-21.8125;2.8125;2.125
0.0;0.00689697265625;-0.46649169921875;-0.846923828125;0.25518798828125;7.691540175170662;11.728332508287478;1.3383045291731188;0.14501953125;0.80517578125;0.478515625;-55.625;-9.875;-9.625
0.0;0.0048828125;-0.4591064453125;-0.8504638671875;0.2568359375;7.684936288951688;11.677945846676597;1.3474692871558334;0.13720703125;0.9599609375;0.47509765625;-42.875;6.6875;14.9375
0.0;-3.662109375E-4;-0.44854736328125;-0.8570556640625;0.253662109375;7.681078778453877;11.606631239279203;1.325040217081028;0.2216796875;0.8505859375;0.396484375;-61.375;7.9375;9.25
0.0;-0.00262451171875;-0.4395751953125;-0.8641357421875;0.24517822265625;7.728699452040221;11.551244567954262;1.2796811571415352;0.55810546875;0.63427734375;0.46435546875;-77.8125;-2.8125;-31.6875
0.0;3.0517578125E-4;-0.4351806640625;-0.868408203125;0.23779296875;7.808717201568058;11.52924911550367;1.2491183000720187;0.4716796875;0.34130859375;0.4677734375;-55.0625;-7.1875;-65.9375
0.0;0.00762939453125;-0.43896484375;-0.8670654296875;0.235595703125;7.88373277315663;11.560840852398739;1.2519514532082163;0.30859375;0.46826171875;0.4501953125;-25.0;9.0;-59.8125
0.0;0.0142822265625;-0.44989013671875;-0.861328125;0.23590087890625;7.9185538879333235;11.636390509066986;1.2630651752920021;0.25732421875;0.6064453125;0.41357421875;27.8125;31.375;-32.6875
0.0;0.011474609375;-0.4578857421875;-0.8572998046875;0.23516845703125;7.871585247958859;11.685458515832249;1.2475999107914597;0.18310546875;0.9736328125;0.345703125;56.0;22.125;-4.25
0.0;0.00103759765625;-0.46234130859375;-0.85595703125;0.23162841796875;7.773751425689885;11.706748978518895;1.2000026003277147;0.181640625;0.9306640625;0.4267578125;31.8125;-24.4375;12.4375
0.0;-0.0128173828125;-0.4688720703125;-0.85382080078125;0.2259521484375;7.648166470047085;11.741594591242535;1.130483044438495;0.14990234375;0.66064453125;0.609375;19.0625;-69.75;13.4375
0.0;-0.026611328125;-0.4786376953125;-0.8489990234375;0.222412109375;7.504395833868369;11.79936540540355;1.0688551719671084;0.146484375;0.65087890625;0.6357421875;28.875;-96.1875;14.3125
0.0;-0.035400390625;-0.4930419921875;-0.84033203125;0.2225341796875;7.380381614037758;11.891422575649347;1.033862933474046;0.25390625;0.66748046875;0.61279296875;51.75;-91.375;23.375
0.0;-0.0380859375;-0.5047607421875;-0.83404541015625;0.21954345703125;7.343241819027338;11.971189710248336;0.9997699926405772;0.2705078125;0.7822265625;0.55859375;86.5625;-63.625;33.25
0.0;-0.03900146484375;-0.50714111328125;-0.83306884765625;0.21759033203125;7.340157829737757;11.988109221399625;0.9847083146045451;0.1416015625;0.99560546875;0.50732421875;65.25;-42.9375;10.8125
0.0;-0.03790283203125;-0.50384521484375;-0.8348388671875;0.2186279296875;7.3525989011040895;11.96552701495391;0.9963371749155331;0.13037109375;0.99658203125;0.5146484375;8.875;-19.3125;6.4375
0.0;-0.03466796875;-0.49969482421875;-0.83612060546875;0.2237548828125;7.364580600440968;11.935915951166455;1.0360586825099145;0.15771484375;0.8466796875;0.56591796875;-15.6875;6.9375;8.0
0.0;-0.032470703125;-0.49652099609375;-0.8375244140625;0.22601318359375;7.381151524770985;11.914136527036884;1.0568392246725238;0.21923828125;0.74169921875;0.53466796875;-13.6875;32.875;16.4375
0.0;-0.030029296875;-0.49951171875;-0.83575439453125;0.22637939453125;7.395978366334088;11.93516441751592;1.0625526421522073;0.19482421875;0.63671875;0.4638671875;-11.875;19.0;4.75
0.0;-0.02716064453125;-0.50067138671875;-0.83514404296875;0.226318359375;7.421892023667264;11.944427476754068;1.0689212160384327;0.26611328125;0.9130859375;0.43359375;15.5625;9.5625;-1.375
0.0;-0.0234375;-0.49420166015625;-0.83819580078125;0.2294921875;7.456678172712527;11.90129213513774;1.101429190301718;0.3603515625;1.14404296875;0.41015625;-5.375;16.625;-6.75
0.0;-0.0269775390625;-0.47760009765625;-0.84722900390625;0.231201171875;7.454186324076769;11.78774490349804;1.1157476777412092;0.1142578125;0.9970703125;0.494140625;-41.875;30.5625;13.75
0.0;-0.0302734375;-0.4691162109375;-0.85223388671875;0.22979736328125;7.450360136277922;11.730559121552108;1.1072346918216849;0.27783203125;0.50927734375;0.6103515625;-94.9375;10.125;2.625
0.0;-0.0311279296875;-0.4686279296875;-0.85296630859375;0.22772216796875;7.454159413123672;11.728146442280346;1.0944002767195045;0.30029296875;0.3671875;0.58642578125;-41.4375;-7.375;-12.875
0.0;-0.02581787109375;-0.4698486328125;-0.8526611328125;0.22723388671875;7.507612048110363;11.739263707432697;1.1039740530103217;0.45068359375;0.96826171875;0.5390625;-14.3125;-1.3125;-15.375
0.0;-0.02618408203125;-0.46099853515625;-0.856689453125;0.23004150390625;7.511082150198501;11.679585962656624;1.125502760733197;0.19482421875;1.0859375;0.314453125;-11.5625;24.9375;-7.5
0.0;-0.029296875;-0.4564208984375;-0.8599853515625;0.22662353515625;7.509408525733236;11.649531374654035;1.1032015896767091;0.36279296875;0.6572265625;0.39111328125;-59.375;25.4375;2.6875
0.0;-0.02984619140625;-0.45147705078125;-0.8648681640625;0.2176513671875;7.563296572776174;11.621756766305511;1.057407848881297;0.54833984375;0.5859375;0.43212890625;-36.3125;-3.25;-31.5625
0.0;-0.02569580078125;-0.447265625;-0.86773681640625;0.21551513671875;7.626976826450422;11.597879304402053;1.0590573141596429;0.46240234375;0.546875;0.41259765625;-39.5625;-7.1875;-63.75
0.0;-0.0185546875;-0.4544677734375;-0.86309814453125;0.2197265625;7.6601504771118165;11.646910439035297;1.0935810556366814;0.375;0.455078125;0.44482421875;-18.8125;28.9375;-36.8125
0.0;-0.01611328125;-0.4635009765625;-0.85711669921875;0.2244873046875;7.636770346285917;11.704927861529804;1.11840973027013;0.26416015625;0.76708984375;0.39013671875;46.625;41.1875;5.8125
0.0;-0.01861572265625;-0.46429443359375;-0.85711669921875;0.22259521484375;7.619701538285699;11.70944672045307;1.1014757903221113;0.19677734375;1.02099609375;0.466796875;48.625;12.3125;29.625
0.0;-0.0245361328125;-0.463623046875;-0.8582763671875;0.21881103515625;7.58185602764414;11.70343563420289;1.0670480154865458;0.142578125;0.85546875;0.68408203125;4.0625;-24.0;3.75
0.0;-0.0404052734375;-0.46563720703125;-0.8564453125;0.2193603515625;7.412879378511146;11.708273172959334;1.0289176774677546;-0.1494140625;0.5654296875;0.908203125;13.25;-59.625;13.8125
0.0;-0.05108642578125;-0.479736328125;-0.8460693359375;0.22698974609375;7.228990175483512;11.793290534293671;1.0296036594884161;0.119140625;0.55322265625;0.619140625;6.9375;-86.5;51.25
0.0;-0.05194091796875;-0.498046875;-0.83416748046875;0.231201171875;7.152197754936525;11.914500110012842;1.030864049239504;0.4072265625;0.5966796875;0.59814453125;95.875;-49.625;65.875
0.0;-0.05255126953125;-0.49609375;-0.83544921875;0.2305908203125;7.154308736828709;11.9014012448655;1.0280755312086158;0.26953125;1.1416015625;0.3603515625;116.75;-19.6875;35.3125
0.0;-0.05377197265625;-0.48614501953125;-0.841064453125;0.231201171875;7.162570209374463;11.833030191940843;1.0387127344047282;0.11474609375;0.9140625;0.4931640625;-18.5625;-8.5625;11.6875
0.0;-0.052490234375;-0.4918212890625;-0.83709716796875;0.23382568359375;7.146620169489693;11.870325383200333;1.0501278711907904;0.04296875;0.39599609375;0.69677734375;-40.875;-2.9375;8.4375
0.0;-0.0518798828125;-0.48828125;-0.83929443359375;0.23370361328125;7.162311441138564;11.846455523669492;1.0548106101063586;0.22021484375;1.14306640625;0.58203125;32.6875;-0.375;25.6875
0.0;-0.0513916015625;-0.4808349609375;-0.8463134765625;0.22357177734375;7.2424236435646705;11.802684914067834;1.009354158591171;0.4111328125;0.7431640625;0.6455078125;-13.625;8.4375;-10.75
0.0;-0.0565185546875;-0.4720458984375;-0.8509521484375;0.223388671875;7.211694622093915;11.742230792639418;1.0042219934878598;0.06201171875;0.7001953125;0.59130859375;-51.3125;-23.875;-45.6875
0.0;-0.0550537109375;-0.46832275390625;-0.85223388671875;0.226806640625;7.216699178088387;11.715641819208459;1.0301550316035515;0.4228515625;0.91357421875;0.4208984375;-74.0625;-5.875;6.375
0.0;-0.05389404296875;-0.45916748046875;-0.85772705078125;0.22515869140625;7.259136987394786;11.656278648497612;1.0331654221912523;0.47900390625;0.94189453125;0.3154296875;-38.3125;33.375;6.25
0.0;-0.05255126953125;-0.45098876953125;-0.863037109375;0.2216796875;7.3104894704528425;11.605091635326726;1.0253226405741294;0.56005859375;0.60205078125;0.390625;-62.0;29.0625;-32.8125
0.0;-0.0506591796875;-0.4493408203125;-0.8642578125;0.22064208984375;7.3391881033593505;11.595764989307792;1.0257227708398253;0.4033203125;0.32275390625;0.45458984375;-42.75;16.6875;-39.875
0.0;-0.04339599609375;-0.459228515625;-0.8587646484375;0.22332763671875;7.376274197263992;11.662325489081129;1.0487143519340978;0.533203125;0.4375;0.46923828125;-2.5;21.8125;-30.5625
0.0;-0.03936767578125;-0.46905517578125;-0.85235595703125;0.22808837890625;7.367680780255656;11.726384559226348;1.0754211916230354;0.41748046875;0.77392578125;0.32080078125;58.8125;39.3125;-8.25
0.0;-0.04681396484375;-0.4737548828125;-0.8497314453125;0.2266845703125;7.288290963660755;11.755160774331578;1.0447654551248162;0.2060546875;0.95751953125;0.4033203125;56.1875;18.1875;26.0625
0.0;-0.0625;-0.47979736328125;-0.84661865234375;0.2218017578125;7.141902841651031;11.793560244280469;0.9723040723254945;0.03076171875;0.751953125;0.63330078125;26.0625;-58.75;29.4375
0.0;-0.0784912109375;-0.48333740234375;-0.84381103515625;0.21978759765625;6.982477890054966;11.81611699296637;0.915922522478021;0.24609375;0.693359375;0.76171875;19.9375;-100.25;21.625
0.0;-0.08892822265625;-0.48980712890625;-0.8382568359375;0.22271728515625;6.84550608385208;11.857982447200841;0.8961781070340126;0.341796875;0.66845703125;0.75537109375;21.0;-94.4375;34.3125
0.0;-0.09381103515625;-0.49566650390625;-0.83367919921875;0.224853515625;6.770989733695307;11.897294703940007;0.8868870721309198;0.3759765625;0.7802734375;0.7294921875;47.3125;-58.5;46.75
0.0;-0.09564208984375;-0.4969482421875;-0.83294677734375;0.2239990234375;6.754668638588228;11.90699493407972;0.8755463728855213;0.27197265625;0.78173828125;0.63037109375;43.625;-35.0;32.5
0.0;-0.09661865234375;-0.49755859375;-0.831787109375;0.2264404296875;6.72910729715276;11.909567091837342;0.8852517323588692;0.1806640625;0.8876953125;0.54833984375;5.0625;-21.4375;15.3125
0.0;-0.0955810546875;-0.4993896484375;-0.82879638671875;0.23370361328125;6.69313018362873;11.916756762450877;0.9249206397758896;0.298828125;0.8056640625;0.45849609375;4.0625;-1.625;20.875
0.0;-0.0927734375;-0.497802734375;-0.82879638671875;0.23822021484375;6.698775682761131;11.901995009775119;0.959308836990291;0.361328125;0.83251953125;0.361328125;13.9375;24.0;37.75
0.0;-0.09375;-0.49365234375;-0.83099365234375;0.23883056640625;6.6947054232871865;11.872487695464205;0.9657618910562112;0.220703125;0.677734375;0.33642578125;-5.8125;26.6875;20.625
0.0;-0.09344482421875;-0.4918212890625;-0.83343505859375;0.23419189453125;6.728853515715757;11.86334156270895;0.9437729475156245;0.322265625;0.4677734375;0.46630859375;-17.875;2.3125;0.3125
0.0;-0.0897216796875;-0.4949951171875;-0.8311767578125;0.237060546875;6.743137588241619;11.883201733348908;0.9650448291776492;0.3916015625;0.91015625;0.4443359375;-25.4375;-6.5;-21.9375
0.0;-0.0894775390625;-0.48223876953125;-0.83734130859375;0.24151611328125;6.749453855951301;11.79143515913512;1.0072004371243586;0.37744140625;1.4921875;0.3271484375;-6.375;24.625;24.3125
0.0;-0.09503173828125;-0.46978759765625;-0.84228515625;0.246826171875;6.692344848622623;11.700651443611077;1.0392748402449137;0.07763671875;0.83056640625;0.43994140625;-82.125;25.5;36.9375
0.0;-0.0980224609375;-0.45794677734375;-0.847412109375;0.250244140625;6.671488658039648;11.61634648524335;1.067209168402815;0.5615234375;0.52392578125;0.4375;-75.625;16.9375;25.5625
0.0;-0.096435546875;-0.4432373046875;-0.85467529296875;0.25262451171875;6.712209617903849;11.51507212839146;1.1039623957478721;0.73681640625;0.61474609375;0.521484375;-71.125;28.625;2.625
0.0;-0.08282470703125;-0.4381103515625;-0.8570556640625;0.25836181640625;6.83881133588919;11.480486534616292;1.173439946025603;0.763671875;0.22998046875;0.41259765625;-76.1875;59.0;-26.6875
0.0;-0.064208984375;-0.45074462890625;-0.851318359375;0.26092529296875;6.9848411280273695;11.570883822137318;1.215027548843211;0.35498046875;0.00146484375;0.443359375;13.25;93.375;-24.875
0.0;-0.04541015625;-0.46527099609375;-0.84539794921875;0.25848388671875;7.150068612165086;11.679292792313122;1.2299896407114275;0.3681640625;0.66357421875;0.2255859375;89.6875;86.125;-34.25
0.0;-0.03887939453125;-0.46221923828125;-0.84912109375;0.2528076171875;7.255988783588564;11.666633631784569;1.217502812331844;0.1513671875;1.0322265625;0.24365234375;85.625;61.9375;-41.5625
0.0;-0.03753662109375;-0.4573974609375;-0.851806640625;0.2525634765625;7.284268425043563;11.636019130521856;1.2240105342489733;0.30419921875;0.81298828125;0.48779296875;-22.75;23.75;-48.9375
0.0;-0.03955078125;-0.474853515625;-0.841552734375;0.254638671875;7.203904423520251;11.748816790066385;1.2134215145448848;0.24951171875;0.2841796875;0.791015625;1.8125;7.5625;-15.0
0.0;-0.04547119140625;-0.4879150390625;-0.83367919921875;0.25482177734375;7.106760277718413;11.83332908589103;1.185899529229797;0.0927734375;0.83154296875;0.51904296875;108.5;-33.875;29.5625
0.0;-0.0489501953125;-0.5009765625;-0.82696533203125;0.250732421875;7.060097097661753;11.923310992124062;1.1403018376641136;0.30908203125;0.88427734375;0.52978515625;73.125;-50.0625;28.5
0.0;-0.05267333984375;-0.50384521484375;-0.82672119140625;0.24481201171875;7.050192057750435;11.945576199609432;1.0953071682493791;0.2763671875;0.84619140625;0.537109375;75.75;-51.75;0.6875
0.0;-0.05718994140625;-0.50811767578125;-0.82427978515625;0.24322509765625;7.003549468890159;11.974716806183201;1.0696276543419272;0.12646484375;0.71484375;0.6171875;17.625;-49.0;-8.0625
0.0;-0.05926513671875;-0.51519775390625;-0.81988525390625;0.2425537109375;6.968918921847739;12.02393462094916;1.051914393624566;0.23828125;0.7578125;0.67333984375;33.5;-40.875;12.1875
0.0;-0.05859375;-0.51971435546875;-0.817626953125;0.2408447265625;6.97487753488699;12.05656748710545;1.0392287589453828;0.4169921875;0.775390625;0.4873046875;45.875;-21.4375;1.6875
0.0;-0.05816650390625;-0.51904296875;-0.81951904296875;0.236083984375;7.010080916171705;12.054758763751106;1.0159851435626859;0.26318359375;0.7255859375;0.4951171875;33.4375;-12.75;-5.8125
0.0;-0.055419921875;-0.5238037109375;-0.81781005859375;0.23211669921875;7.050232091057355;12.090902932514792;0.9972405126179382;0.2685546875;0.63525390625;0.5185546875;-0.0625;-14.625;-26.375
0.0;-0.05047607421875;-0.52880859375;-0.81561279296875;0.22943115234375;7.103610982132343;12.128521459512381;0.9916143314930099;0.31005859375;0.73095703125;0.3466796875;27.1875;-4.3125;-27.1875
0.0;-0.044921875;-0.5291748046875;-0.81719970703125;0.22418212890625;7.19017722418876;12.134932053106198;0.9798963168274024;0.3271484375;0.86279296875;0.32470703125;28.5;10.1875;-25.6875
0.0;-0.04095458984375;-0.519775390625;-0.8248291015625;0.21868896484375;7.2848703301581805;12.073704659853135;0.9725249662718882;0.20068359375;0.8251953125;0.38916015625;0.5;8.0625;-37.25
0.0;-0.033447265625;-0.52264404296875;-0.82415771484375;0.21575927734375;7.370133056501213;12.097026224574451;0.9758397109270068;0.23583984375;0.65234375;0.724609375;-41.6875;8.125;-45.5625
0.0;-0.0230712890625;-0.52044677734375;-0.82623291015625;0.21453857421875;7.484600887445974;12.086182624676503;1.0010989537282073;0.416015625;1.13037109375;0.20361328125;0.25;32.3125;-38.625
0.0;-0.0133056640625;-0.51251220703125;-0.8323974609375;0.21063232421875;7.622962403769937;12.038235199006255;1.0150765890934663;0.359375;1.0595703125;0.2666015625;-22.3125;55.25;-40.8125
0.0;-0.01202392578125;-0.49346923828125;-0.84613037109375;0.20123291015625;7.735363475133077;11.914978717562066;0.9841441323398784;0.23291015625;0.82421875;0.28955078125;-54.5;48.0625;-54.125
0.0;-0.00909423828125;-0.48931884765625;-0.8485107421875;0.201416015625;7.772905854282655;11.888984993155876;0.9958921670497554;0.0087890625;0.30322265625;0.724609375;-122.625;-0.25;-62.6875
0.0;0.0037841796875;-0.49444580078125;-0.843994140625;0.20806884765625;7.850116487466255;11.928220730824126;1.06173944196252;0.51220703125;0.79248046875;0.4482421875;-26.6875;31.9375;-27.9375
0.0;0.01727294921875;-0.49835205078125;-0.84063720703125;0.211669921875;7.951906194362948;11.962516637615256;1.1147427583954328;0.35009765625;0.86181640625;0.31103515625;40.0;83.375;-7.0
0.0;0.0201416015625;-0.49078369140625;-0.8446044921875;0.213134765625;7.99112923258368;11.91454701010315;1.1344909760714308;0.04052734375;1.06298828125;0.30517578125;25.0;68.3125;-5.4375
0.0;0.02471923828125;-0.48779296875;-0.84521484375;0.2171630859375;8.020881161256488;11.897456974353512;1.1694048752630963;0.27734375;0.80908203125;0.435546875;-48.3125;31.4375;-13.0625
0.0;0.03021240234375;-0.4951171875;-0.839599609375;0.221435546875;8.029717873134338;11.94922275431884;1.2026327615135732;0.2509765625;0.591796875;0.52587890625;-1.875;39.6875;-2.125
0.0;0.02703857421875;-0.50439453125;-0.83349609375;0.2239990234375;7.9578505476751555;12.006800324648088;1.2020388569108276;-0.017578125;0.7578125;0.52734375;61.5625;23.5625;23.25
0.0;0.0213623046875;-0.5098876953125;-0.8297119140625;0.22625732421875;7.873941047947407;12.037732078597733;1.1946070135096467;0.13818359375;0.89208984375;0.54541015625;59.5;-21.0625;33.875
0.0;0.02001953125;-0.51495361328125;-0.8267822265625;0.2257080078125;7.850183260938833;12.0706417057126;1.184757544044847;0.3115234375;0.8359375;0.60400390625;37.5625;-24.8125;25.625
0.0;0.0140380859375;-0.51654052734375;-0.82684326171875;0.22216796875;7.8094696260626435;12.077985040188855;1.1485914084161726;-0.05517578125;0.7705078125;0.69287109375;47.625;-25.75;19.6875
0.0;0.00775146484375;-0.522216796875;-0.82366943359375;0.2210693359375;7.740213178813365;12.11218707038838;1.1211068904925263;-0.09814453125;0.658203125;0.7421875;23.0;-54.9375;16.6875
0.0;0.009521484375;-0.53228759765625;-0.8173828125;0.22039794921875;7.7347313584233355;12.182019902302901;1.1154855037234643;0.20166015625;0.7119140625;0.54931640625;39.0;-42.0;16.375
0.0;0.014404296875;-0.53692626953125;-0.81494140625;0.21795654296875;7.784552519663057;12.217784860231168;1.1140902696476322;0.13330078125;0.85546875;0.47607421875;71.8125;-9.5;5.0625
0.0;0.0185546875;-0.53192138671875;-0.8182373046875;0.2174072265625;7.840980936582162;12.186860728504117;1.1269523506245538;0.1552734375;1.1796875;0.23779296875;14.8125;11.125;-15.0625
0.0;0.02154541015625;-0.52740478515625;-0.821044921875;0.21746826171875;7.881352278431132;12.158482256416997;1.1389395795041055;0.12109375;0.91357421875;0.30859375;-36.9375;22.75;-14.3125
0.0;0.0235595703125;-0.52325439453125;-0.82403564453125;0.216064453125;7.920634042370519;12.132366591337801;1.1401868758553626;0.080078125;0.73193359375;0.38623046875;-25.125;16.875;-7.9375
0.0;0.02337646484375;-0.5159912109375;-0.82940673828125;0.2130126953125;7.957006066814174;12.084328922062545;1.1284079480107523;0.14111328125;0.87646484375;0.45166015625;-26.0625;8.3125;-14.0
0.0;0.02099609375;-0.50958251953125;-0.83367919921875;0.21209716796875;7.956429649637043;12.039856787054061;1.120718223891676;0.10693359375;1.0810546875;0.44921875;-58.375;-4.0;-14.3125
0.0;0.0177001953125;-0.4942626953125;-0.84259033203125;0.21331787109375;7.957029284381016;11.935402707499675;1.1268557643833381;0.240234375;1.19189453125;0.27587890625;-69.8125;-1.9375;-2.5625
0.0;0.01446533203125;-0.48284912109375;-0.84832763671875;0.217041015625;7.933703644684726;11.85654372566674;1.144248839290685;0.421875;0.767578125;0.43359375;-103.875;7.625;-1.0625
0.0;0.0164794921875;-0.47637939453125;-0.8514404296875;0.21893310546875;7.960045538320351;11.815371830820974;1.1632072883973663;0.5126953125;0.56201171875;0.4990234375;-67.875;20.8125;-3.8125
0.0;0.0196533203125;-0.47265625;-0.85333251953125;0.21923828125;7.999689798799251;11.793884123602908;1.1751422637927065;0.4765625;0.56640625;0.50634765625;-30.25;34.1875;-21.1875
0.0;0.0220947265625;-0.47802734375;-0.84942626953125;0.22265625;7.990280703255615;11.829672408444154;1.1965204663089888;0.19873046875;0.47265625;0.490234375;-9.75;22.75;-15.375
0.0;0.02099609375;-0.48614501953125;-0.84356689453125;0.22723388671875;7.930909377472723;11.880252334516069;1.2131114934905194;0.212890625;0.6875;0.49365234375;41.8125;17.0;11.6875
0.0;0.0115966796875;-0.49127197265625;-0.84014892578125;0.2296142578125;7.810558681727301;11.905105928291324;1.1974011453021596;0.08251953125;0.8984375;0.4892578125;48.8125;-6.0;40.4375
0.0;-1.8310546875E-4;-0.49761962890625;-0.8365478515625;0.22943115234375;7.6783701903722035;11.938346206904505;1.160450948280504;0.02099609375;0.85205078125;0.52197265625;21.0;-51.9375;54.0
0.0;-0.010986328125;-0.5059814453125;-0.83184814453125;0.2279052734375;7.5587740378583;11.98808332738142;1.116644485389498;0.15478515625;0.7802734375;0.62158203125;33.9375;-69.875;40.8125
0.0;-0.020263671875;-0.51092529296875;-0.82867431640625;0.22802734375;7.45407414541852;12.016244412188628;1.0875288271434114;0.166015625;0.8076171875;0.6220703125;47.9375;-72.5;34.125
0.0;-0.02593994140625;-0.5189208984375;-0.8231201171875;0.2293701171875;7.369632680709582;12.067612206857609;1.0714151790288626;0.1572265625;0.7041015625;0.6220703125;33.8125;-56.75;35.3125
0.0;-0.02935791015625;-0.52520751953125;-0.81817626953125;0.23223876953125;7.302395937481988;12.10812232297335;1.0706123737531406;0.1552734375;0.837890625;0.48681640625;48.5;-38.75;36.5
0.0;-0.0308837890625;-0.5260009765625;-0.81793212890625;0.23114013671875;7.292272959062629;12.113544370717836;1.0597417099717799;0.19580078125;0.9462890625;0.42041015625;35.75;-19.25;37.25
0.0;-0.0333251953125;-0.522705078125;-0.82122802734375;0.22662353515625;7.30450839617972;12.092092699854627;1.032549321618366;0.16748046875;1.0009765625;0.3193359375;-10.125;-12.8125;10.4375
0.0;-0.03857421875;-0.51605224609375;-0.82598876953125;0.22357177734375;7.287475092655016;12.046191800822765;1.0084702245034425;0.05859375;0.87255859375;0.39599609375;-33.8125;-26.3125;-3.125
0.0;-0.0439453125;-0.51422119140625;-0.82696533203125;0.22320556640625;7.240886794763675;12.032179850503775;0.9933814413004068;0.2548828125;0.74609375;0.56884765625;-44.125;-27.8125;-3.3125
0.0;-0.0465087890625;-0.50567626953125;-0.8309326171875;0.2274169921875;7.210472812316629;11.970478579779021;1.0173623353462042;0.3115234375;1.123046875;0.26904296875;-39.875;-19.6875;18.875
0.0;-0.0516357421875;-0.48724365234375;-0.8399658203125;0.23345947265625;7.168683705594632;11.839708998996304;1.0552357891004036;0.1279296875;1.1123046875;0.3955078125;-69.6875;8.125;41.5625
0.0;-0.0550537109375;-0.470947265625;-0.84808349609375;0.23663330078125;7.156407549440669;11.726914045405248;1.08084804182322;0.38818359375;0.7216796875;0.419921875;-119.5;20.625;35.1875
0.0;-0.0648193359375;-0.4542236328125;-0.85687255859375;0.23516845703125;7.10523594925918;11.612740116176273;1.0667754182407099;0.4375;0.50830078125;0.46240234375;-103.375;18.3125;15.8125
0.0;-0.0640869140625;-0.46234130859375;-0.85308837890625;0.2332763671875;7.1032254996853705;11.66835762799687;1.0494370022941786;0.43994140625;-0.27197265625;0.7275390625;-70.1875;-25.125;-16.1875
0.0;-0.05206298828125;-0.47845458984375;-0.84600830078125;0.2294921875;7.208013034681316;11.78293939836468;1.041920760217594;0.39892578125;0.25439453125;0.3798828125;60.0625;-6.625;-24.3125
0.0;-0.04754638671875;-0.489501953125;-0.84100341796875;0.22564697265625;7.249075328382957;11.861139255455397;1.021744202034144;0.20947265625;1.13330078125;0.271484375;84.375;26.625;-33.6875
0.0;-0.053955078125;-0.47882080078125;-0.847900390625;0.22125244140625;7.234066107713757;11.789729784602565;0.9923418787054308;0.11181640625;1.32080078125;0.2177734375;36.0625;-5.5;-6.0625
0.0;-0.05755615234375;-0.48040771484375;-0.84661865234375;0.2218017578125;7.190779728358067;11.798997091282384;0.9844022315663805;0.4755859375;0.61474609375;0.5908203125;-70.625;-22.375;-22.625
0.0;-0.05731201171875;-0.4891357421875;-0.8404541015625;0.22613525390625;7.1485441152704885;11.855429908640893;0.9990842586042643;0.52490234375;0.41650390625;0.50537109375;19.25;-9.6875;-6.1875
0.0;-0.058837890625;-0.4989013671875;-0.83343505859375;0.23052978515625;7.084904151025447;11.918769199538875;1.0078230191615718;0.38134765625;0.76171875;0.4072265625;56.1875;4.5625;21.1875
0.0;-0.06268310546875;-0.50885009765625;-0.82684326171875;0.23138427734375;7.017699735635926;11.986100844345465;0.9905097422411372;0.326171875;0.92919921875;0.45751953125;59.5;-9.125;34.3125
0.0;-0.0711669921875;-0.50811767578125;-0.82659912109375;0.23150634765625;6.933646631064516;11.979712227534286;0.9686258725490319;0.27490234375;1.01416015625;0.48095703125;55.125;-33.75;28.875
0.0;-0.0765380859375;-0.5029296875;-0.82940673828125;0.23089599609375;6.894878013499378;11.943707711921276;0.9570791675245233;0.3994140625;0.7646484375;0.59033203125;-5.9375;-40.3125;22.125
0.0;-0.07659912109375;-0.50347900390625;-0.82928466796875;0.23016357421875;6.897389963657177;11.9479876324172;0.9522887279598246;0.388671875;0.49755859375;0.60693359375;-23.0;-21.4375;1.75
0.0;-0.0771484375;-0.51226806640625;-0.82452392578125;0.227783203125;6.8865457033731605;12.010833119387582;0.9269246317200132;0.013671875;0.48974609375;0.62158203125;20.875;-18.5625;8.1875
0.0;-0.079345703125;-0.5120849609375;-0.82568359375;0.22320556640625;6.892479430040532;12.012583206788404;0.8966281144502921;0.1171875;0.953125;0.48095703125;49.8125;-31.3125;10.1875
0.0;-0.0745849609375;-0.5159912109375;-0.82525634765625;0.21722412109375;6.968021178458546;12.043831901537057;0.8735771475938939;0.3603515625;0.82861328125;0.49853515625;-7.625;-24.125;-16.1875
0.0;-0.07666015625;-0.50689697265625;-0.8311767578125;0.21533203125;6.9774040452376935;11.981590666571485;0.8688071312312582;0.1640625;1.0693359375;0.36572265625;9.5625;-3.875;-26.875
0.0;-0.0802001953125;-0.50213623046875;-0.833251953125;0.21734619140625;6.9397276811048805;11.94707422506284;0.8755065185855565;0.37939453125;0.52392578125;0.5361328125;-50.875;-2.0625;-15.125
0.0;-0.0784912109375;-0.50836181640625;-0.82989501953125;0.2161865234375;6.950891483793106;11.991232427767212;0.8664289316522538;0.36962890625;0.39892578125;0.4794921875;-18.875;-3.6875;8.6875
0.0;-0.0726318359375;-0.5103759765625;-0.82928466796875;0.2156982421875;7.008412383868116;12.005682799149547;0.8778448598916802;0.35791015625;1.17138671875;0.51806640625;31.625;-5.375;-0.875
0.0;-0.07598876953125;-0.49224853515625;-0.839111328125;0.21875;6.994815455074793;11.878162203601548;0.9064247908486244;0.18017578125;1.41064453125;0.13916015625;-20.3125;26.125;4.375
0.0;-0.07550048828125;-0.47576904296875;-0.8489990234375;0.21734619140625;7.04286195300239;11.766694038037846;0.9192667075290076;0.28173828125;0.81494140625;0.40673828125;-119.25;19.6875;20.375
0.0;-0.0758056640625;-0.46221923828125;-0.85675048828125;0.21600341796875;7.075846118687445;11.676318162213045;0.9264191762973152;1.0615234375;0.57958984375;0.50390625;-105.75;29.875;-24.125
0.0;-0.0640869140625;-0.45086669921875;-0.86370849609375;0.2161865234375;7.22050304269861;11.603561576643134;0.9679229693486159;0.75439453125;0.0283203125;0.4140625;-67.4375;34.5625;-49.125
0.0;-0.04412841796875;-0.47216796875;-0.85272216796875;0.21923828125;7.360440970271399;11.749969013786915;1.0129906503308101;0.31591796875;-0.31591796875;0.43212890625;-24.8125;78.25;-57.25
0.0;-0.03619384765625;-0.4857177734375;-0.84765625;0.21044921875;7.458629970413151;11.848203483979235;0.9743800006523794;0.08935546875;1.04638671875;0.22265625;152.625;75.8125;-26.625
0.0;-0.04241943359375;-0.4808349609375;-0.85125732421875;0.20599365234375;7.431802454367938;11.815572828493996;0.9388082161166619;-0.02197265625;1.4130859375;0.0830078125;40.0625;-5.6875;-33.6875
0.0;-0.0511474609375;-0.4892578125;-0.8465576171875;0.203369140625;7.340551514168144;11.87108441443112;0.8941241957380088;0.14990234375;0.6611328125;0.572265625;-34.9375;-41.0625;-3.6875
0.0;-0.06134033203125;-0.5003662109375;-0.8397216796875;0.20184326171875;7.22413521711877;11.945622660093107;0.8473528493079115;0.12841796875;0.5263671875;0.59716796875;57.75;-68.3125;18.1875
0.0;-0.0703125;-0.5079345703125;-0.83489990234375;0.20025634765625;7.128812046184621;11.997907847989856;0.8058691996818467;0.30615234375;0.8837890625;0.61376953125;65.375;-71.125;27.125
0.0;-0.0726318359375;-0.51416015625;-0.83306884765625;0.19091796875;7.149961133780987;12.046473220773882;0.7435637254508642;0.3515625;0.77587890625;0.8046875;59.8125;-64.75;18.4375
0.0;-0.07354736328125;-0.507080078125;-0.8385009765625;0.1856689453125;7.184389018497067;12.000465824150597;0.7213936790732738;0.107421875;0.990234375;0.75634765625;40.75;-59.625;-22.3125
0.0;-0.068115234375;-0.50140380859375;-0.841552734375;0.1893310546875;7.227332999580874;11.959192256689096;0.7618437832500621;0.42529296875;0.888671875;0.76611328125;-38.5625;-12.6875;-30.6875
0.0;-0.0538330078125;-0.49029541015625;-0.8486328125;0.19146728515625;7.3794391596519695;11.883711432859943;0.8231902262234493;0.6162109375;0.98583984375;0.40283203125;-39.6875;56.5625;-13.1875
0.0;-0.04193115234375;-0.4825439453125;-0.85400390625;0.1903076171875;7.521190238447152;11.834937026087596;0.8557356279003223;0.14013671875;0.6181640625;0.36279296875;-59.125;87.8125;-30.1875
0.0;-0.03643798828125;-0.480712890625;-0.8553466796875;0.19000244140625;7.58196282756664;11.82458613677351;0.870113177675649;-0.04052734375;0.4853515625;0.3916015625;-36.0;56.0625;-31.625
0.0;-0.0284423828125;-0.4871826171875;-0.8519287109375;0.1900634765625;7.6488625258708245;11.870494806927223;0.8865179668888121;0.3310546875;0.744140625;0.24755859375;-20.625;36.8125;-23.6875
0.0;-0.02008056640625;-0.49072265625;-0.85040283203125;0.18878173828125;7.732477785206717;11.897962487015548;0.8996180184393228;0.40869140625;0.90576171875;0.166015625;25.9375;43.6875;-27.875
0.0;-0.014892578125;-0.4930419921875;-0.8486328125;0.191162109375;7.76565335125222;11.914769442043669;0.9243433397013766;0.15576171875;0.8046875;0.2392578125;15.0;35.3125;-24.9375
0.0;-0.0068359375;-0.4976806640625;-0.8455810546875;0.1932373046875;7.823575512403565;11.948788419038744;0.9538261645830253;0.39501953125;0.7177734375;0.2958984375;13.6875;39.0625;-13.6875
0.0;0.00115966796875;-0.49951171875;-0.84466552734375;0.192626953125;7.902008559254215;11.965625989413399;0.9714327961840477;0.27978515625;0.75;0.3974609375;37.0625;44.125;-15.3125
0.0;0.0072021484375;-0.49981689453125;-0.8443603515625;0.193115234375;7.9579980572110856;11.971119190434845;0.9904027092468091;0.1298828125;0.82958984375;0.48828125;20.0625;32.875;-21.5
0.0;0.013427734375;-0.501220703125;-0.8436279296875;0.19219970703125;8.021193683667352;11.984874014778672;1.0021404933364588;0.1708984375;0.7822265625;0.591796875;16.625;28.6875;-14.9375
0.0;0.02001953125;-0.50299072265625;-0.843017578125;0.18975830078125;8.095988304338437;12.001828339674855;1.0070322065407482;0.12451171875;0.7724609375;0.65576171875;27.9375;22.4375;-19.6875
0.0;0.02813720703125;-0.5015869140625;-0.84332275390625;0.1910400390625;8.171027871852724;11.998336364484025;1.036971466924054;0.1962890625;1.01171875;0.6005859375;18.6875;23.0;-30.4375
0.0;0.037353515625;-0.49951171875;-0.8436279296875;0.19366455078125;8.25052892003064;11.991591891555087;1.0770635119762217;0.18310546875;0.91748046875;0.52392578125;0.5625;45.4375;-19.6875
0.0;0.0435791015625;-0.49847412109375;-0.84368896484375;0.19451904296875;8.308549989911121;11.990335337162431;1.099322046646202;0.0078125;0.81884765625;0.55712890625;3.6875;49.5625;-7.3125
0.0;0.04327392578125;-0.490966796875;-0.84820556640625;0.194091796875;8.327122136276188;11.940940243162235;1.0990930764344493;-0.00146484375;0.93115234375;0.5458984375;1.9375;28.875;-5.9375
0.0;0.04901123046875;-0.489990234375;-0.84716796875;0.19976806640625;8.35280496199178;11.938872312204307;1.1444493302431076;0.12744140625;0.66357421875;0.5947265625;-37.9375;4.25;-10.25
0.0;0.06231689453125;-0.490478515625;-0.84423828125;0.20709228515625;8.438057111711299;11.95479965130157;1.2188920171739188;0.37451171875;0.88134765625;0.42724609375;-3.6875;55.1875;-3.1875
0.0;0.07000732421875;-0.484130859375;-0.84552001953125;0.214111328125;8.48980719186499;11.921560794825133;1.278306270695348;0.01513671875;1.06591796875;0.38427734375;8.5;83.25;8.375
0.0;0.07379150390625;-0.47174072265625;-0.8505859375;0.220458984375;8.527001480225163;11.845594434769446;1.3248212976202847;0.0654296875;1.03857421875;0.4208984375;-40.4375;63.75;11.4375
0.0;0.07904052734375;-0.46435546875;-0.852294921875;0.22747802734375;8.561099808045597;11.804462180108887;1.37744904881597;0.11181640625;0.66064453125;0.53125;-66.1875;50.375;6.1875
0.0;0.0869140625;-0.4619140625;-0.852783203125;0.227783203125;8.64343513141804;11.79975317586225;1.40068306310692;0.08740234375;0.587890625;0.54345703125;-28.5;53.6875;12.5
0.0;0.087646484375;-0.4696044921875;-0.84893798828125;0.22607421875;8.635828732695304;11.849838265677873;1.392311723922076;-0.28662109375;0.5224609375;0.630859375;13.0;28.0;-2.5
0.0;0.0872802734375;-0.4720458984375;-0.84747314453125;0.22674560546875;8.620833788287255;11.864713820015796;1.3942990610188475;0.0244140625;0.90771484375;0.431640625;40.25;-10.125;1.375
0.0;0.09033203125;-0.468017578125;-0.8489990234375;0.22821044921875;8.654729573743943;11.84320154557051;1.4110559664475832;0.2529296875;1.02880859375;0.46923828125;3.625;5.125;-2.875
0.0;0.09521484375;-0.46368408203125;-0.84954833984375;0.23284912109375;8.689553889114181;11.822438359628558;1.4494247274189909;0.103515625;0.79296875;0.4794921875;-22.8125;25.125;-7.875
0.0;0.1029052734375;-0.4666748046875;-0.84619140625;0.23577880859375;8.736870335738956;11.852774371987294;1.4854462158250483;0.16796875;0.5654296875;0.50634765625;-11.125;46.1875;-1.3125
0.0;0.110107421875;-0.47015380859375;-0.8438720703125;0.23394775390625;8.804302477752582;11.886247520601513;1.4955684250558685;0.02734375;0.7158203125;0.50146484375;34.5;42.4375;0.5625
0.0;0.1136474609375;-0.4683837890625;-0.8448486328125;0.23236083984375;8.85309608004359;11.880750360054444;1.4974036665015997;-0.087890625;0.93505859375;0.45654296875;25.875;22.1875;-15.6875
0.0;0.11981201171875;-0.46978759765625;-0.8436279296875;0.2308349609375;8.915585508830418;11.899830123897969;1.5068865080622145;0.03466796875;0.85595703125;0.53125;-6.3125;14.8125;-20.0
0.0;0.1226806640625;-0.46875;-0.84356689453125;0.231689453125;8.941388075262461;11.898028491263902;1.5195531541259095;-0.00537109375;0.9326171875;0.54736328125;17.4375;24.0625;-20.125
0.0;0.1234130859375;-0.46533203125;-0.84478759765625;0.233642578125;8.9488520261212;11.877711524818839;1.5319365003968821;0.01513671875;0.71484375;0.53125;3.0;17.6875;-4.6875
0.0;0.12646484375;-0.46697998046875;-0.84417724609375;0.23089599609375;8.987795398344035;11.893373565312999;1.5263439801927605;-0.02685546875;0.697265625;0.7001953125;-4.875;10.9375;5.4375
0.0;0.129638671875;-0.463134765625;-0.84637451171875;0.2288818359375;9.042623819444536;11.874550759182805;1.5249232254523544;0.04248046875;0.67236328125;0.5771484375;24.9375;7.0625;-21.8125
0.0;0.13189697265625;-0.462158203125;-0.8463134765625;0.22991943359375;9.061496918700627;11.872275275739549;1.5367314407259443;-0.09423828125;0.66845703125;0.55029296875;-11.5625;10.3125;-18.9375
0.0;0.12994384765625;-0.45318603515625;-0.85076904296875;0.23236083984375;9.060152357727528;11.81263025058056;1.5436755517646978;-0.015625;0.796875;0.51123046875;-2.25;14.875;-1.125
0.0;0.128173828125;-0.4521484375;-0.85137939453125;0.233154296875;9.042444288834687;11.803033381153677;1.5428213906790913;0.06787109375;0.61865234375;0.54931640625;-51.875;8.25;-0.125
0.0;0.12408447265625;-0.44873046875;-0.85357666015625;0.2337646484375;9.011668804095578;11.774719127146275;1.5346460101729644;-0.03076171875;0.8330078125;0.44287109375;-16.4375;-6.625;8.125
0.0;0.1234130859375;-0.44488525390625;-0.85516357421875;0.2357177734375;9.007689094848438;11.749560032282126;1.5430376772717636;0.08984375;0.97705078125;0.5400390625;-36.0;-11.875;2.6875
0.0;0.125244140625;-0.44549560546875;-0.85400390625;0.23785400390625;9.011413583677495;11.756495927502343;1.5593176316844706;0.05712890625;0.61767578125;0.55224609375;-18.5;8.125;3.0625
0.0;0.1246337890625;-0.44378662109375;-0.8538818359375;0.24163818359375;8.990680517155216;11.744901468162105;1.5776664054051568;-0.0439453125;0.84814453125;0.5517578125;4.625;12.625;10.25
0.0;0.12664794921875;-0.43914794921875;-0.8546142578125;0.2467041015625;8.998803151845241;11.719487215141292;1.6098928521875566;0.11083984375;0.8759765625;0.587890625;-13.1875;13.5;12.6875
0.0;0.12945556640625;-0.43402099609375;-0.8553466796875;0.2515869140625;9.017593428546865;11.69301496691077;1.6435112254138895;0.02392578125;0.7353515625;0.59814453125;-21.5;29.5625;13.8125
0.0;0.13250732421875;-0.42816162109375;-0.8565673828125;0.2557373046875;9.045889754697608;11.662752533813913;1.6738592097013667;-0.04248046875;0.65234375;0.6376953125;-17.1875;31.375;14.375
0.0;0.13629150390625;-0.42108154296875;-0.8580322265625;0.26068115234375;9.082211463179995;11.626609337748318;1.7102308853577046;-0.06103515625;0.76416015625;0.6767578125;-24.5;30.375;9.625
0.0;0.13604736328125;-0.41259765625;-0.860595703125;0.26593017578125;9.084330401616498;11.574651592513684;1.7374871949088369;-0.10302734375;0.783203125;0.64404296875;-34.375;36.125;12.125
0.0;0.13421630859375;-0.4085693359375;-0.860595703125;0.27294921875;9.045688387135165;11.5469044292264;1.7705917582173238;-0.0517578125;0.671875;0.5595703125;-50.75;20.5625;18.125
0.0;0.133544921875;-0.408935546875;-0.85845947265625;0.27935791015625;9.004623779472741;11.54787790873133;1.8036821849671048;0.189453125;0.59716796875;0.48779296875;-28.25;22.375;25.0625
0.0;0.13482666015625;-0.4134521484375;-0.854248046875;0.28497314453125;8.969665620997999;11.577638808823155;1.8375212961000411;0.22607421875;0.63134765625;0.4599609375;-2.125;22.6875;24.3125
0.0;0.1328125;-0.41571044921875;-0.85272216796875;0.28717041015625;8.929785330686219;11.587261771994532;1.8441664839568768;0.09814453125;0.78173828125;0.390625;17.0625;19.375;29.75
0.0;0.12408447265625;-0.41790771484375;-0.853271484375;0.28619384765625;8.842708375587161;11.583628124649218;1.8161029090776948;-0.099609375;0.72412109375;0.484375;5.125;-11.8125;26.125
0.0;0.11212158203125;-0.4300537109375;-0.850341796875;0.281982421875;8.702811083518803;11.63559055259107;1.7609743263355475;-0.14501953125;0.42919921875;0.646484375;12.4375;-56.625;25.3125
0.0;0.0992431640625;-0.4454345703125;-0.84527587890625;0.27813720703125;8.541148445056033;11.708434179026941;1.7040037088696562;0.03759765625;0.69921875;0.65869140625;56.8125;-87.3125;22.1875
0.0;0.08575439453125;-0.455322265625;-0.8431396484375;0.27288818359375;8.403645227806674;11.749318314531171;1.6381760872725897;0.19921875;0.849609375;0.685546875;73.375;-89.375;24.5
0.0;0.07318115234375;-0.4681396484375;-0.83905029296875;0.26739501953125;8.267201392306525;11.812659279455016;1.5715956549385535;0.08935546875;0.615234375;0.73388671875;52.125;-95.0625;17.75
0.0;0.0615234375;-0.48370361328125;-0.83148193359375;0.2664794921875;8.105634693243955;11.896319652015594;1.5291489681103458;0.12646484375;0.7490234375;0.71533203125;67.9375;-94.6875;18.5625
0.0;0.05316162109375;-0.49365234375;-0.8265380859375;0.26531982421875;7.997617824852421;11.950594228627969;1.4955485033410754;0.349609375;1.0341796875;0.5537109375;72.125;-72.0;35.4375
0.0;0.0438232421875;-0.50054931640625;-0.8231201171875;0.26470947265625;7.888121940751331;11.984875841426629;1.4630508698394356;0.146484375;0.984375;0.4853515625;42.4375;-57.5625;32.125
0.0;0.03521728515625;-0.50567626953125;-0.82025146484375;0.2652587890625;7.7850096667379685;12.008905592133514;1.4391783413141648;0.17919921875;0.84716796875;0.41845703125;23.75;-54.5625;31.4375
0.0;0.02691650390625;-0.50982666015625;-0.81744384765625;0.266845703125;7.681659026334382;12.02738382324317;1.4219646087048683;0.23779296875;0.865234375;0.4111328125;14.0625;-44.3125;31.5625
0.0;0.0172119140625;-0.515869140625;-0.8133544921875;0.26849365234375;7.558144429452864;12.05792914780647;1.399368088360476;0.1455078125;0.78369140625;0.37548828125;10.4375;-41.25;40.25
0.0;0.007568359375;-0.52532958984375;-0.8062744140625;0.27197265625;7.412584150180455;12.112073109978118;1.3828872992575671;0.1982421875;0.80517578125;0.40966796875;23.125;-49.9375;45.4375
0.0;-9.1552734375E-4;-0.531005859375;-0.80084228515625;0.2769775390625;7.280587908143965;12.141979311904915;1.3801794064285067;0.2978515625;0.8505859375;0.29296875;40.6875;-45.0;55.1875
0.0;-0.0087890625;-0.52874755859375;-0.80126953125;0.27984619140625;7.193947846022054;12.119227515112149;1.375587347885892;0.2607421875;0.83154296875;0.291015625;20.75;-30.75;59.0625
0.0;-0.016357421875;-0.52899169921875;-0.800537109375;0.2811279296875;7.111797451842741;12.11510708327599;1.361035037860364;0.1533203125;0.595703125;0.4443359375;-16.1875;-28.8125;40.375
0.0;-0.02099609375;-0.52978515625;-0.797119140625;0.2890625;7.013949511813374;12.1128728725609;1.3896906968211917;0.21240234375;0.765625;0.4970703125;-3.125;-35.9375;34.875
0.0;-0.02325439453125;-0.52386474609375;-0.79718017578125;0.29937744140625;6.946937149792083;12.063668103923739;1.4461187631178127;0.4345703125;1.1552734375;0.4072265625;-4.75;4.625;58.0625
0.0;-0.027099609375;-0.50726318359375;-0.804931640625;0.3067626953125;6.921751591872113;11.94138400096254;1.495945596412474;0.2607421875;0.9990234375;0.42822265625;-36.5625;28.4375;64.375
0.0;-0.03387451171875;-0.49334716796875;-0.81243896484375;0.3089599609375;6.890765299591589;11.839741817979176;1.5073558461680643;0.12890625;0.6796875;0.54736328125;-96.9375;25.1875;43.9375
0.0;-0.042236328125;-0.480712890625;-0.81756591796875;0.31427001953125;6.82108950159776;11.74364159685437;1.532040663452523;0.2373046875;0.28955078125;0.61865234375;-74.5;-6.3125;13.125
0.0;-0.02850341796875;-0.4896240234375;-0.8096923828125;0.3223876953125;6.878757881596109;11.808720043995159;1.6003755401051594;0.67138671875;0.29638671875;0.73779296875;-58.8125;5.0625;13.6875
0.0;-0.0172119140625;-0.48785400390625;-0.8082275390625;0.329345703125;6.956355426397762;11.802189149650005;1.6690705933735062;0.455078125;0.91064453125;0.14892578125;64.9375;81.5625;11.0625
0.0;-0.0145263671875;-0.47857666015625;-0.812744140625;0.33197021484375;7.004039792711071;11.741117134307483;1.7003805998699684;0.30517578125;1.05224609375;0.16943359375;-11.5625;81.8125;13.1875
0.0;-0.01226806640625;-0.470703125;-0.81719970703125;0.33233642578125;7.055372009220566;11.691313933866914;1.7159395689915249;0.55615234375;0.69775390625;0.31640625;-59.9375;51.125;-16.4375
0.0;-0.00244140625;-0.4698486328125;-0.8172607421875;0.33380126953125;7.148032782765893;11.695624169618583;1.7477217005810564;0.56982421875;0.330078125;0.41845703125;-35.1875;39.125;-35.0
0.0;0.0118408203125;-0.4781494140625;-0.8109130859375;0.337158203125;7.234929341828776;11.765011347893859;1.792607418006591;0.4052734375;0.32958984375;0.4599609375;26.25;57.1875;-34.25
0.0;0.0196533203125;-0.487060546875;-0.80364990234375;0.34149169921875;7.24799087668685;11.830479607837963;1.8277917015135703;0.244140625;0.8603515625;0.47119140625;76.375;59.1875;-5.75
0.0;0.01861572265625;-0.491943359375;-0.799072265625;0.34521484375;7.19475270175774;11.859030674058657;1.8417239391052644;0.2900390625;1.12939453125;0.54931640625;65.25;30.5625;21.0
0.0;0.01251220703125;-0.49725341796875;-0.79461669921875;0.34820556640625;7.09506892659615;11.884589246087197;1.8383276066558427;0.18212890625;0.9990234375;0.65234375;33.25;-11.4375;41.1875
0.0;0.0040283203125;-0.5048828125;-0.789794921875;0.348388671875;6.979363825632157;11.92553514656607;1.810308073811669;0.0576171875;0.76220703125;0.705078125;37.0;-43.625;54.4375
0.0;-0.005126953125;-0.51556396484375;-0.7822265625;0.3497314453125;6.836883255816421;11.98731809403619;1.7826990277305546;0.09130859375;0.716796875;0.708984375;46.5625;-67.125;47.625
0.0;-0.0096435546875;-0.52655029296875;-0.7745361328125;0.3504638671875;6.741945648031916;12.058141437142973;1.7617186837877226;0.3271484375;0.7744140625;0.5712890625;58.5625;-62.6875;49.625
0.0;-0.0091552734375;-0.53997802734375;-0.76708984375;0.34637451171875;6.7164235923423465;12.155896605011693;1.7229979302854888;0.13037109375;0.6953125;0.5537109375;72.75;-51.375;43.0625
0.0;-0.01129150390625;-0.54449462890625;-0.765869140625;0.34197998046875;6.706627095871606;12.189124312168797;1.6868137550850069;0.0576171875;0.763671875;0.45458984375;86.5;-48.4375;11.5
0.0;-0.010009765625;-0.543212890625;-0.76885986328125;0.33721923828125;6.755852258878116;12.184491823056025;1.6657670701268623;0.30517578125;0.87841796875;0.3310546875;13.375;-32.4375;-4.0625
0.0;-0.01025390625;-0.53875732421875;-0.77508544921875;0.330078125;6.818987109609945;12.157545846793376;1.631414972538428;0.14697265625;0.7626953125;0.43310546875;-9.75;-13.75;-18.75
0.0;-0.013671875;-0.53509521484375;-0.78118896484375;0.32147216796875;6.857055049193299;12.134668742442656;1.5793206028608062;0.05029296875;0.8154296875;0.57763671875;-30.25;-28.25;-23.875
0.0;-0.02069091796875;-0.53448486328125;-0.78326416015625;0.3170166015625;6.820694550499694;12.12810326964119;1.5364107799204962;0.2236328125;0.943359375;0.59033203125;-36.1875;-42.9375;-27.875
0.0;-0.0206298828125;-0.53240966796875;-0.78314208984375;0.32073974609375;6.804887510185047;12.111068121356318;1.5596268776502435;0.44677734375;1.02099609375;0.19580078125;-42.125;-35.4375;-1.6875
0.0;-0.02569580078125;-0.5238037109375;-0.787109375;0.3248291015625;6.762223494854843;12.044026245906046;1.579508564683218;0.40380859375;1.09521484375;0.01708984375;-40.8125;27.4375;22.625
0.0;-0.02716064453125;-0.52117919921875;-0.789306640625;0.32354736328125;6.765961531289;12.025587552682254;1.57187134211417;0.75439453125;0.685546875;0.14892578125;-72.9375;25.5;2.8125
0.0;-0.024169921875;-0.523681640625;-0.78826904296875;0.322265625;6.793765551719278;12.04623695870309;1.5695155103856628;0.7744140625;0.4287109375;0.185546875;-24.375;14.1875;-37.3125
0.0;-0.01910400390625;-0.52593994140625;-0.7861328125;0.32415771484375;6.822337629277968;12.064561488183925;1.5906764921312222;0.6806640625;0.58935546875;0.1904296875;11.875;21.375;-36.125
0.0;-0.01385498046875;-0.532470703125;-0.78009033203125;0.32830810546875;6.8208580761664965;12.1116330637013;1.619656067454146;0.59228515625;0.7060546875;0.27001953125;19.3125;35.9375;-18.625
0.0;-0.01898193359375;-0.5386962890625;-0.7757568359375;0.3282470703125;6.7476406743900075;12.151432314131174;1.5973768521769816;0.34375;0.935546875;0.35888671875;50.1875;24.125;17.9375
0.0;-0.03277587890625;-0.5455322265625;-0.77264404296875;0.3231201171875;6.62236994020543;12.19472268781925;1.521589923085045;0.06884765625;0.93359375;0.43408203125;28.875;-45.0;44.25
0.0;-0.04290771484375;-0.55450439453125;-0.76788330078125;0.31805419921875;6.5255589176018844;12.25825602322782;1.4518865694016818;0.2294921875;0.84228515625;0.48876953125;17.5;-97.625;35.4375
0.0;-0.0477294921875;-0.56256103515625;-0.76287841796875;0.31512451171875;6.469986052477412;12.318024278937344;1.4094980817430858;0.4013671875;0.8330078125;0.49169921875;41.0625;-82.1875;17.625
0.0;-0.05059814453125;-0.56640625;-0.759521484375;0.31585693359375;6.423627215243212;12.34527464568491;1.398820255006899;0.341796875;0.94482421875;0.45751953125;44.25;-51.4375;18.25
0.0;-0.05133056640625;-0.56890869140625;-0.756591796875;0.318359375;6.3904153110756905;12.361890659354062;1.4060944717364832;0.35107421875;0.93798828125;0.44677734375;25.4375;-23.125;25.625
0.0;-0.05120849609375;-0.569091796875;-0.75616455078125;0.31903076171875;6.3861900630791295;12.36286231200234;1.409807985297244;0.326171875;0.83154296875;0.39208984375;22.25;-4.8125;24.4375
0.0;-0.05145263671875;-0.566162109375;-0.758544921875;0.3184814453125;6.398036509716751;12.341325674451204;1.4108892418125396;0.236328125;0.83935546875;0.3798828125;4.0625;-3.75;15.375
0.0;-0.05169677734375;-0.56256103515625;-0.76104736328125;0.3189697265625;6.4053526875546085;12.313869725744665;1.4186202776346786;0.3486328125;0.85107421875;0.341796875;-22.125;1.375;1.0
0.0;-0.05126953125;-0.56170654296875;-0.76165771484375;0.319091796875;6.41170215709553;12.307550495700642;1.4219227902782434;0.36328125;0.72021484375;0.333984375;-23.1875;6.75;0.5
0.0;-0.0533447265625;-0.55767822265625;-0.76544189453125;0.3167724609375;6.421873362229225;12.278689934961612;1.4095983614122587;0.3017578125;0.82177734375;0.26806640625;-10.3125;3.375;6.0625
0.0;-0.05560302734375;-0.553955078125;-0.76947021484375;0.3131103515625;6.437792950564499;12.253247220159135;1.388909060722453;0.34130859375;0.7958984375;0.39697265625;-32.375;-11.0625;-4.375
0.0;-0.055419921875;-0.549072265625;-0.773681640625;0.3114013671875;6.468001360090277;12.218649488674664;1.3877252200156278;0.35498046875;1.0234375;0.31591796875;-43.8125;-13.625;-4.4375
0.0;-0.0589599609375;-0.5400390625;-0.780517578125;0.3094482421875;6.477140050425924;12.153103732403086;1.3808526055106307;0.2509765625;1.08984375;0.34326171875;-45.375;2.125;4.3125
0.0;-0.065185546875;-0.5338134765625;-0.78497314453125;0.30767822265625;6.4481671707643144;12.107378893274312;1.363266475811334;0.31787109375;0.7880859375;0.4013671875;-68.3125;-6.5625;-1.125
0.0;-0.0706787109375;-0.52789306640625;-0.78936767578125;0.30535888671875;6.428013484685379;12.064900270996683;1.3444435340860434;0.431640625;0.798828125;0.28857421875;-60.8125;-16.625;5.4375
0.0;-0.0714111328125;-0.52166748046875;-0.79425048828125;0.3033447265625;6.4539495233923425;12.02144180791943;1.3408266444065704;0.71533203125;0.8046875;0.2001953125;-64.1875;-4.1875;-14.6875
0.0;-0.06854248046875;-0.51800537109375;-0.7979736328125;0.3004150390625;6.512707825182384;11.998743954835733;1.3377523940892597;0.81640625;0.5810546875;0.1416015625;-55.25;24.3125;-40.5625
0.0;-0.06085205078125;-0.51300048828125;-0.8040771484375;0.29443359375;6.642762393488574;11.970923704398544;1.332173467217583;0.81103515625;0.48291015625;0.1181640625;-32.875;34.5;-57.5
0.0;-0.05157470703125;-0.5107421875;-0.80804443359375;0.2891845703125;6.774582035851366;11.963222763870974;1.330778246069058;0.59521484375;0.4404296875;0.2705078125;-29.5625;40.1875;-79.5
0.0;-0.04644775390625;-0.5126953125;-0.80718994140625;0.2889404296875;6.820786868136713;11.97953148797831;1.340527679336134;0.26953125;0.68359375;0.33642578125;-12.0625;32.5;-54.125
0.0;-0.0487060546875;-0.51397705078125;-0.80572509765625;0.290283203125;6.785916853855773;11.986476473067992;1.3402722183541853;0.30908203125;1.03466796875;0.43310546875;9.8125;18.5;-5.75
0.0;-0.05316162109375;-0.5146484375;-0.80670166015625;0.2857666015625;6.76747107996216;11.992253846703548;1.3026794000301605;0.306640625;1.0615234375;0.4755859375;-1.375;-11.8125;26.1875
0.0;-0.05999755859375;-0.5113525390625;-0.8126220703125;0.273193359375;6.785941940272637;11.975855719973984;1.219919401157681;-0.00146484375;0.810546875;0.58837890625;-1.875;-50.5625;12.125
0.0;-0.08001708984375;-0.51416015625;-0.8153076171875;0.25421142578125;6.6930747718825625;12.005323436693935;1.0583103170652264;-0.3583984375;0.46533203125;0.9609375;-10.1875;-98.625;-13.8125
0.0;-0.08917236328125;-0.5262451171875;-0.8079833984375;0.2496337890625;6.599474068135205;12.095077319510686;0.9903156576598503;0.04296875;0.28759765625;0.5458984375;-27.3125;-155.6875;-33.5
0.0;-0.07818603515625;-0.54901123046875;-0.79345703125;0.25091552734375;6.644921206306493;12.258384556296283;0.9959467714844088;0.72802734375;0.5771484375;0.4873046875;72.8125;-69.0625;-13.8125
0.0;-0.07073974609375;-0.5435791015625;-0.80047607421875;0.24273681640625;6.784695580545658;12.223615418632836;0.9831679484802125;0.47216796875;1.48486328125;0.01220703125;156.1875;18.0;-14.4375
0.0;-0.0758056640625;-0.52642822265625;-0.81390380859375;0.23406982421875;6.8296623420049505;12.106561736031939;0.9457251671515463;0.04345703125;1.37744140625;0.1982421875;-67.125;15.5625;-34.0625
0.0;-0.08367919921875;-0.5140380859375;-0.8228759765625;0.2274169921875;6.819263343748904;12.023637454505021;0.9042737712584504;0.0263671875;0.61279296875;0.56005859375;-127.9375;-24.4375;-31.875
0.0;-0.08819580078125;-0.51416015625;-0.8262939453125;0.21258544921875;6.863406205577602;12.034915130792935;0.8125037654249561;0.28955078125;0.27685546875;0.478515625;-80.0;-39.4375;-23.0
0.0;-0.0997314453125;-0.5130615234375;-0.83135986328125;0.189208984375;6.8904252636300685;12.045080935940296;0.6574414654382279;0.017578125;0.521484375;0.7001953125;0.5625;-81.125;-48.625
0.0;-0.10400390625;-0.51031494140625;-0.8353271484375;0.17620849609375;6.929372091803933;12.035755760368112;0.5804174683932063;0.486328125;0.96630859375;0.69091796875;-44.125;-120.125;-83.125
0.0;-0.104736328125;-0.50341796875;-0.84124755859375;0.16729736328125;6.984078928175986;11.9933811230244;0.5403343720811711;0.36181640625;1.16162109375;0.32421875;-55.6875;-49.5;-44.3125
0.0;-0.1151123046875;-0.49176025390625;-0.84832763671875;0.1590576171875;6.940689939869754;11.92230888058396;0.481651693000038;-0.06689453125;1.0458984375;0.310546875;-73.4375;-28.375;-12.875
0.0;-0.12322998046875;-0.486328125;-0.8521728515625;0.1490478515625;6.920911939207567;11.895501974492964;0.4125142360160414;0.697265625;0.75341796875;0.40966796875;-94.625;-44.9375;-30.5625
0.0;-0.1248779296875;-0.4832763671875;-0.85467529296875;0.14312744140625;6.940480522731697;11.879383523099706;0.3804229703488351;0.76025390625;0.6083984375;0.35595703125;-52.125;-42.6875;-53.0625
0.0;-0.1219482421875;-0.474365234375;-0.86004638671875;0.14312744140625;6.978577029609804;11.816574711093264;0.3996538652229001;0.74951171875;0.6923828125;0.18701171875;-41.375;1.5625;-48.8125
0.0;-0.114013671875;-0.4765625;-0.85992431640625;0.14312744140625;7.058047252363504;11.827647519034612;0.4190999582635533;0.75634765625;0.2421875;0.2978515625;-48.8125;45.375;-41.6875
0.0;-0.11334228515625;-0.4849853515625;-0.85577392578125;0.14031982421875;7.072726708318968;11.886698645919585;0.3964431964696811;0.375;0.4560546875;0.48486328125;27.6875;39.375;-33.1875
0.0;-0.123779296875;-0.4866943359375;-0.8536376953125;0.138671875;6.974093644087542;11.905259850223068;0.3559130847800071;0.06640625;0.94091796875;0.49658203125;45.9375;-23.1875;0.25
0.0;-0.13446044921875;-0.4893798828125;-0.85028076171875;0.13995361328125;6.855614829701194;11.930063382381675;0.3281408521614003;0.3623046875;0.8232421875;0.58349609375;8.6875;-60.3125;21.375
0.0;-0.14373779296875;-0.490478515625;-0.84814453125;0.13958740234375;6.762134570793001;11.945211336731816;0.2972515927269053;0.35693359375;0.72216796875;0.64111328125;26.125;-57.0625;35.5
0.0;-0.15277099609375;-0.48980712890625;-0.8466796875;0.141357421875;6.660093832381265;11.946831141792401;0.280456827264113;0.2646484375;0.69921875;0.64599609375;16.1875;-57.375;29.25
0.0;-0.158203125;-0.48980712890625;-0.84539794921875;0.1429443359375;6.595268147463045;11.95065479566805;0.2724106651967335;0.41357421875;0.734375;0.67724609375;8.0;-44.75;33.4375
0.0;-0.1600341796875;-0.4881591796875;-0.84637451171875;0.14093017578125;6.589307329050011;11.942214707534886;0.2586671749418956;0.29150390625;0.6728515625;0.63671875;13.375;-31.5;27.1875
0.0;-0.15997314453125;-0.4854736328125;-0.84869384765625;0.1361083984375;6.619299840150648;11.92701273493702;0.23729539258528676;0.25537109375;0.6484375;0.63134765625;-0.9375;-21.8125;0.75
0.0;-0.158935546875;-0.48065185546875;-0.85247802734375;0.13067626953125;6.663636816613421;11.896321844355128;0.21867818289094415;0.24267578125;0.671875;0.57666015625;-14.75;-17.25;-17.3125
0.0;-0.158447265625;-0.473388671875;-0.85784912109375;0.12225341796875;6.719638363028871;11.851657790838171;0.18576025840838634;0.2822265625;0.70947265625;0.59033203125;-30.4375;-9.625;-23.3125
0.0;-0.1544189453125;-0.471435546875;-0.8603515625;0.1171875;6.790218528926103;11.838216011569752;0.1733945369031193;0.29052734375;0.64990234375;0.54296875;-51.125;-14.9375;-38.0625
0.0;-0.1536865234375;-0.46661376953125;-0.86370849609375;0.113037109375;6.822723831258787;11.80721432340144;0.15997621174659146;0.21875;0.9404296875;0.4541015625;-26.9375;5.3125;-22.75
0.0;-0.1533203125;-0.4599609375;-0.86737060546875;0.11260986328125;6.8313222486555905;11.761577181949942;0.1675081850059178;0.23828125;0.8193359375;0.37158203125;-45.75;-2.375;-12.0
0.0;-0.15350341796875;-0.4542236328125;-0.87060546875;0.11077880859375;6.841514826781896;11.723847567562034;0.16471131015383514;0.42724609375;0.7265625;0.357421875;-50.6875;14.8125;-3.9375
0.0;-0.1495361328125;-0.45196533203125;-0.87274169921875;0.1083984375;6.896272414417833;11.707001127731084;0.16594328720269558;0.6728515625;0.59130859375;0.34228515625;-43.0625;17.3125;-26.125
0.0;-0.14404296875;-0.4547119140625;-0.87225341796875;0.1083984375;6.952287219470649;11.721212737672195;0.17778692091498532;0.57861328125;0.40966796875;0.365234375;-12.6875;30.0;-42.0625
0.0;-0.13726806640625;-0.45965576171875;-0.87054443359375;0.10986328125;7.012436295166867;11.74866826041427;0.1984289572588635;0.52685546875;0.4970703125;0.30859375;15.8125;37.75;-32.25
0.0;-0.13427734375;-0.4647216796875;-0.8681640625;0.11114501953125;7.03403118459976;11.779998064026536;0.20758446297245248;0.46826171875;0.67431640625;0.36083984375;28.375;42.3125;-22.375
0.0;-0.1380615234375;-0.46905517578125;-0.8651123046875;0.11212158203125;6.987693286712602;11.811665666021346;0.19686879100799637;0.29296875;0.7861328125;0.423828125;28.25;14.25;-1.4375
0.0;-0.14752197265625;-0.47418212890625;-0.860595703125;0.11346435546875;6.880893771939055;11.853585142112802;0.17026808118862452;0.2646484375;0.82958984375;0.53271484375;26.75;-24.875;19.0
0.0;-0.15875244140625;-0.47882080078125;-0.85589599609375;0.11419677734375;6.759916472889771;11.895757043522291;0.13468452390020036;0.359375;0.82568359375;0.62841796875;37.625;-53.125;32.1875
0.0;-0.16949462890625;-0.4818115234375;-0.8521728515625;0.1141357421875;6.649538940470064;11.92806608011421;0.09747122395358516;0.30615234375;0.74462890625;0.64453125;38.5;-67.1875;36.4375
0.0;-0.1763916015625;-0.48919677734375;-0.84613037109375;0.1171875;6.559927172025418;11.985965156812565;0.08094810288013951;0.32861328125;0.68798828125;0.66162109375;31.3125;-65.6875;30.25
0.0;-0.17889404296875;-0.49407958984375;-0.8421630859375;0.12115478515625;6.5100907120894105;12.02089528040245;0.0861964344515141;0.48779296875;0.83056640625;0.59716796875;57.25;-37.375;27.5625
0.0;-0.17962646484375;-0.49078369140625;-0.84344482421875;0.12457275390625;6.483259155715195;11.995520054904782;0.1070847084418435;0.42822265625;0.98583984375;0.48583984375;33.125;-9.5625;29.5625
0.0;-0.17803955078125;-0.48699951171875;-0.84527587890625;0.12939453125;6.472444147050512;11.962585914599345;0.14367982364804338;0.345703125;0.84375;0.52197265625;-14.75;5.25;27.0
0.0;-0.1771240234375;-0.4803466796875;-0.84844970703125;0.134521484375;6.45472900676969;11.909945032052057;0.1844745689881327;0.3603515625;0.71142578125;0.498046875;-13.25;22.625;23.1875
0.0;-0.17547607421875;-0.47894287109375;-0.847900390625;0.144775390625;6.413712321320231;11.8893299575884;0.24677958064472297;0.36376953125;0.64990234375;0.5126953125;-29.25;23.625;26.75
0.0;-0.17242431640625;-0.47705078125;-0.84857177734375;0.15081787109375;6.412121654206487;11.867323458679197;0.2916491747648296;0.486328125;0.7939453125;0.31298828125;-4.0625;43.4375;45.5625
0.0;-0.1719970703125;-0.4754638671875;-0.8497314453125;0.1497802734375;6.423520325621221;11.856546950459652;0.2898971460852412;0.24267578125;0.6796875;0.36083984375;-6.1875;30.75;30.3125
0.0;-0.17425537109375;-0.47113037109375;-0.852783203125;0.14337158203125;6.438993292205847;11.83378434711672;0.2555257371979551;0.2724609375;0.68505859375;0.39453125;-14.125;-0.6875;0.75
0.0;-0.175048828125;-0.47003173828125;-0.85406494140625;0.13818359375;6.460429856306738;11.831455295268084;0.22689096818521956;0.33984375;0.5693359375;0.57861328125;-27.1875;-27.6875;-24.1875
0.0;-0.170654296875;-0.4697265625;-0.8553466796875;0.1365966796875;6.514991350028432;11.826302247320706;0.23182713383089515;0.46728515625;0.890625;0.51416015625;-18.375;-14.9375;-20.875
0.0;-0.16766357421875;-0.4639892578125;-0.859375;0.13470458984375;6.559733973184391;11.784788089746826;0.23914048212320257;0.2958984375;0.916015625;0.4130859375;-13.5;17.0;-9.25
0.0;-0.16796875;-0.4600830078125;-0.8623046875;0.12908935546875;6.589477162219598;11.762545379264356;0.21380665766590853;0.287109375;0.72412109375;0.53173828125;-36.625;12.8125;-8.8125
0.0;-0.17303466796875;-0.44866943359375;-0.8685302734375;0.12054443359375;6.587734123592273;11.69569112706014;0.1699635005434922;0.42578125;0.83984375;0.46630859375;-38.5625;-8.375;-23.6875
0.0;-0.17230224609375;-0.43914794921875;-0.87432861328125;0.11456298828125;6.630474888943817;11.634717804899235;0.15335106106262;0.7646484375;0.6181640625;0.45947265625;-84.25;-17.8125;-44.875
0.0;-0.16326904296875;-0.4378662109375;-0.876953125;0.11260986328125;6.736049139368379;11.619408357266842;0.16933009387876893;0.8896484375;0.466796875;0.3466796875;-68.1875;25.1875;-58.75
0.0;-0.1533203125;-0.44219970703125;-0.876953125;0.109619140625;6.854218992489986;11.642856663014669;0.17451252372539638;0.703125;0.375;0.3369140625;-6.75;62.5;-58.9375
0.0;-0.1439208984375;-0.442626953125;-0.87847900390625;0.1083984375;6.958694218907923;11.639420356436005;0.1928372638476984;0.46484375;0.701171875;0.28466796875;12.75;50.6875;-50.3125
0.0;-0.13543701171875;-0.44293212890625;-0.8790283203125;0.11346435546875;7.020918340106469;11.632006596665379;0.2423063342814129;0.47607421875;0.75439453125;0.28759765625;-11.75;57.1875;-37.4375
0.0;-0.13262939453125;-0.4490966796875;-0.87493896484375;0.12359619140625;6.993575314946358;11.664540928920816;0.29681045369405573;0.38134765625;0.76123046875;0.44091796875;1.9375;60.6875;1.3125
0.0;-0.141357421875;-0.45709228515625;-0.867919921875;0.134033203125;6.841727672308966;11.716451185691788;0.31926453582645675;0.24462890625;0.82275390625;0.537109375;46.875;29.1875;48.5
0.0;-0.15802001953125;-0.46282958984375;-0.8612060546875;0.13873291015625;6.638723180212305;11.764729928269517;0.2902441725876882;0.140625;0.85791015625;0.62158203125;60.375;-38.875;88.4375
0.0;-0.1732177734375;-0.47003173828125;-0.8538818359375;0.141357421875;6.461573967078405;11.826910049950609;0.2494457041497448;0.20458984375;0.72119140625;0.72998046875;49.4375;-93.5;77.125
0.0;-0.18121337890625;-0.47735595703125;-0.847412109375;0.14599609375;6.348376501952245;11.88306549128017;0.23854120438886317;0.40576171875;0.67138671875;0.7294921875;60.3125;-88.0625;51.625
0.0;-0.18304443359375;-0.4793701171875;-0.84527587890625;0.1494140625;6.308665096395325;11.896457381213015;0.24798457441484847;0.3330078125;0.732421875;0.63916015625;60.75;-47.875;47.25
0.0;-0.181640625;-0.47955322265625;-0.8448486328125;0.1529541015625;6.302777464578241;11.892942873703511;0.2711325571272525;0.1875;0.72021484375;0.70166015625;31.25;-19.375;34.3125
0.0;-0.17694091796875;-0.4736328125;-0.8489990234375;0.15399169921875;6.349666374681596;11.84464595716549;0.3009984436605076;0.28955078125;0.767578125;0.6396484375;15.1875;4.9375;22.375
0.0;-0.17193603515625;-0.46893310546875;-0.85260009765625;0.1539306640625;6.405450546501558;11.806573589582419;0.32316524228908206;0.26953125;0.63720703125;0.5732421875;-26.6875;26.3125;0.625
0.0;-0.16961669921875;-0.461669921875;-0.8577880859375;0.149658203125;6.45876480116138;11.757137218389266;0.31821909033219054;0.251953125;0.65087890625;0.55029296875;-22.1875;24.0625;-5.6875
0.0;-0.17120361328125;-0.4586181640625;-0.86083984375;0.1392822265625;6.500898459295853;11.746588191400546;0.26193944311934575;0.34130859375;0.66796875;0.69384765625;-39.6875;2.75;-22.1875
0.0;-0.16754150390625;-0.45947265625;-0.86083984375;0.1409912109375;6.529348077889286;11.747651071192028;0.28038125507253714;0.5302734375;1.01416015625;0.455078125;-47.9375;-23.5;-43.875
0.0;-0.1666259765625;-0.447021484375;-0.86669921875;0.14605712890625;6.5205073094804575;11.655840190813146;0.32953346129344463;0.47021484375;1.248046875;0.22509765625;-25.5625;32.3125;10.1875
0.0;-0.16876220703125;-0.43707275390625;-0.870361328125;0.1519775390625;6.475060018578272;11.583104616496737;0.3716651188312907;0.349609375;0.7099609375;0.30126953125;-83.0625;38.125;32.9375
0.0;-0.1707763671875;-0.4368896484375;-0.87017822265625;0.1512451171875;6.457596257836159;11.584099027021844;0.36252670133675186;0.69384765625;0.302734375;0.4287109375;-45.875;30.625;15.875
0.0;-0.16949462890625;-0.43792724609375;-0.87066650390625;0.14666748046875;6.493969168883222;11.594725343671588;0.338974504716642;0.54833984375;0.49462890625;0.388671875;-2.9375;-2.1875;-10.625
0.0;-0.16265869140625;-0.441162109375;-0.8699951171875;0.14874267578125;6.552958574707974;11.609893841723258;0.36382836500647237;0.5283203125;0.80322265625;0.3466796875;-13.5625;4.9375;-30.125
0.0;-0.15533447265625;-0.43768310546875;-0.8714599609375;0.15789794921875;6.586263659420818;11.572782527551237;0.43875898494049537;0.603515625;0.7666015625;0.1572265625;3.3125;55.0;-17.5625
0.0;-0.15203857421875;-0.43658447265625;-0.87158203125;0.16339111328125;6.594168608954696;11.55832240700411;0.47926578029829026;0.72216796875;0.56201171875;0.26318359375;-16.0;85.375;9.1875
0.0;-0.14971923828125;-0.43963623046875;-0.87103271484375;0.16033935546875;6.631165648158135;11.580638872443135;0.4639688617115676;0.5732421875;0.46337890625;0.5322265625;10.0;39.0625;4.75
0.0;-0.14984130859375;-0.43701171875;-0.87152099609375;0.1646728515625;6.610460729812415;11.558862261946116;0.49137176673388083;0.41064453125;0.69677734375;0.5341796875;15.0;1.9375;-24.5625
0.0;-0.14990234375;-0.44219970703125;-0.86810302734375;0.1688232421875;6.5825235636108586;11.590585711156042;0.5066991743595378;0.45166015625;0.57763671875;0.74169921875;3.3125;10.0625;17.625
0.0;-0.15765380859375;-0.45257568359375;-0.86126708984375;0.16912841796875;6.487317580414115;11.666582533614191;0.4724018870449405;-0.0263671875;0.66259765625;0.80029296875;52.125;-21.75;39.875
0.0;-0.17669677734375;-0.46234130859375;-0.8526611328125;0.16748046875;6.286021344377085;11.751397434322614;0.39467751496432324;-0.0126953125;0.7744140625;0.78125;72.0;-77.8125;42.375
0.0;-0.1927490234375;-0.462646484375;-0.84930419921875;0.1658935546875;6.125647145804158;11.77097779714385;0.33875349143409367;0.03369140625;0.7744140625;0.69384765625;52.1875;-120.8125;46.5625
0.0;-0.20025634765625;-0.46405029296875;-0.84765625;0.16156005859375;6.069833653411927;11.794063111183616;0.28968336282433577;0.46826171875;0.81396484375;0.7294921875;2.0625;-94.4375;41.625
0.0;-0.2073974609375;-0.46014404296875;-0.8485107421875;0.1591796875;6.010436111287258;11.77701134378313;0.26228648810584965;0.03466796875;0.4599609375;0.76806640625;22.1875;-76.5625;13.0625
0.0;-0.20501708984375;-0.46875;-0.844482421875;0.1588134765625;6.032434719679437;11.836825024837777;0.2509676219626906;0.4375;0.341796875;0.5078125;-17.0;-39.125;1.0
0.0;-0.19140625;-0.48309326171875;-0.84039306640625;0.15435791015625;6.191354496600894;11.92859313028411;0.24220642340718487;0.6328125;0.6591796875;0.42138671875;53.5625;4.6875;-23.6875
0.0;-0.184814453125;-0.47027587890625;-0.85040283203125;0.14678955078125;6.310383900993119;11.835925865667868;0.24387842229244433;0.57080078125;1.3291015625;0.14306640625;52.1875;49.875;-57.0625
0.0;-0.17822265625;-0.46185302734375;-0.8553466796875;0.1529541015625;6.350425979930971;11.763397047712262;0.31118527898183834;0.271484375;0.77734375;0.5087890625;-92.125;26.4375;-38.8125
0.0;-0.17095947265625;-0.4647216796875;-0.85516357421875;0.15362548828125;6.420581152843326;11.776194492512149;0.3311444035981648;0.5751953125;0.84033203125;0.36328125;-53.8125;70.3125;13.5
0.0;-0.17327880859375;-0.46331787109375;-0.85601806640625;0.150634765625;6.413965271218472;11.77110589861773;0.31040752383333553;0.24072265625;1.0322265625;0.38818359375;4.875;31.5625;0.625
0.0;-0.1771240234375;-0.4534912109375;-0.8603515625;0.151123046875;6.378039781976913;11.705236645362818;0.31801728382434546;0.69140625;0.9697265625;0.17431640625;-40.125;2.25;-14.5
0.0;-0.17474365234375;-0.448974609375;-0.8624267578125;0.1553955078125;6.383700215863203;11.667397388785506;0.3555831633928668;0.95263671875;0.53369140625;0.345703125;-64.8125;19.1875;-13.6875
0.0;-0.1617431640625;-0.446044921875;-0.86572265625;0.15972900390625;6.500764793670932;11.63274367392164;0.41953403164035413;1.1298828125;0.287109375;0.36083984375;-14.125;60.1875;-30.5625
0.0;-0.142822265625;-0.4476318359375;-0.8671875;0.16510009765625;6.67029743988351;11.627564179730202;0.4967846817619012;0.6474609375;0.15576171875;0.287109375;1.3125;97.5;-40.375
0.0;-0.13153076171875;-0.4588623046875;-0.86187744140625;0.17138671875;6.74190004981862;11.693883297598124;0.5453477869103703;0.27294921875;0.5478515625;0.65380859375;29.3125;105.75;-24.3125
0.0;-0.13787841796875;-0.460205078125;-0.8592529296875;0.17608642578125;6.648630539993277;11.702010514127315;0.5522740282316906;-0.1396484375;1.11279296875;0.48193359375;67.9375;38.3125;35.5
0.0;-0.148681640625;-0.465576171875;-0.85418701171875;0.17767333984375;6.520233040327221;11.743795113368275;0.5238548241534122;0.15625;0.95654296875;0.6318359375;7.75;-34.3125;60.25
0.0;-0.16424560546875;-0.4703369140625;-0.84912109375;0.17584228515625;6.362236675766743;11.789571735059761;0.46281418204523184;0.0263671875;0.5908203125;0.69482421875;44.5625;-77.875;53.1875
0.0;-0.176513671875;-0.47637939453125;-0.8426513671875;0.1785888671875;6.212087203230423;11.840673921936364;0.4320161976091315;0.30322265625;0.6318359375;0.60400390625;28.3125;-98.5625;37.625
0.0;-0.18084716796875;-0.48480224609375;-0.8360595703125;0.18243408203125;6.136168323487169;11.902151948058416;0.424908666779855;0.482421875;0.646484375;0.6337890625;48.0625;-68.75;43.6875
0.0;-0.17950439453125;-0.49072265625;-0.8338623046875;0.17816162109375;6.169447587533306;11.947961709238907;0.3947645921150183;0.2822265625;0.595703125;0.64404296875;72.625;-38.0625;33.625
0.0;-0.1759033203125;-0.48590087890625;-0.8392333984375;0.16937255859375;6.262415888488703;11.917596303391983;0.36663866327557165;0.3115234375;0.85107421875;0.564453125;34.0;-23.0;-16.1875
0.0;-0.1737060546875;-0.47900390625;-0.84576416015625;0.15875244140625;6.352205363017607;11.87540074986211;0.32751116459021656;0.431640625;1.0537109375;0.68994140625;-41.5;-5.3125;-41.5
0.0;-0.17633056640625;-0.46856689453125;-0.8511962890625;0.15777587890625;6.3384112075531025;11.80460510614178;0.3318905431294365;0.33984375;1.09521484375;0.45458984375;-73.0625;-8.1875;-40.0625
0.0;-0.1790771484375;-0.4600830078125;-0.85455322265625;0.1614990234375;6.295901451057279;11.74340199232241;0.3586919495293683;0.40771484375;0.7138671875;0.3466796875;-75.9375;2.75;9.25
0.0;-0.1759033203125;-0.45709228515625;-0.8563232421875;0.1641845703125;6.317285214784895;11.716692867781711;0.38759786848378736;0.81787109375;0.6591796875;0.29931640625;-57.625;27.375;9.6875
0.0;-0.1693115234375;-0.4552001953125;-0.8585205078125;0.16473388671875;6.385409535716261;11.697454860360574;0.4121615900334611;0.8740234375;0.564453125;0.19580078125;-24.5;52.75;-20.375
0.0;-0.1630859375;-0.45458984375;-0.8597412109375;0.16650390625;6.442130713140161;11.686695318347416;0.4400525572228613;0.62841796875;0.43212890625;0.25830078125;-11.1875;53.1875;-33.125
0.0;-0.16107177734375;-0.4610595703125;-0.8558349609375;0.17059326171875;6.434340746200631;11.72676708841163;0.45788614185603804;0.42529296875;0.44189453125;0.47607421875;8.9375;38.375;-16.5
0.0;-0.170166015625;-0.4666748046875;-0.8509521484375;0.17108154296875;6.330592381494614;11.772886095526118;0.42586639885659433;0.1943359375;0.7255859375;0.51708984375;47.75;1.9375;24.375
0.0;-0.18341064453125;-0.47210693359375;-0.84588623046875;0.16729736328125;6.208011204222945;11.827811907420648;0.3570635094540816;0.1904296875;0.70703125;0.5322265625;34.375;-63.25;38.5625
0.0;-0.19293212890625;-0.47796630859375;-0.84149169921875;0.1622314453125;6.133190376957907;11.88555224080265;0.2897556108809476;0.31982421875;0.66748046875;0.5458984375;28.75;-92.0625;21.875
0.0;-0.1964111328125;-0.48956298828125;-0.8343505859375;0.16009521484375;6.102061666406827;11.976818646496456;0.24538149152299446;0.375;0.5341796875;0.64501953125;41.875;-79.375;-2.0625
0.0;-0.19403076171875;-0.49407958984375;-0.83270263671875;0.1580810546875;6.1361665133617045;12.008564288392567;0.23372584678257444;0.4189453125;0.8701171875;0.5537109375;71.9375;-47.5;0.3125
0.0;-0.19085693359375;-0.4898681640625;-0.83624267578125;0.15631103515625;6.181717151542036;11.975333846754395;0.24218918824793592;0.29638671875;1.048828125;0.56494140625;24.0625;-10.1875;-0.0625
0.0;-0.18841552734375;-0.48779296875;-0.837646484375;0.157958984375;6.19830593425179;11.955827577754965;0.2625976526348041;0.31298828125;0.73681640625;0.52880859375;-24.0625;10.125;-8.4375
0.0;-0.18670654296875;-0.4803466796875;-0.84271240234375;0.15594482421875;6.232471721735869;11.901670160665857;0.2703817761247432;0.38720703125;0.755859375;0.4599609375;-9.625;16.875;6.25
0.0;-0.18560791015625;-0.47686767578125;-0.84521484375;0.154541015625;6.2542462449369625;11.876590085990353;0.27227711444259844;0.4638671875;0.64013671875;0.57421875;-41.375;11.0625;-14.1875
0.0;-0.1817626953125;-0.4722900390625;-0.84814453125;0.15716552734375;6.282492596242507;11.837062768480132;0.3061684776299296;0.44580078125;0.923828125;0.408203125;-33.625;9.0;-1.8125
