1.0;0.34393310546875;-0.260986328125;-0.60882568359375;0.66552734375;9.409460919988783;11.551928793783748;4.852534647637193;0.01513671875;0.06640625;0.64697265625;-3.75;5.375;47.125
1.0;0.3499755859375;-0.2796630859375;-0.60382080078125;0.6593017578125;9.308869657927966;11.658398328179402;4.828797580383418;-0.0029296875;0.37939453125;0.60546875;92.0;-18.8125;35.5625
1.0;0.3525390625;-0.29913330078125;-0.60101318359375;0.6519775390625;9.193140380953;11.752643366866758;4.783248799901834;-0.04150390625;0.6611328125;0.529296875;108.5625;-49.3125;25.25
1.0;0.35687255859375;-0.3197021484375;-0.5985107421875;0.64202880859375;9.095507402987554;11.86264248331835;4.726976090928798;0.01953125;0.61767578125;0.4658203125;98.1875;-69.0;17.5
1.0;0.36175537109375;-0.3388671875;-0.596923828125;0.630859375;9.024784625707142;11.971440026102615;4.665396034651968;0.17431640625;0.693359375;0.404296875;110.625;-72.25;6.4375
1.0;0.36773681640625;-0.355712890625;-0.595703125;0.619140625;8.986542601926365;12.077290441416771;4.606517970892569;0.1220703125;0.77734375;0.40185546875;108.6875;-69.8125;-3.9375
1.0;0.37176513671875;-0.36993408203125;-0.59442138671875;0.60955810546875;8.948302947183482;12.163218871640082;4.55610762111816;0.0546875;0.8564453125;0.3564453125;104.3125;-60.4375;-13.375
1.0;0.37481689453125;-0.37945556640625;-0.59417724609375;0.60205078125;8.934177956108723;12.22321943071772;4.516960207488392;0.1357421875;0.91748046875;0.38623046875;81.0;-49.1875;-14.1875
1.0;0.380126953125;-0.383056640625;-0.59478759765625;0.59576416015625;8.975743693081924;12.266129809547051;4.496925165754629;0.1748046875;0.880859375;0.3994140625;58.25;-33.4375;-21.3125
1.0;0.38836669921875;-0.3812255859375;-0.59283447265625;0.5936279296875;9.045046161881332;12.29699606430914;4.518441624968078;0.04931640625;0.916015625;0.470703125;45.75;-7.8125;-30.4375
1.0;0.38983154296875;-0.3680419921875;-0.59649658203125;0.5972900390625;9.145610333153382;12.241571634802357;4.5500412629442835;-0.09716796875;1.232421875;0.37060546875;19.4375;31.25;-17.1875
1.0;0.3914794921875;-0.34991455078125;-0.60052490234375;0.60302734375;9.276110939364356;12.165666119897619;4.597043811907884;-0.15771484375;0.984375;0.349609375;-63.25;45.5;-23.875
1.0;0.3978271484375;-0.33099365234375;-0.60479736328125;0.6053466796875;9.461580983022746;12.11160789869605;4.641958788893466;-0.126953125;0.68505859375;0.43115234375;-72.0;68.25;-32.8125
1.0;0.40423583984375;-0.3109130859375;-0.61444091796875;0.60198974609375;9.703206264736314;12.054316371732648;4.648991983079136;-0.25537109375;0.7021484375;0.42333984375;-53.6875;76.5;-50.125
1.0;0.4129638671875;-0.29656982421875;-0.6209716796875;0.5965576171875;9.915112053703142;12.035498756707046;4.6534634045387;-0.51513671875;0.64404296875;0.50244140625;-49.0;50.4375;-77.0
1.0;0.42437744140625;-0.28765869140625;-0.62286376953125;0.5909423828125;10.087554107774706;12.055937659212914;4.671052603811386;-0.48828125;0.7294921875;0.4755859375;-15.5;44.4375;-69.1875
1.0;0.43603515625;-0.27886962890625;-0.6207275390625;0.5888671875;10.229187109295687;12.081769687937825;4.716655908583719;-0.41162109375;0.80615234375;0.349609375;11.75;47.8125;-52.625
1.0;0.441162109375;-0.265869140625;-0.61822509765625;0.59375;10.328197009804072;12.058188202452838;4.777920392602637;-0.2861328125;1.05322265625;0.189453125;-6.25;66.5625;-39.1875
1.0;0.4320068359375;-0.2481689453125;-0.620849609375;0.605224609375;10.36525819353683;11.939451975105712;4.812788139397399;-0.22802734375;1.38330078125;0.2255859375;-70.0625;72.375;-23.1875
1.0;0.419677734375;-0.23651123046875;-0.62164306640625;0.61767578125;10.32734055683202;11.829628899901051;4.8400910857387816;-0.21533203125;1.12890625;0.380859375;-131.1875;38.25;-0.6875
1.0;0.4217529296875;-0.23284912109375;-0.61767578125;0.62158203125;10.33882076525957;11.82900359521678;4.879518340421821;0.1748046875;0.455078125;0.55029296875;-112.875;16.0;25.875
1.0;0.4403076171875;-0.2432861328125;-0.60260009765625;0.6195068359375;10.325173217849883;11.975527938639123;4.95917869889484;-0.01416015625;0.19140625;0.46240234375;9.1875;42.0;13.9375
1.0;0.44195556640625;-0.24505615234375;-0.594482421875;0.62548828125;10.264474252497443;11.995306455373536;5.0109094621705035;-0.279296875;1.150390625;0.0908203125;93.5;53.9375;45.0625
1.0;0.4354248046875;-0.24493408203125;-0.59417724609375;0.63043212890625;10.203996799666394;11.95970925688951;5.012372670216297;-0.24755859375;1.1484375;0.279296875;-14.6875;23.5;48.6875
1.0;0.43927001953125;-0.25653076171875;-0.590087890625;0.62689208984375;10.134923884509124;12.026161004405756;5.005026010115726;-0.16943359375;0.314453125;0.5087890625;-17.3125;-12.4375;32.0625
1.0;0.44879150390625;-0.27410888671875;-0.58575439453125;0.61669921875;10.08175562071991;12.146841796055922;4.979072977636186;-0.0869140625;0.3388671875;0.47021484375;84.6875;-20.0;26.8125
1.0;0.45819091796875;-0.29266357421875;-0.58282470703125;0.6038818359375;10.04065037482852;12.272067237705587;4.936504299512361;-0.08447265625;0.7353515625;0.3798828125;125.625;-34.625;10.3125
1.0;0.46600341796875;-0.30902099609375;-0.58160400390625;0.5908203125;10.018981554330367;12.381181971381318;4.886761759277084;-0.041015625;0.8486328125;0.34912109375;132.3125;-45.5625;-1.875
1.0;0.47027587890625;-0.32098388671875;-0.58203125;0.58056640625;10.006261050485184;12.453833580834035;4.839537648559671;-0.263671875;1.00732421875;0.302734375;116.3125;-50.25;-8.6875
1.0;0.47503662109375;-0.33074951171875;-0.58074951171875;0.57244873046875;9.996673517748548;12.521494267420826;4.810936927486646;-0.236328125;0.93359375;0.33154296875;79.25;-47.1875;-7.1875
1.0;0.482421875;-0.3367919921875;-0.57904052734375;0.56439208984375;10.028360353192681;12.588917063944505;4.799135233472754;-0.12744140625;0.81005859375;0.31201171875;74.1875;-27.3125;-7.0
1.0;0.49237060546875;-0.3414306640625;-0.57647705078125;0.55560302734375;10.08522096637105;12.66564384041341;4.798713272511843;-0.18701171875;0.78515625;0.330078125;74.25;-6.0625;-16.3125
1.0;0.50445556640625;-0.34710693359375;-0.572265625;0.5455322265625;10.145737072666071;12.760706600362248;4.804875722764758;-0.1923828125;0.7275390625;0.2861328125;81.125;8.1875;-24.0
1.0;0.51580810546875;-0.354736328125;-0.5654296875;0.5369873046875;10.167361396155961;12.862362316606315;4.819133391955371;-0.21044921875;0.75439453125;0.228515625;96.0;13.5;-24.3125
1.0;0.52349853515625;-0.36175537109375;-0.5615234375;0.5289306640625;10.184282473142531;12.93982160307461;4.815721407442889;-0.14794921875;0.9794921875;0.2314453125;99.3125;17.125;-10.9375
1.0;0.52679443359375;-0.3634033203125;-0.5643310546875;0.521484375;10.24481955604885;12.966369924803725;4.7907290420388255;-0.12548828125;1.12353515625;0.20849609375;77.1875;0.0;-16.875
1.0;0.52911376953125;-0.36260986328125;-0.5689697265625;0.51458740234375;10.323328652097855;12.97593503032418;4.7639172514874755;-0.1923828125;0.94482421875;0.212890625;34.375;-17.6875;-35.8125
1.0;0.537109375;-0.36370849609375;-0.56842041015625;0.506103515625;10.403156703757276;13.029947773540588;4.7638909123587725;-0.20263671875;0.748046875;0.28173828125;25.0625;-16.6875;-41.75
1.0;0.54913330078125;-0.36737060546875;-0.56207275390625;0.49755859375;10.457986165488094;13.123032413219152;4.791258750340112;-0.19287109375;0.798828125;0.20849609375;59.0;8.4375;-40.125
1.0;0.5570068359375;-0.3677978515625;-0.558837890625;0.49212646484375;10.510220685269267;13.17601325951453;4.811786649722427;-0.19189453125;1.0986328125;0.03564453125;78.6875;29.125;-29.375
1.0;0.55950927734375;-0.36358642578125;-0.56195068359375;0.48883056640625;10.586500541116628;13.17317690751956;4.810413061592014;-0.20849609375;1.20361328125;0.00244140625;38.4375;21.25;-32.0
1.0;0.56121826171875;-0.35845947265625;-0.5657958984375;0.48626708984375;10.664521193956556;13.160979908536865;4.807971381925651;-0.20947265625;1.01123046875;0.10498046875;-3.25;3.3125;-43.25
1.0;0.5645751953125;-0.354736328125;-0.56768798828125;0.48291015625;10.736015920508114;13.166430598085391;4.812277713599212;-0.2548828125;0.8779296875;0.16943359375;-6.875;3.625;-39.5625
1.0;0.57086181640625;-0.3531494140625;-0.56787109375;0.47637939453125;10.81726672010656;13.20151205022676;4.8191448626710764;-0.20458984375;0.84326171875;0.2255859375;12.5625;11.375;-39.1875
1.0;0.57861328125;-0.35235595703125;-0.56634521484375;0.46929931640625;10.894676007602039;13.251179125808749;4.83436236877107;-0.28564453125;0.90869140625;0.16015625;37.0625;12.3125;-40.875
1.0;0.584228515625;-0.35028076171875;-0.565673828125;0.46478271484375;10.959362855800086;13.280879661819569;4.849530021160694;-0.42578125;1.01025390625;0.08154296875;44.625;17.5;-32.0
1.0;0.58941650390625;-0.348388671875;-0.56390380859375;0.4617919921875;11.005813147226187;13.309397289263993;4.87096826869792;-0.41162109375;0.9287109375;-0.01708984375;18.875;14.4375;-25.8125
1.0;0.595947265625;-0.3455810546875;-0.560791015625;0.45928955078125;11.054578085752096;13.344343038920435;4.905762403670381;-0.2568359375;0.8671875;-0.02490234375;15.8125;19.875;-25.5625
1.0;0.59722900390625;-0.34124755859375;-0.56085205078125;0.4608154296875;11.081773735222049;13.335106077688065;4.924576587480304;-0.43017578125;0.982421875;-0.07177734375;14.4375;30.875;-18.3125
1.0;0.5938720703125;-0.3336181640625;-0.5660400390625;0.46429443359375;11.125581731407106;13.278492998461715;4.92127971707985;-0.3701171875;1.0712890625;0.037109375;-17.4375;17.875;-15.0
1.0;0.5946044921875;-0.3294677734375;-0.568603515625;0.46331787109375;11.176886701008222;13.265715632640868;4.922129900440657;-0.35595703125;0.82275390625;0.208984375;-46.0625;1.8125;-20.0625
1.0;0.6007080078125;-0.330322265625;-0.5648193359375;0.45941162109375;11.202796917214739;13.314092836919468;4.946103123996978;-0.3515625;0.7060546875;0.248046875;-0.6875;7.4375;-21.0625
1.0;0.60577392578125;-0.33001708984375;-0.5614013671875;0.4571533203125;11.223553516012705;13.350490800698903;4.972142342453572;-0.30712890625;0.97119140625;0.1015625;41.875;24.625;-16.9375
1.0;0.60711669921875;-0.32537841796875;-0.56170654296875;0.458251953125;11.257195745800882;13.341543364468652;4.990105833686325;-0.29833984375;1.09033203125;-0.01513671875;21.875;23.375;-18.6875
1.0;0.60699462890625;-0.31903076171875;-0.5628662109375;0.46142578125;11.288687429645044;13.314813940031208;5.008802141421024;-0.3759765625;1.01318359375;0.01318359375;-18.75;16.25;-18.875
1.0;0.6075439453125;-0.31451416015625;-0.56390380859375;0.46258544921875;11.321688173475648;13.300511352925385;5.020911035384204;-0.3701171875;0.8369140625;0.04345703125;-34.4375;17.75;-13.625
1.0;0.60858154296875;-0.312255859375;-0.56439208984375;0.462158203125;11.347397441451852;13.299155692170071;5.0274301330490285;-0.3701171875;0.8203125;0.0732421875;-18.3125;12.5;-14.625
1.0;0.60833740234375;-0.3118896484375;-0.564697265625;0.46234130859375;11.34942587529685;13.295867014228396;5.026743785705769;-0.40380859375;0.9140625;0.05810546875;-4.25;6.625;-12.1875
1.0;0.60772705078125;-0.31182861328125;-0.56494140625;0.462890625;11.345176845412077;13.29103587417395;5.025072071461402;-0.359375;0.9248046875;0.05712890625;-3.75;-0.6875;-4.0
1.0;0.60595703125;-0.31060791015625;-0.56671142578125;0.46380615234375;11.349731382602487;13.272906665223031;5.017207582373576;-0.31396484375;0.8916015625;0.0263671875;-6.625;-2.3125;-2.75
1.0;0.6041259765625;-0.309814453125;-0.56927490234375;0.463623046875;11.36134360832504;13.255614225067932;5.002385892581164;-0.34765625;0.80029296875;0.103515625;-12.1875;-6.0;-3.0
1.0;0.60345458984375;-0.311767578125;-0.5697021484375;0.462646484375;11.352310568109276;13.258354236116313;4.991208548861161;-0.44580078125;0.80859375;0.1376953125;-7.125;-11.6875;-1.1875
1.0;0.60467529296875;-0.3173828125;-0.5670166015625;0.4605712890625;11.316422317576013;13.290199930263178;4.986937383455083;-0.42138671875;0.82568359375;0.11865234375;10.3125;-9.375;7.625
1.0;0.60205078125;-0.31951904296875;-0.5673828125;0.462158203125;11.28190638288352;13.279263359345615;4.974681280432091;-0.37939453125;1.015625;-0.0478515625;25.6875;-8.5;14.0
1.0;0.59893798828125;-0.3193359375;-0.570068359375;0.4630126953125;11.277631367907865;13.255326317891516;4.956006281899571;-0.3642578125;0.91552734375;-0.02734375;-12.625;-15.1875;14.6875
1.0;0.5986328125;-0.32135009765625;-0.56976318359375;0.46234130859375;11.264402552715593;13.261452640488159;4.9495181904295835;-0.4072265625;0.76220703125;0.06396484375;-16.8125;-17.875;6.1875
1.0;0.59796142578125;-0.32366943359375;-0.5694580078125;0.46197509765625;11.245542480921916;13.266069256328123;4.941710408956967;-0.3935546875;0.86572265625;0.0390625;6.625;-7.6875;8.125
1.0;0.59698486328125;-0.3260498046875;-0.569091796875;0.46197509765625;11.222408422292087;13.268922546787453;4.933797956371074;-0.365234375;0.875;0.02392578125;4.125;-9.1875;9.0
1.0;0.595458984375;-0.3272705078125;-0.569580078125;0.4625244140625;11.205964262425951;13.262733594837906;4.924938135414066;-0.34326171875;0.9140625;-0.0107421875;0.625;-10.3125;8.875
1.0;0.59326171875;-0.32855224609375;-0.56951904296875;0.4644775390625;11.174882499527497;13.252372345131834;4.919115398022194;-0.40673828125;0.8896484375;0.001953125;-7.5;-11.3125;10.375
1.0;0.5921630859375;-0.33111572265625;-0.56854248046875;0.4652099609375;11.142477183676945;13.255447243245834;4.914453631395119;-0.34326171875;0.8466796875;0.0537109375;-9.75;-7.0625;15.25
1.0;0.59130859375;-0.33392333984375;-0.5675048828125;0.465576171875;11.11135253367056;13.261189730742839;4.909348133673714;-0.302734375;0.82373046875;0.0361328125;2.8125;-6.5625;14.0625
1.0;0.590087890625;-0.335205078125;-0.5660400390625;0.468017578125;11.074811019817147;13.258081879671229;4.913405930440139;-0.326171875;0.9111328125;0.00146484375;2.5;-7.75;13.625
1.0;0.5869140625;-0.33270263671875;-0.5665283203125;0.47320556640625;11.049468192366376;13.225196030456322;4.9197048354188535;-0.3291015625;0.9541015625;-0.0390625;-12.4375;-0.6875;16.4375
1.0;0.58343505859375;-0.3302001953125;-0.5673828125;0.47821044921875;11.025743671755265;13.190439579210544;4.923315120877074;-0.35400390625;0.93701171875;0.03857421875;-38.4375;3.5;13.0625
1.0;0.58099365234375;-0.32867431640625;-0.56646728515625;0.48321533203125;10.991340729730062;13.167727047579127;4.934775889460739;-0.31787109375;0.84033203125;0.076171875;-37.0;1.5625;12.5625
1.0;0.58087158203125;-0.32867431640625;-0.5616455078125;0.48895263671875;10.933489096223214;13.16806959552111;4.96663363817758;-0.34716796875;0.833984375;0.12939453125;-24.5625;9.25;20.9375
1.0;0.57843017578125;-0.3243408203125;-0.56097412109375;0.4954833984375;10.912111933876195;13.13388054122807;4.988097699015071;-0.27978515625;0.85205078125;-0.00439453125;-17.3125;24.1875;30.75
1.0;0.5751953125;-0.31585693359375;-0.563720703125;0.5015869140625;10.936861070665891;13.077108821273969;5.003313034500779;-0.2822265625;0.783203125;-0.05908203125;-51.75;15.0625;13.8125
1.0;0.57281494140625;-0.310791015625;-0.56439208984375;0.5067138671875;10.936703662154965;13.040755300762362;5.018275144285672;-0.38037109375;0.73095703125;0.1103515625;-61.5;14.6875;-2.5
1.0;0.56915283203125;-0.30755615234375;-0.5643310546875;0.5128173828125;10.90836657169346;13.003618326437394;5.03005710292652;-0.3173828125;0.869140625;0.12353515625;-42.4375;13.5;2.8125
1.0;0.56451416015625;-0.3038330078125;-0.56634521484375;0.5179443359375;10.894626936477442;12.95755720065558;5.029676381186153;-0.23828125;1.0107421875;0.1669921875;-41.6875;9.5;8.0625
1.0;0.5611572265625;-0.3031005859375;-0.5672607421875;0.52105712890625;10.870904935317565;12.93217508417972;5.025393802675525;-0.302734375;0.85546875;0.2607421875;-39.9375;0.8125;7.0
1.0;0.56072998046875;-0.30419921875;-0.56549072265625;0.522705078125;10.84318392965479;12.934509942121972;5.03250348107811;-0.294921875;0.8037109375;0.3056640625;-14.5625;-3.375;11.875
1.0;0.561767578125;-0.30401611328125;-0.56298828125;0.5244140625;10.828141460518596;12.9414418620866;5.050115533029371;-0.2568359375;0.83984375;0.2255859375;3.9375;5.5625;13.125
1.0;0.5614013671875;-0.30426025390625;-0.56072998046875;0.527099609375;10.798926993848553;12.940713521524227;5.063913550185862;-0.29443359375;0.87158203125;0.2177734375;4.375;15.875;10.5625
1.0;0.5606689453125;-0.30316162109375;-0.55950927734375;0.52978515625;10.782941952093214;12.932130882213693;5.075846102525612;-0.2314453125;0.9462890625;0.2109375;-3.5;11.5;11.375
1.0;0.5601806640625;-0.30059814453125;-0.55963134765625;0.5316162109375;10.790228027714253;12.919059444997657;5.084722454090928;-0.27294921875;0.82763671875;0.18359375;-11.25;9.875;10.0
1.0;0.56011962890625;-0.29962158203125;-0.5587158203125;0.533203125;10.784147283157921;12.915210057492601;5.0944477049166075;-0.376953125;0.75439453125;0.22509765625;-11.375;8.8125;6.6875
1.0;0.56170654296875;-0.29998779296875;-0.5576171875;0.532470703125;10.787699840547658;12.927399038300214;5.100746620098505;-0.26171875;0.751953125;0.275390625;1.0;10.9375;5.75
1.0;0.562255859375;-0.30157470703125;-0.55712890625;0.53155517578125;10.78113502662599;12.937128838912066;5.098129657253585;-0.314453125;0.82470703125;0.23974609375;15.1875;7.0625;2.25
1.0;0.56365966796875;-0.303466796875;-0.55560302734375;0.530517578125;10.77202018741667;12.954310769516418;5.101037647041;-0.26123046875;0.8525390625;0.236328125;14.75;-1.3125;1.25
1.0;0.56707763671875;-0.3065185546875;-0.553466796875;0.52734375;10.772519510902452;12.989336904712804;5.104176667942625;-0.19091796875;0.76806640625;0.234375;22.0;4.1875;1.25
1.0;0.57086181640625;-0.30975341796875;-0.55157470703125;0.5233154296875;10.779255532094957;13.02767835870508;5.104948445202664;-0.20849609375;0.75732421875;0.15869140625;35.5625;3.875;-2.3125
1.0;0.573486328125;-0.31134033203125;-0.55059814453125;0.52056884765625;10.790154038429584;13.051601659120967;5.1059955417442655;-0.2421875;0.869140625;0.083984375;33.8125;0.625;-5.9375
1.0;0.575439453125;-0.31146240234375;-0.55120849609375;0.5177001953125;10.81732294387207;13.065025501039717;5.102364654103848;-0.21630859375;0.88818359375;0.109375;21.6875;2.0;-10.0625
1.0;0.5771484375;-0.3116455078125;-0.5521240234375;0.51470947265625;10.845165717915549;13.077032828636023;5.096422320445804;-0.27734375;0.91552734375;0.12255859375;13.0625;-1.625;-15.6875
1.0;0.58184814453125;-0.31488037109375;-0.5504150390625;0.50921630859375;10.865360769367097;13.12226399535312;5.096170528037627;-0.3017578125;0.84716796875;0.16259765625;16.5625;-2.9375;-13.625
1.0;0.5865478515625;-0.31878662109375;-0.5477294921875;0.5042724609375;10.872588050442438;13.170651041130784;5.0993758975218295;-0.31298828125;0.880859375;0.09912109375;43.9375;0.8125;-9.25
1.0;0.590087890625;-0.32159423828125;-0.54541015625;0.50091552734375;10.875317166710047;13.20674868706223;5.104169497491939;-0.28759765625;0.9814453125;0.07080078125;44.75;2.625;-6.375
1.0;0.59466552734375;-0.324462890625;-0.54217529296875;0.49713134765625;10.87975714190898;13.250961391194156;5.114594606450988;-0.24072265625;0.875;0.09130859375;34.375;5.25;-4.8125
1.0;0.59881591796875;-0.3271484375;-0.5389404296875;0.49383544921875;10.880556168730008;13.291822530423879;5.125304980544258;-0.22802734375;0.873046875;0.0546875;39.4375;10.1875;-5.875
1.0;0.6024169921875;-0.32940673828125;-0.53594970703125;0.49127197265625;10.878828472279215;13.326881637831661;5.136149834714658;-0.22119140625;0.9462890625;0.06494140625;37.1875;10.5;-6.4375
1.0;0.60595703125;-0.33331298828125;-0.5313720703125;0.48919677734375;10.853485563629194;13.368849488481318;5.149289988309743;-0.2802734375;0.97119140625;0.09912109375;34.375;11.125;-1.75
1.0;0.60858154296875;-0.336181640625;-0.5264892578125;0.4892578125;10.81724880440454;13.399947763617071;5.168007338638864;-0.26416015625;0.984375;0.04833984375;37.8125;12.3125;8.6875
1.0;0.60955810546875;-0.337646484375;-0.52362060546875;0.49017333984375;10.789895420877462;13.413038117441621;5.179636936082978;-0.255859375;0.96435546875;0.01708984375;24.125;16.5625;14.875
1.0;0.6075439453125;-0.33758544921875;-0.52288818359375;0.493408203125;10.759214406648413;13.39842144531902;5.183260760478042;-0.28466796875;0.90771484375;-0.03955078125;5.0625;8.875;13.3125
1.0;0.60406494140625;-0.3394775390625;-0.52301025390625;0.496337890625;10.71493942645096;13.380790578547696;5.173113368933118;-0.30078125;0.98388671875;0.0244140625;-16.4375;2.875;14.625
1.0;0.60235595703125;-0.3438720703125;-0.52081298828125;0.49755859375;10.65748436747522;13.387184023825244;5.166340356543591;-0.31494140625;0.88134765625;0.072265625;-12.25;-9.875;24.4375
1.0;0.597900390625;-0.3487548828125;-0.5191650390625;0.5013427734375;10.573144289245576;13.37566471678152;5.153494467952075;-0.32080078125;0.8408203125;0.0234375;7.5625;-8.125;33.3125
1.0;0.58856201171875;-0.348876953125;-0.5208740234375;0.51043701171875;10.489094469371397;13.310924993832918;5.139462741847331;-0.21240234375;1.04541015625;0.07470703125;-6.125;-13.25;36.0
1.0;0.583740234375;-0.34844970703125;-0.52392578125;0.51318359375;10.471607406241398;13.275598756560884;5.121510588730493;-0.1376953125;0.7158203125;0.10107421875;-57.3125;-14.625;37.25
1.0;0.581298828125;-0.352783203125;-0.5218505859375;0.5150146484375;10.40838529797813;13.27764197765795;5.114248842763322;-0.45361328125;0.70947265625;0.140625;-25.1875;-17.625;25.8125
1.0;0.57940673828125;-0.35595703125;-0.52020263671875;0.5167236328125;10.358853187191876;13.278159473201903;5.109949890032362;-0.26123046875;0.99755859375;0.03955078125;1.5;-10.5;31.5
1.0;0.57598876953125;-0.3572998046875;-0.51995849609375;0.51983642578125;10.315008696611459;13.260956868800163;5.104544203953853;-0.2587890625;1.05078125;-0.0615234375;-8.375;-8.5;24.6875
1.0;0.5712890625;-0.35882568359375;-0.52044677734375;0.52349853515625;10.264750575235837;13.236016065016406;5.093775469667038;-0.291015625;0.9443359375;4.8828125E-4;-21.3125;-8.625;25.9375
1.0;0.56683349609375;-0.36126708984375;-0.520751953125;0.5262451171875;10.213077891562271;13.217334853698144;5.079890253156277;-0.2158203125;0.935546875;0.07421875;-23.375;-12.875;24.6875
1.0;0.5606689453125;-0.36260986328125;-0.522216796875;0.530517578125;10.158612519298062;13.182569952707782;5.063955457147466;-0.2314453125;1.0146484375;0.09619140625;-16.0;-16.0;25.125
1.0;0.55584716796875;-0.36370849609375;-0.52264404296875;0.534423828125;10.108519835319063;13.156121852492912;5.05559894968854;-0.17822265625;0.9296875;0.1162109375;-30.8125;-18.1875;24.25
1.0;0.551025390625;-0.36431884765625;-0.52337646484375;0.5382080078125;10.064005124445625;13.128062724358479;5.0474081153388966;-0.16455078125;0.86669921875;0.14453125;-22.0;-10.5;23.5625
1.0;0.5465087890625;-0.36932373046875;-0.52239990234375;0.5404052734375;9.989373226642334;13.12124192304694;5.030563088256698;-0.2705078125;0.8447265625;0.169921875;-22.25;-11.0;28.625
1.0;0.54150390625;-0.37451171875;-0.5223388671875;0.54193115234375;9.919388880374303;13.11272986413434;5.007072019376964;-0.10595703125;0.86181640625;0.1435546875;-2.1875;-20.375;31.8125
1.0;0.534423828125;-0.3770751953125;-0.523681640625;0.54583740234375;9.851660526382465;13.080240768181868;4.986445309767341;-0.1162109375;0.96875;0.0888671875;-7.375;-27.625;28.5625
1.0;0.527587890625;-0.3795166015625;-0.5252685546875;0.54925537109375;9.789462743045078;13.049240241698167;4.965067671134371;-0.09912109375;0.94091796875;0.10888671875;-31.6875;-25.125;27.8125
1.0;0.52227783203125;-0.3809814453125;-0.52593994140625;0.55267333984375;9.736901688282202;13.023657851333752;4.953868924234384;-0.10546875;0.80517578125;0.09912109375;-29.75;-25.75;26.9375
1.0;0.51788330078125;-0.378662109375;-0.52825927734375;0.55621337890625;9.723371585858931;12.98658315574922;4.949828134964553;-0.0751953125;0.87109375;0.1005859375;-27.1875;-15.25;21.125
1.0;0.512939453125;-0.37744140625;-0.53082275390625;0.55914306640625;9.703493456042727;12.951541880737263;4.939069890821739;-0.248046875;0.82080078125;0.13232421875;-37.875;-6.9375;16.125
1.0;0.5089111328125;-0.37896728515625;-0.531982421875;0.56072998046875;9.668803923195396;12.934417400021976;4.924939221770082;-0.22021484375;0.8515625;0.22607421875;-29.4375;-13.4375;15.25
1.0;0.50494384765625;-0.378662109375;-0.53271484375;0.563720703125;9.637710238272824;12.910004356466526;4.921200065890846;-0.1181640625;0.89501953125;0.126953125;-19.125;-17.8125;15.0625
1.0;0.50152587890625;-0.3775634765625;-0.53399658203125;0.56640625;9.619497152435404;12.88473791154248;4.918253546296091;-0.0537109375;0.943359375;0.123046875;-29.0625;-6.5;10.9375
1.0;0.498779296875;-0.3756103515625;-0.53509521484375;0.56903076171875;9.610336923612337;12.86009104759396;4.919748658175417;-0.0712890625;0.849609375;0.13671875;-28.375;-4.9375;6.5
1.0;0.49700927734375;-0.373046875;-0.536865234375;0.570556640625;9.61983999567061;12.83829978476782;4.919837872269866;0.029296875;0.857421875;0.15869140625;-27.1875;2.0625;-3.6875
1.0;0.4970703125;-0.37152099609375;-0.5374755859375;0.57098388671875;9.631879052189289;12.831618574135724;4.922904186784036;-0.11279296875;0.8955078125;0.2099609375;-22.0;0.9375;-3.625
1.0;0.4970703125;-0.36859130859375;-0.5380859375;0.57232666015625;9.648944207410759;12.81847905889579;4.931920498816796;-0.0703125;0.93701171875;0.1865234375;-9.3125;4.875;-7.75
1.0;0.49505615234375;-0.36376953125;-0.53985595703125;0.57537841796875;9.66565629295226;12.785645476068552;4.941245754786429;-0.06396484375;1.0400390625;0.2177734375;-16.5;11.3125;-10.1875
1.0;0.49261474609375;-0.3580322265625;-0.54205322265625;0.57904052734375;9.685866171926719;12.746130322127845;4.951866202452988;-0.0556640625;0.99072265625;0.30517578125;-30.5;12.3125;-10.1875
1.0;0.4920654296875;-0.3515625;-0.5438232421875;0.58184814453125;9.724308803678285;12.714636648803218;4.967982094086742;-0.0439453125;0.884765625;0.33154296875;-34.5;14.75;-11.875
1.0;0.49267578125;-0.345458984375;-0.54510498046875;0.58380126953125;9.768672716472585;12.691811116727557;4.985266383535344;-0.09912109375;0.80615234375;0.310546875;-27.875;21.25;-14.375
1.0;0.49468994140625;-0.34112548828125;-0.5450439453125;0.58465576171875;9.806962504268034;12.685215621060236;5.003454686737459;-0.16455078125;0.8203125;0.34033203125;-18.0625;22.4375;-13.5625
1.0;0.498291015625;-0.33905029296875;-0.54364013671875;0.5841064453125;9.837798241199286;12.697628505967593;5.021137971650717;-0.18603515625;0.86767578125;0.3271484375;-4.3125;22.5625;-9.5
1.0;0.4998779296875;-0.3380126953125;-0.54266357421875;0.58428955078125;9.848411777936557;12.702638682672882;5.0317563482658905;-0.201171875;0.9501953125;0.23974609375;7.75;19.3125;-6.5
1.0;0.49957275390625;-0.3359375;-0.54217529296875;0.586181640625;9.850366714041666;12.692368160646373;5.0431094948509685;-0.15234375;0.9853515625;0.21484375;-1.125;10.875;-2.125
1.0;0.50115966796875;-0.3343505859375;-0.5419921875;0.58587646484375;9.87126650085882;12.69514370221706;5.050788846091964;-0.078125;0.89453125;0.23779296875;-13.5;11.9375;-1.8125
1.0;0.50262451171875;-0.33245849609375;-0.54180908203125;0.58587646484375;9.89225229140437;12.695911297311808;5.059760700587997;-0.13720703125;0.91748046875;0.2099609375;-1.9375;9.875;-8.875
1.0;0.50341796875;-0.32867431640625;-0.5416259765625;0.58746337890625;9.915881906070636;12.685160727057127;5.076022587695974;-0.12353515625;0.96630859375;0.24951171875;-2.75;11.625;-9.75
1.0;0.50482177734375;-0.32275390625;-0.5419921875;0.58929443359375;9.960288090198226;12.669053191834454;5.097567766047667;-0.11328125;0.93017578125;0.228515625;-16.0625;19.25;-9.625
1.0;0.5050048828125;-0.3157958984375;-0.543212890625;0.59173583984375;10.007381806721854;12.642044408766225;5.116876910589868;-0.18017578125;0.8857421875;0.2099609375;-23.375;25.4375;-13.8125
1.0;0.50506591796875;-0.31048583984375;-0.54400634765625;0.59381103515625;10.041459643920646;12.621042511943935;5.132385282334327;-0.24560546875;0.8671875;0.2451171875;-31.9375;23.0625;-11.5
1.0;0.50482177734375;-0.30511474609375;-0.544677734375;0.5960693359375;10.073154418846716;12.59863059555445;5.148136901125239;-0.154296875;0.845703125;0.26806640625;-23.5625;19.75;-12.25
1.0;0.50439453125;-0.2998046875;-0.54583740234375;0.59808349609375;10.107127864511119;12.575106773105386;5.160626739093167;-0.15966796875;0.890625;0.2783203125;-26.1875;19.875;-11.625
1.0;0.5045166015625;-0.29559326171875;-0.54669189453125;0.59930419921875;10.138142835967015;12.55934368698349;5.1708287969916675;-0.1982421875;0.8173828125;0.2958984375;-24.5625;16.5625;-10.5
1.0;0.505615234375;-0.29266357421875;-0.54693603515625;0.599609375;10.166078107097439;12.554538462682244;5.180316524023413;-0.1640625;0.82275390625;0.3134765625;-15.625;15.125;-12.25
1.0;0.50653076171875;-0.28985595703125;-0.54718017578125;0.60003662109375;10.19155971874718;12.549088383573284;5.189371960469623;-0.16845703125;0.84912109375;0.2734375;-7.75;13.5;-11.4375
1.0;0.50762939453125;-0.2884521484375;-0.547119140625;0.59979248046875;10.209002304545612;12.550444021894688;5.194996954552752;-0.216796875;0.86083984375;0.30224609375;-7.125;11.875;-7.625
1.0;0.50933837890625;-0.287841796875;-0.54705810546875;0.5986328125;10.227892223055738;12.558483885716475;5.197868046086114;-0.22412109375;0.8095703125;0.287109375;0.875;7.3125;-3.9375
1.0;0.51068115234375;-0.28656005859375;-0.5477294921875;0.59759521484375;10.252865398639363;12.561204235325576;5.198852339226772;-0.1943359375;0.82470703125;0.271484375;6.625;5.375;-7.5
1.0;0.510986328125;-0.2835693359375;-0.5494384765625;0.59716796875;10.287540348242045;12.551280953848286;5.198729907346037;-0.22265625;0.8623046875;0.271484375;1.1875;4.25;-10.1875
1.0;0.5101318359375;-0.28045654296875;-0.5517578125;0.59716796875;10.317897365349385;12.533856411533165;5.194591609021497;-0.26708984375;0.89697265625;0.30224609375;-10.125;4.3125;-13.375
1.0;0.51007080078125;-0.27862548828125;-0.5533447265625;0.5966796875;10.34139456473984;12.525920752204872;5.191046964887606;-0.25732421875;0.82568359375;0.345703125;-13.1875;0.75;-12.25
1.0;0.5106201171875;-0.27764892578125;-0.554931640625;0.59521484375;10.366147249582285;12.524911183223242;5.184472374964042;-0.24462890625;0.83154296875;0.35400390625;-3.25;0.75;-9.9375
1.0;0.51171875;-0.27874755859375;-0.555908203125;0.5927734375;10.379661160525352;12.535347160090456;5.174389862219128;-0.30029296875;0.8603515625;0.36181640625;4.1875;-2.8125;-8.75
1.0;0.51239013671875;-0.2813720703125;-0.55645751953125;0.5904541015625;10.376695452964798;12.548896875657887;5.161741764334517;-0.3115234375;0.88720703125;0.34814453125;15.3125;-8.125;-4.5
1.0;0.511962890625;-0.2845458984375;-0.55706787109375;0.58868408203125;10.361482530720096;12.558106354325973;5.146206325230994;-0.28271484375;0.90576171875;0.32373046875;17.125;-13.1875;0.5
1.0;0.51104736328125;-0.2890625;-0.55804443359375;0.58642578125;10.337589920911473;12.569178817276136;5.123546739946281;-0.25;0.87060546875;0.30615234375;13.6875;-17.1875;3.9375
1.0;0.51177978515625;-0.29583740234375;-0.55853271484375;0.58184814453125;10.314635758946437;12.599486102199775;5.095596470845496;-0.24853515625;0.7998046875;0.3583984375;21.8125;-24.1875;7.4375
1.0;0.5111083984375;-0.3028564453125;-0.559326171875;0.578125;10.280118207966517;12.622287311067815;5.06443466541851;-0.20166015625;0.8623046875;0.2900390625;37.625;-29.1875;1.4375
1.0;0.50897216796875;-0.30908203125;-0.561279296875;0.57476806640625;10.247743243106154;12.633574506366681;5.02773840120329;-0.17919921875;0.91748046875;0.29150390625;29.625;-33.3125;4.6875
1.0;0.50616455078125;-0.315185546875;-0.564208984375;0.571044921875;10.219277847999308;12.64045695577953;4.9848145781024025;-0.21435546875;0.84765625;0.291015625;21.125;-38.75;5.9375
1.0;0.50360107421875;-0.32330322265625;-0.56707763671875;0.56597900390625;10.184040115382704;12.657325759886774;4.934392026458081;-0.22216796875;0.82421875;0.3271484375;20.625;-44.25;3.5
1.0;0.49945068359375;-0.32891845703125;-0.5703125;0.5631103515625;10.14933126881853;12.655483695593453;4.8903185568267284;-0.1826171875;0.9453125;0.26318359375;25.875;-52.0;0.6875
1.0;0.493896484375;-0.3304443359375;-0.57501220703125;0.56231689453125;10.132480854918375;12.62845802211973;4.8523816350557825;-0.14697265625;0.9931640625;0.20849609375;1.125;-46.4375;-0.1875
1.0;0.4892578125;-0.3306884765625;-0.5771484375;0.5640869140625;10.10502816325264;12.602234405260972;4.836769025758585;-0.21533203125;0.98095703125;0.31689453125;-19.1875;-38.25;-2.5
1.0;0.48541259765625;-0.3302001953125;-0.578369140625;0.56646728515625;10.080051081762132;12.57795786734282;4.830177277404334;-0.1943359375;0.9091796875;0.27099609375;-24.75;-19.375;8.9375
1.0;0.48358154296875;-0.33056640625;-0.5806884765625;0.5654296875;10.082382447858812;12.568495672803596;4.812954131334426;-0.12109375;0.72412109375;0.2294921875;-23.8125;-9.6875;8.375
1.0;0.48583984375;-0.33673095703125;-0.57781982421875;0.562744140625;10.051376909864427;12.608254939209763;4.807870159166044;-0.271484375;0.67138671875;0.28076171875;-2.625;-18.0;2.375
1.0;0.48577880859375;-0.341552734375;-0.57708740234375;0.5606689453125;10.023432288890797;12.62862159209726;4.793488852301798;-0.20751953125;0.99609375;0.17626953125;30.9375;-11.75;13.75
1.0;0.48516845703125;-0.3455810546875;-0.5770263671875;0.55877685546875;10.00032247195765;12.642551644196523;4.777469779756673;-0.09375;0.93505859375;0.15234375;13.6875;-17.875;3.625
1.0;0.48516845703125;-0.34954833984375;-0.5770263671875;0.55633544921875;9.984426259459669;12.659671148619967;4.761320553476277;-0.1826171875;0.86669921875;0.154296875;9.25;-20.1875;7.75
1.0;0.4833984375;-0.35205078125;-0.576904296875;0.556396484375;9.955463850755711;12.66073782649957;4.751590132737853;-0.2294921875;0.91845703125;0.15234375;11.75;-20.5;7.0625
1.0;0.48358154296875;-0.35333251953125;-0.5753173828125;0.5570068359375;9.937049945503796;12.667903056088122;4.756663994479775;-0.140625;0.8701171875;0.12890625;-6.1875;-14.75;10.375
1.0;0.4866943359375;-0.35205078125;-0.5728759765625;0.55767822265625;9.949539765367438;12.680282001244553;4.778551135480515;-0.1181640625;0.78271484375;0.17333984375;2.1875;1.75;9.0625
1.0;0.48822021484375;-0.346435546875;-0.57275390625;0.55999755859375;9.986052648601254;12.664555773889461;4.8026465106439336;-0.1865234375;0.85302734375;0.10302734375;-1.125;20.0625;2.5625
1.0;0.49444580078125;-0.34271240234375;-0.57159423828125;0.5579833984375;10.05323232717581;12.684390754994462;4.826041382202687;-0.11279296875;0.75341796875;0.22412109375;-20.0;28.5625;-12.25
1.0;0.49896240234375;-0.3370361328125;-0.57269287109375;0.55621337890625;10.133789292626616;12.686127380807292;4.842012324909115;-0.23193359375;0.8671875;0.197265625;12.0625;29.3125;-21.625
1.0;0.49725341796875;-0.3302001953125;-0.57666015625;0.55780029296875;10.183692405640928;12.646207845783332;4.842801219333199;-0.275390625;1.03662109375;0.18212890625;-9.375;23.6875;-30.3125
1.0;0.497802734375;-0.3267822265625;-0.5791015625;0.55682373046875;10.227683371615777;12.634259568361234;4.8400534133982624;-0.2431640625;0.88330078125;0.3095703125;-37.625;7.4375;-20.4375
1.0;0.4984130859375;-0.32330322265625;-0.5802001953125;0.55712890625;10.259881934606945;12.623062908500996;4.846215166114423;-0.1826171875;0.841796875;0.2900390625;-9.4375;4.625;-22.5
1.0;0.49700927734375;-0.31878662109375;-0.58221435546875;0.55889892578125;10.284981687542533;12.59559628257279;4.849917973388315;-0.20703125;0.9443359375;0.2705078125;-14.3125;10.4375;-14.4375
1.0;0.49755859375;-0.31591796875;-0.58221435546875;0.55999755859375;10.3035726082211;12.587106433201727;4.860854086940286;-0.2041015625;0.88525390625;0.35693359375;-23.9375;8.5;-11.6875
1.0;0.50042724609375;-0.3128662109375;-0.5799560546875;0.56146240234375;10.32469695842588;12.592224013679525;4.888044593529272;-0.16015625;0.90087890625;0.35107421875;-7.5625;15.0625;-9.4375
1.0;0.50018310546875;-0.30804443359375;-0.57965087890625;0.564697265625;10.341310743318749;12.571369348372793;4.908356816525511;-0.20654296875;0.94189453125;0.26171875;-4.125;28.25;-3.5
1.0;0.50067138671875;-0.30364990234375;-0.5809326171875;0.56536865234375;10.379003312284347;12.556032825463728;4.916289061869277;-0.17041015625;0.86328125;0.3486328125;-21.875;23.3125;-4.5625
1.0;0.50152587890625;-0.30059814453125;-0.58135986328125;0.56573486328125;10.40657453686062;12.548858534641974;4.924638593385126;-0.28564453125;0.79345703125;0.34423828125;-12.5;12.75;-10.5
1.0;0.50323486328125;-0.30126953125;-0.5814208984375;0.56390380859375;10.420530042232297;12.561239351868972;4.9223792467543035;-0.2958984375;0.78564453125;0.38525390625;-1.8125;12.125;-4.6875
1.0;0.5045166015625;-0.30389404296875;-0.5811767578125;0.5615234375;10.419059898244939;12.57943830302465;4.914347192913877;-0.306640625;0.86865234375;0.33984375;15.75;-0.8125;-2.625
1.0;0.50689697265625;-0.307373046875;-0.57928466796875;0.5594482421875;10.408508665708393;12.608036694807518;4.914597520032293;-0.294921875;0.853515625;0.318359375;22.375;-8.25;2.5
1.0;0.50994873046875;-0.310302734375;-0.57684326171875;0.55755615234375;10.402292388601527;12.638764901086287;4.920470968284251;-0.23974609375;0.9111328125;0.27880859375;27.5625;-2.0;5.375
1.0;0.5135498046875;-0.31329345703125;-0.5733642578125;0.55621337890625;10.390924779500363;12.673323340792882;4.9331518584457115;-0.244140625;0.8720703125;0.26318359375;28.9375;4.25;5.6875
1.0;0.515625;-0.31787109375;-0.57061767578125;0.55450439453125;10.364643793963218;12.705166914025902;4.93413008494742;-0.2666015625;0.92431640625;0.275390625;31.3125;9.375;10.625
1.0;0.51519775390625;-0.323486328125;-0.57061767578125;0.55169677734375;10.335704452941085;12.725365507184065;4.912299624382776;-0.29931640625;0.87353515625;0.2001953125;28.5;-4.9375;18.0
1.0;0.5167236328125;-0.33135986328125;-0.56964111328125;0.5465087890625;10.309225836629407;12.76741177392141;4.887629563172208;-0.2333984375;0.80859375;0.26904296875;28.0625;-24.375;10.4375
1.0;0.51806640625;-0.3404541015625;-0.56781005859375;0.54156494140625;10.268378070285213;12.813972577160662;4.863235600634551;-0.271484375;0.89111328125;0.23193359375;47.75;-27.625;10.25
1.0;0.51910400390625;-0.34844970703125;-0.5672607421875;0.5360107421875;10.243862694001825;12.854395125299911;4.833950901209082;-0.181640625;0.90087890625;0.1923828125;50.0;-28.125;12.375
1.0;0.51904296875;-0.357666015625;-0.5660400390625;0.53125;10.19809631364976;12.894240807131784;4.803117663291096;-0.27392578125;0.8662109375;0.2333984375;49.3125;-31.4375;10.4375
1.0;0.518798828125;-0.36737060546875;-0.56341552734375;0.5277099609375;10.135356462057583;12.935940451843159;4.778695909295326;-0.232421875;0.869140625;0.197265625;46.9375;-34.875;18.875
1.0;0.51971435546875;-0.375;-0.560546875;0.5244140625;10.091469362177936;12.976291476096254;4.763769769902464;-0.13232421875;0.919921875;0.15234375;44.625;-29.25;21.8125
1.0;0.51861572265625;-0.3792724609375;-0.55902099609375;0.5240478515625;10.050557335893748;12.989363996644474;4.754524244184911;-0.13134765625;1.00048828125;0.1337890625;39.75;-18.375;14.5
1.0;0.51458740234375;-0.38043212890625;-0.559814453125;0.5263671875;10.01168273757705;12.970480704731603;4.7439904473968255;-0.0927734375;1.07275390625;0.1533203125;11.9375;-12.0;10.8125
1.0;0.5096435546875;-0.38153076171875;-0.56109619140625;0.52899169921875;9.96873098499204;12.946217020680763;4.7303547141506055;-0.0888671875;0.93701171875;0.189453125;-16.1875;-12.6875;11.75
1.0;0.506103515625;-0.38238525390625;-0.5628662109375;0.5299072265625;9.946720940825863;12.929112300356929;4.714853222968272;-0.095703125;0.939453125;0.23876953125;-18.1875;-15.4375;13.75
1.0;0.50567626953125;-0.38531494140625;-0.56207275390625;0.529052734375;9.925043586138798;12.94018233653354;4.70687513530183;-0.10107421875;0.79248046875;0.306640625;-4.5;-15.125;5.625
1.0;0.50469970703125;-0.3865966796875;-0.5625;0.528564453125;9.915524979040782;12.94043038923842;4.6981775291771335;-0.10205078125;0.89111328125;0.18310546875;12.8125;-9.125;6.0
1.0;0.50506591796875;-0.3892822265625;-0.56243896484375;0.5263671875;9.91094903741154;12.954848553732626;4.686614484871316;-0.119140625;0.771484375;0.234375;7.3125;-8.5;2.375
1.0;0.5067138671875;-0.3936767578125;-0.56219482421875;0.52178955078125;9.914306764617173;12.98486846219732;4.668320145226086;-0.15673828125;0.84326171875;0.17138671875;16.625;-11.875;1.4375
1.0;0.510009765625;-0.4014892578125;-0.5587158203125;0.51629638671875;9.89354514990429;13.041538361029932;4.6546830815756;-0.20556640625;0.83154296875;0.1826171875;35.125;-17.8125;-0.4375
1.0;0.51177978515625;-0.409912109375;-0.55517578125;0.51165771484375;9.855692838590205;13.092834311027579;4.637563536389905;-0.109375;0.85009765625;0.0234375;51.0;-16.3125;6.1875
1.0;0.51641845703125;-0.41375732421875;-0.5537109375;0.5054931640625;9.883501534511245;13.1388614889767;4.6288263465679425;-0.00146484375;0.9931640625;0.0517578125;47.5;-18.8125;5.875
1.0;0.515380859375;-0.4156494140625;-0.55450439453125;0.504150390625;9.876942851684372;13.141782848049525;4.614657298313076;-0.3974609375;0.984375;-0.04296875;35.9375;-10.625;1.8125
1.0;0.513916015625;-0.42010498046875;-0.55389404296875;0.5025634765625;9.84563629080438;13.15516325750135;4.596736743746211;-0.09033203125;0.80419921875;0.22021484375;13.0;-12.75;-0.8125
1.0;0.51324462890625;-0.42535400390625;-0.552978515625;0.49981689453125;9.818881103761024;13.177292893675038;4.57678650448356;0.09765625;0.83349609375;0.15869140625;20.3125;-17.1875;-2.125
1.0;0.512451171875;-0.430419921875;-0.55218505859375;0.4971923828125;9.792843143928383;13.197922497583178;4.556803353723323;0.1591796875;0.908203125;0.07763671875;23.0;-18.9375;-9.1875
1.0;0.511474609375;-0.43548583984375;-0.5513916015625;0.49462890625;9.765716136298538;13.217882912507116;4.536376158168174;0.19580078125;0.89892578125;0.11865234375;25.25;-18.625;-11.375
1.0;0.51043701171875;-0.4384765625;-0.55169677734375;0.49273681640625;9.753375148042108;13.226927509554322;4.5193749671533086;0.23974609375;0.88525390625;0.16552734375;28.0625;-18.1875;-13.5
1.0;0.51361083984375;-0.43658447265625;-0.5540771484375;0.488525390625;9.819752698137778;13.235511203601902;4.514024313249732;0.177734375;0.8681640625;0.275390625;24.8125;-13.5;-15.5625
1.0;0.521240234375;-0.43450927734375;-0.55548095703125;0.4805908203125;9.929008669728969;13.270324312447249;4.515389392957174;-0.30419921875;0.8388671875;0.19287109375;17.125;-2.4375;-21.1875
1.0;0.5223388671875;-0.4381103515625;-0.55352783203125;0.478271484375;9.91604828800704;13.295644457666734;4.509425169587577;-0.623046875;0.947265625;-0.1240234375;20.625;1.1875;-21.875
1.0;0.5213623046875;-0.43768310546875;-0.5557861328125;0.47723388671875;9.930974736483975;13.287120689314268;4.497405102593538;0.16015625;1.083984375;-0.013671875;20.0625;-5.6875;-17.3125
1.0;0.52813720703125;-0.437744140625;-0.55572509765625;0.46978759765625;10.011885380627229;13.32827025633121;4.497610976362297;-0.06982421875;0.85498046875;0.369140625;14.375;-7.375;-13.0625
1.0;0.5303955078125;-0.439453125;-0.555419921875;0.4659423828125;10.034990018300466;13.350964904654493;4.490714409902827;-0.5419921875;1.04296875;-0.25537109375;19.125;-2.75;-15.9375
1.0;0.53216552734375;-0.440185546875;-0.55615234375;0.46234130859375;10.06548964583405;13.36556652246801;4.482192036746935;-0.17529296875;1.00830078125;-0.0439453125;17.25;-7.3125;-12.5625
1.0;0.53314208984375;-0.44012451171875;-0.55755615234375;0.45947265625;10.095718923897449;13.371458090964033;4.4730857200149305;-0.205078125;0.96923828125;0.0078125;13.625;-8.125;-14.0
1.0;0.5338134765625;-0.43994140625;-0.560302734375;0.45556640625;10.138216405757133;13.37437472973181;4.456192885154849;-0.193359375;0.9443359375;0.0205078125;6.0625;-8.6875;-14.9375
1.0;0.53375244140625;-0.43988037109375;-0.56353759765625;0.45159912109375;10.178851409135108;13.373726356084676;4.4349143161373235;-0.23486328125;0.904296875;0.013671875;4.1875;-16.125;-18.1875
1.0;0.5330810546875;-0.43914794921875;-0.5667724609375;0.44915771484375;10.210933941369985;13.365325427183743;4.417468870142424;-0.283203125;0.919921875;0.033203125;3.1875;-20.3125;-15.0625
1.0;0.5302734375;-0.43798828125;-0.5709228515625;0.4483642578125;10.228252389318078;13.341716057679536;4.395701171726169;-0.27001953125;0.9794921875;-0.0185546875;-9.3125;-17.5625;-12.8125
1.0;0.52947998046875;-0.43646240234375;-0.5743408203125;0.44635009765625;10.262599809841332;13.32888728112503;4.3802097474316914;-0.16552734375;1.04052734375;0.0087890625;-22.1875;-21.375;-14.0
1.0;0.53125;-0.43670654296875;-0.57391357421875;0.44464111328125;10.279262672467718;13.340864222278476;4.381999271495579;-0.2373046875;0.85009765625;0.03857421875;-10.5625;-14.5;-14.875
1.0;0.53363037109375;-0.43487548828125;-0.572998046875;0.44476318359375;10.298528548996181;13.34627753665194;4.397469800120941;-0.1826171875;0.95849609375;-0.0078125;7.3125;1.5625;-10.4375
1.0;0.534912109375;-0.4307861328125;-0.57342529296875;0.44659423828125;10.322041623964534;13.333471465577583;4.415186321799811;-0.22119140625;0.98193359375;-0.005859375;-1.875;14.5625;-9.25
1.0;0.53424072265625;-0.42547607421875;-0.57525634765625;0.45013427734375;10.339198149013955;13.302246140981067;4.429563144648368;-0.26123046875;0.9443359375;-0.01171875;-21.625;16.5625;-8.375
1.0;0.5341796875;-0.42034912109375;-0.5770263671875;0.4527587890625;10.36411471529576;13.275995399131233;4.443058105931758;-0.201171875;0.8828125;0.041015625;-35.875;14.4375;-8.25
1.0;0.53533935546875;-0.41546630859375;-0.5780029296875;0.45465087890625;10.394983836729976;13.25886020630623;4.460432013912971;-0.1943359375;0.85546875;0.064453125;-29.4375;13.6875;-12.5
1.0;0.53668212890625;-0.40997314453125;-0.57855224609375;0.45733642578125;10.424151102635197;13.24021446824184;4.483399794666902;-0.220703125;0.88134765625;0.0478515625;-23.1875;17.5;-13.9375
1.0;0.53790283203125;-0.403564453125;-0.5792236328125;0.46075439453125;10.45511549599648;13.21661471139437;4.509677699533471;-0.22314453125;0.92578125;0.04833984375;-26.6875;23.0;-13.625
1.0;0.5386962890625;-0.39739990234375;-0.5794677734375;0.46484375;10.476534254940944;13.192053081765543;4.537223526299119;-0.2333984375;0.8818359375;0.06787109375;-31.6875;26.5625;-12.5
1.0;0.53814697265625;-0.392333984375;-0.57958984375;0.4696044921875;10.479315886566143;13.164632296082917;4.560095810949036;-0.1962890625;0.8974609375;0.0947265625;-31.625;27.6875;-11.0625
1.0;0.5380859375;-0.386962890625;-0.579345703125;0.474365234375;10.48546193181318;13.139253878379161;4.586494688338866;-0.11767578125;0.88427734375;0.134765625;-31.125;23.75;-6.5625
1.0;0.5384521484375;-0.38250732421875;-0.57928466796875;0.47772216796875;10.497286062961823;13.120668607694162;4.607569455530985;-0.2177734375;0.89990234375;0.1455078125;-30.0;26.4375;-1.5625
1.0;0.538818359375;-0.37860107421875;-0.57958984375;0.47998046875;10.513848719967562;13.105087486328745;4.623036133655138;-0.248046875;0.85498046875;0.12109375;-23.625;20.6875;-2.1875
1.0;0.5394287109375;-0.3753662109375;-0.5802001953125;0.4810791015625;10.535531790671271;13.094035696909616;4.633410803455304;-0.2919921875;0.86279296875;0.15673828125;-17.1875;15.9375;-2.4375
1.0;0.54071044921875;-0.373291015625;-0.5794677734375;0.482177734375;10.54659344783119;13.0926992260709;4.6478975364383075;-0.31689453125;0.8486328125;0.16796875;-10.5625;11.75;-3.9375
1.0;0.54132080078125;-0.3699951171875;-0.5792236328125;0.484375;10.558377593261556;13.08157646446103;4.664406073948262;-0.26025390625;0.880859375;0.1142578125;-6.1875;14.3125;-2.5625
1.0;0.54248046875;-0.3656005859375;-0.57904052734375;0.48663330078125;10.580690665293389;13.069207009695344;4.685149921895496;-0.24072265625;0.90380859375;0.123046875;-16.1875;16.3125;-4.6875
1.0;0.5438232421875;-0.360595703125;-0.57904052734375;0.48876953125;10.609954673627248;13.055681467097607;4.706888674730737;-0.2578125;0.88623046875;0.13623046875;-17.9375;21.4375;-7.8125
1.0;0.54534912109375;-0.3560791015625;-0.57904052734375;0.49041748046875;10.639782264906556;13.045377946841754;4.726699451015574;-0.287109375;0.88818359375;0.18115234375;-16.75;23.375;-9.5
1.0;0.5467529296875;-0.35198974609375;-0.5791015625;0.49176025390625;10.668174971720706;13.036378162496385;4.744062392565031;-0.29833984375;0.884765625;0.16845703125;-14.0625;21.1875;-9.4375
1.0;0.5477294921875;-0.3475341796875;-0.57977294921875;0.4930419921875;10.700261224021753;13.02316671981077;4.758522751048206;-0.306640625;0.88330078125;0.1708984375;-12.125;18.625;-9.0
1.0;0.5489501953125;-0.34271240234375;-0.580078125;0.49468994140625;10.732510544862624;13.010236376474927;4.776881699465263;-0.31005859375;0.8662109375;0.1806640625;-15.25;16.5625;-10.9375
1.0;0.55035400390625;-0.33819580078125;-0.57989501953125;0.4964599609375;10.760714202696427;13.000095328236416;4.797202027035262;-0.32958984375;0.85693359375;0.173828125;-16.4375;19.8125;-8.875
1.0;0.55133056640625;-0.3326416015625;-0.58026123046875;0.49871826171875;10.794058908743871;12.982880974634902;4.8178146811514955;-0.29248046875;0.89990234375;0.15625;-16.5625;21.625;-10.375
1.0;0.552490234375;-0.32757568359375;-0.5799560546875;0.50103759765625;10.821621294331917;12.969648053505033;4.840504684259406;-0.34912109375;0.90771484375;0.1650390625;-23.625;21.4375;-9.9375
1.0;0.55126953125;-0.3212890625;-0.5806884765625;0.50555419921875;10.838510730542469;12.935826125469257;4.860402404295305;-0.3505859375;0.91552734375;0.12158203125;-23.375;22.25;-6.5
1.0;0.55078125;-0.31500244140625;-0.5804443359375;0.5103759765625;10.853360882788571;12.907143984566416;4.887030609486067;-0.27880859375;0.91455078125;0.13671875;-43.0625;19.375;-6.875
1.0;0.55413818359375;-0.30426025390625;-0.575439453125;0.51885986328125;10.878467271214223;12.888030508612434;4.9637286121435045;-0.255859375;0.80859375;0.16845703125;-29.1875;31.125;0.25
1.0;0.55462646484375;-0.296630859375;-0.57403564453125;0.52423095703125;10.901196546504556;12.862221619792425;5.002328432022483;-0.27197265625;0.87744140625;0.06591796875;-23.0625;40.375;-1.125
1.0;0.55419921875;-0.28887939453125;-0.57330322265625;0.5299072265625;10.922435195100414;12.829841481187065;5.036499735479188;-0.3134765625;0.8798828125;0.11865234375;-43.4375;36.375;-2.8125
1.0;0.55401611328125;-0.28271484375;-0.572021484375;0.53466796875;10.93611202432249;12.806289223621754;5.067519603362248;-0.32958984375;0.8525390625;0.1865234375;-44.9375;33.125;-1.625
1.0;0.5533447265625;-0.2783203125;-0.56976318359375;0.54010009765625;10.926345198437852;12.78650991884185;5.098563557231577;-0.32861328125;0.80419921875;0.25048828125;-30.3125;30.625;2.5625
1.0;0.5545654296875;-0.27117919921875;-0.56890869140625;0.54339599609375;10.964996654925654;12.768550033559782;5.1305724234920005;-0.1904296875;0.81591796875;0.2802734375;-25.375;30.4375;5.0
1.0;0.55126953125;-0.2677001953125;-0.567138671875;0.55023193359375;10.931189966573605;12.735554928061386;5.153296396965355;-0.51025390625;0.84521484375;0.23193359375;-27.8125;31.125;1.8125
1.0;0.55157470703125;-0.26531982421875;-0.56396484375;0.5543212890625;10.91478231437784;12.730486202168507;5.182909006506579;-0.0439453125;0.84423828125;0.3134765625;-35.5625;22.5625;4.8125
1.0;0.55419921875;-0.25970458984375;-0.56195068359375;0.55645751953125;10.950143760688483;12.728347764978633;5.217237448722664;-0.21826171875;0.91650390625;0.10205078125;-24.5625;23.375;8.1875
1.0;0.557861328125;-0.25323486328125;-0.56036376953125;0.557373046875;11.005455602543787;12.730385179685994;5.251926999385928;-0.51123046875;0.86767578125;0.0673828125;-24.25;28.625;3.75
1.0;0.56109619140625;-0.24749755859375;-0.55908203125;0.5579833984375;11.056059405660433;12.732560370141497;5.281766801057036;-0.69677734375;0.86767578125;0.11669921875;-17.375;29.3125;5.625
1.0;0.56231689453125;-0.2437744140625;-0.5589599609375;0.5584716796875;11.087680369377875;12.728122785167058;5.295852028292961;-0.69970703125;0.82470703125;0.06787109375;-18.25;23.375;7.25
1.0;0.56256103515625;-0.2431640625;-0.55926513671875;0.5582275390625;11.096269949617266;12.727415463881538;5.296148547158808;-0.55322265625;0.82666015625;0.15380859375;-14.1875;10.8125;2.5625
1.0;0.56292724609375;-0.2440185546875;-0.55877685546875;0.55792236328125;11.09059886041053;12.733124600154362;5.296528175715405;-0.42919921875;0.80126953125;0.22607421875;-0.5;-0.375;3.125
1.0;0.56329345703125;-0.24468994140625;-0.55841064453125;0.5576171875;11.086919616060582;12.73804648891256;5.296823087131113;-0.376953125;0.826171875;0.240234375;6.625;-0.9375;5.8125
1.0;0.56427001953125;-0.24560546875;-0.557861328125;0.55682373046875;11.085820327187518;12.7478232960218;5.297935652334453;-0.3232421875;0.82861328125;0.251953125;6.25;0.5;1.5625
1.0;0.5654296875;-0.24664306640625;-0.55682373046875;0.5562744140625;11.081021272946261;12.759491747623862;5.301917568708428;-0.33349609375;0.828125;0.2158203125;8.9375;0.5625;1.375
1.0;0.56494140625;-0.24627685546875;-0.55657958984375;0.55712890625;11.076030867159483;12.755226490304182;5.304404584502613;-0.34326171875;0.90234375;0.19775390625;7.5625;2.125;2.25
1.0;0.56402587890625;-0.245849609375;-0.55682373046875;0.55804443359375;11.071526972141951;12.747448555590019;5.303881799760335;-0.36279296875;0.85107421875;0.21044921875;-6.25;0.6875;4.8125
1.0;0.5640869140625;-0.246826171875;-0.55523681640625;0.55908203125;11.05129606327459;12.752087565126624;5.31082938499179;-0.38525390625;0.82470703125;0.28271484375;-3.625;-0.5625;5.9375
1.0;0.5645751953125;-0.24822998046875;-0.554443359375;0.55877685546875;11.040408078065127;12.760452630035939;5.3114774843274635;-0.3017578125;0.82373046875;0.27685546875;5.875;5.375;10.4375
1.0;0.56317138671875;-0.24847412109375;-0.55621337890625;0.558349609375;11.04265259376725;12.751029961558412;5.298380409459966;-0.322265625;0.85546875;0.23046875;8.25;-0.9375;4.8125
1.0;0.5634765625;-0.25042724609375;-0.55657958984375;0.55670166015625;11.039201528076301;12.759808280402137;5.28915017020493;-0.330078125;0.763671875;0.2841796875;0.1875;-10.125;-1.8125
1.0;0.56439208984375;-0.2518310546875;-0.55621337890625;0.5555419921875;11.036834676126269;12.770807220512916;5.287231574854195;-0.28662109375;0.8203125;0.2470703125;13.9375;-7.5625;-2.4375
1.0;0.56494140625;-0.252685546875;-0.55596923828125;0.55487060546875;11.035081494779838;12.777446345237843;5.2862082013752625;-0.3076171875;0.90185546875;0.24462890625;12.375;-1.1875;-1.8125
1.0;0.5657958984375;-0.25384521484375;-0.55560302734375;0.5538330078125;11.033718325415746;12.787320016189453;5.28498322012717;-0.29345703125;0.87451171875;0.26318359375;9.25;0.6875;-2.125
1.0;0.56695556640625;-0.25543212890625;-0.55523681640625;0.55224609375;11.033353503612602;12.800804170509805;5.282321483652548;-0.31005859375;0.8505859375;0.25048828125;12.4375;-0.3125;-0.4375
1.0;0.56854248046875;-0.25714111328125;-0.5546875;0.55035400390625;11.034755194132602;12.817636535823258;5.28066176996503;-0.310546875;0.85498046875;0.25439453125;17.0625;-1.4375;-1.75
1.0;0.56982421875;-0.25836181640625;-0.55419921875;0.5489501953125;11.036258129026768;12.830687297270472;5.280191121888137;-0.3193359375;0.865234375;0.224609375;18.5;-0.625;-1.5625
1.0;0.57098388671875;-0.2589111328125;-0.55401611328125;0.5477294921875;11.042875284990933;12.840330015205652;5.28017450993919;-0.3154296875;0.86181640625;0.205078125;12.9375;-0.1875;-2.0
1.0;0.57244873046875;-0.2593994140625;-0.5533447265625;0.546630859375;11.048352732615792;12.852240842933906;5.28353245733163;-0.3251953125;0.8876953125;0.22705078125;10.9375;1.375;-4.3125
1.0;0.57550048828125;-0.26068115234375;-0.5517578125;0.54437255859375;11.056573332329384;12.878164411303901;5.290763562126244;-0.29296875;0.8681640625;0.22265625;12.1875;5.0;-4.25
1.0;0.57769775390625;-0.26129150390625;-0.551513671875;0.5419921875;11.073247583832408;12.895363175996033;5.291333803120908;-0.3115234375;0.9130859375;0.19091796875;22.625;7.6875;-5.1875
1.0;0.57916259765625;-0.26263427734375;-0.551025390625;0.54034423828125;11.075902246666985;12.910083184027513;5.2906051068525395;-0.37451171875;0.8955078125;0.20703125;18.0625;2.1875;-6.4375
1.0;0.58111572265625;-0.2645263671875;-0.55029296875;0.53802490234375;11.078961027428296;12.93049250129984;5.289449357347327;-0.34521484375;0.87939453125;0.212890625;16.875;0.3125;-1.1875
1.0;0.58221435546875;-0.2650146484375;-0.5499267578125;0.5369873046875;11.083869477870769;12.939864768542812;5.29067639131531;-0.30322265625;0.875;0.14013671875;18.375;-1.0625;-4.0625
1.0;0.5821533203125;-0.264404296875;-0.5504150390625;0.53692626953125;11.090991918308733;12.936932426224491;5.289880283714632;-0.32275390625;0.884765625;0.15966796875;8.125;1.375;-3.5625
1.0;0.58154296875;-0.26318359375;-0.551513671875;0.53692626953125;11.103068845990034;12.928359278963582;5.286579302708857;-0.326171875;0.849609375;0.1455078125;-4.4375;-0.5625;-3.9375
1.0;0.58343505859375;-0.26263427734375;-0.551025390625;0.5357666015625;11.119457774673501;12.939383138702185;5.2930712944489;-0.341796875;0.81005859375;0.19873046875;-5.25;-1.25;-5.125
1.0;0.58453369140625;-0.26190185546875;-0.5511474609375;0.53472900390625;11.136119384153599;12.944575516368817;5.295406569443166;-0.3447265625;0.84765625;0.1533203125;7.6875;7.0;-6.125
1.0;0.58465576171875;-0.2611083984375;-0.5516357421875;0.53448486328125;11.146457115232414;12.942455675389805;5.295206289265968;-0.3994140625;0.8857421875;0.166015625;4.125;2.8125;-4.875
1.0;0.58416748046875;-0.26043701171875;-0.5521240234375;0.534912109375;11.149532413380879;12.936362762392816;5.2943488097917335;-0.3828125;0.86279296875;0.16064453125;-2.9375;0.125;-2.5
1.0;0.5838623046875;-0.25958251953125;-0.55255126953125;0.53521728515625;11.155189026317764;12.931115243495642;5.294484077844762;-0.31591796875;0.8876953125;0.1748046875;-5.875;0.0;-4.4375
1.0;0.5836181640625;-0.2587890625;-0.55279541015625;0.53558349609375;11.1594252858787;12.926657285392386;5.2955467950522115;-0.341796875;0.849609375;0.15966796875;-6.25;0.3125;-2.875
1.0;0.58349609375;-0.25787353515625;-0.55316162109375;0.5357666015625;11.166722507986842;12.922527904562486;5.296361178969327;-0.333984375;0.8251953125;0.169921875;-4.75;1.5625;-1.8125
1.0;0.58306884765625;-0.25732421875;-0.55352783203125;0.5361328125;11.168870975268076;12.917479913666739;5.295738201195511;-0.36376953125;0.8642578125;0.20068359375;-2.625;1.75;-2.5
1.0;0.5830078125;-0.257568359375;-0.5538330078125;0.5357666015625;11.170197715520416;12.917769026772541;5.29284065512328;-0.36962890625;0.84130859375;0.1845703125;-4.375;-0.5;0.3125
1.0;0.58270263671875;-0.25787353515625;-0.55401611328125;0.53570556640625;11.167745852910725;12.916776135522738;5.2902481391288;-0.35791015625;0.83544921875;0.16259765625;0.8125;-2.9375;0.0625
1.0;0.58331298828125;-0.25787353515625;-0.55322265625;0.535888671875;11.165559316063568;12.92126991755035;5.295825816540909;-0.33544921875;0.84228515625;0.19287109375;1.3125;-2.125;0.3125
1.0;0.5836181640625;-0.25732421875;-0.55303955078125;0.5360107421875;11.169562900001921;12.921563570802904;5.2991702552902975;-0.31640625;0.865234375;0.171875;1.875;5.0;-0.125
1.0;0.5831298828125;-0.2572021484375;-0.5533447265625;0.53631591796875;11.16819247486131;12.917555138441777;5.297406942965521;-0.3896484375;0.90087890625;0.17236328125;-1.6875;3.125;0.125
1.0;0.58233642578125;-0.25738525390625;-0.553955078125;0.53643798828125;11.16561706801894;12.91249271422502;5.29226812048857;-0.3662109375;0.853515625;0.18896484375;-2.5625;-1.9375;1.6875
1.0;0.5828857421875;-0.2581787109375;-0.55401611328125;0.53533935546875;11.16819528662845;12.919147344659306;5.289213211818435;-0.32958984375;0.78759765625;0.2021484375;-0.8125;-4.125;0.8125
1.0;0.5830078125;-0.2579345703125;-0.5540771484375;0.5352783203125;11.171232012165884;12.919078258466614;5.289802678609422;-0.33642578125;0.84033203125;0.154296875;6.6875;-2.9375;-2.0
1.0;0.58319091796875;-0.25799560546875;-0.5538330078125;0.5352783203125;11.17038229894993;12.920720829744335;5.291225759894784;-0.3564453125;0.87890625;0.16943359375;-1.125;0.375;-1.5
1.0;0.58282470703125;-0.2579345703125;-0.55401611328125;0.53558349609375;11.16846699190867;12.917730591363046;5.290189843579633;-0.353515625;0.8583984375;0.17041015625;0.9375;1.25;0.8125
1.0;0.58270263671875;-0.2579345703125;-0.554443359375;0.5352783203125;11.171663893527617;12.91669200600684;5.287345628964614;-0.32958984375;0.8447265625;0.19482421875;1.5;-1.6875;-1.875
1.0;0.58245849609375;-0.25750732421875;-0.55462646484375;0.5355224609375;11.173447044358472;12.91354235522459;5.28745938732501;-0.341796875;0.87353515625;0.1884765625;0.125;0.6875;-1.75
1.0;0.58233642578125;-0.257080078125;-0.55511474609375;0.535400390625;11.179218140230182;12.910895772028017;5.2858377018066625;-0.34033203125;0.85791015625;0.19189453125;-2.3125;0.375;-1.5
1.0;0.582275390625;-0.2572021484375;-0.55523681640625;0.53521728515625;11.179609455776145;12.911002842699991;5.284423380864482;-0.3623046875;0.822265625;0.1884765625;-0.875;-0.6875;-1.8125
1.0;0.58251953125;-0.25726318359375;-0.55523681640625;0.5350341796875;11.181186097717141;12.912621510464746;5.284598254386813;-0.34521484375;0.84521484375;0.193359375;1.6875;-0.8125;-0.125
1.0;0.58251953125;-0.25726318359375;-0.55517578125;0.5350341796875;11.180902670698067;12.912806528329606;5.284854094459604;-0.34912109375;0.85693359375;0.1767578125;1.375;0.3125;-1.0
1.0;0.58233642578125;-0.25726318359375;-0.5550537109375;0.53533935546875;11.177852640219328;12.91164570316044;5.285498186090273;-0.35107421875;0.86669921875;0.17724609375;-0.1875;0.75;0.5
1.0;0.58233642578125;-0.25726318359375;-0.5550537109375;0.53533935546875;11.177852640219328;12.91164570316044;5.285498186090273;-0.33642578125;0.85009765625;0.17822265625;-1.4375;0.5;1.0
1.0;0.58209228515625;-0.25762939453125;-0.5552978515625;0.53515625;11.176144315511637;12.911166257452217;5.282407354495081;-0.35400390625;0.86474609375;0.18505859375;0.6875;-0.5625;0.25
1.0;0.58221435546875;-0.25836181640625;-0.55560302734375;0.534423828125;11.17649845612317;12.914235181746811;5.278016599786312;-0.3505859375;0.849609375;0.19384765625;1.875;-2.4375;0.5625
1.0;0.582763671875;-0.25927734375;-0.55535888671875;0.5335693359375;11.17536536774453;12.921476755056762;5.276487579818222;-0.34375;0.81494140625;0.17431640625;5.125;-4.25;-0.375
1.0;0.58306884765625;-0.25982666015625;-0.5552978515625;0.5330810546875;11.174846811169804;12.92539903963241;5.275193121743875;-0.341796875;0.86767578125;0.16650390625;7.0;-1.625;-0.375
1.0;0.58306884765625;-0.26025390625;-0.55548095703125;0.53265380859375;11.174793863265716;12.92687614688123;5.272394498623731;-0.3564453125;0.86962890625;0.16552734375;3.75;-1.5625;0.0
1.0;0.5831298828125;-0.26104736328125;-0.5556640625;0.531982421875;11.173538127800576;12.930045956072593;5.2683131535321435;-0.357421875;0.84130859375;0.177734375;2.9375;-2.75;0.4375
1.0;0.58294677734375;-0.26190185546875;-0.55596923828125;0.531494140625;11.17032606679562;12.931505853089947;5.2632397530635755;-0.35498046875;0.8515625;0.15966796875;3.75;-4.125;0.375
1.0;0.5826416015625;-0.262451171875;-0.55609130859375;0.53143310546875;11.165700868792161;12.931256939274386;5.260288983672788;-0.34912109375;0.87646484375;0.166015625;3.0;-5.0;0.1875
1.0;0.58258056640625;-0.262939453125;-0.55615234375;0.53118896484375;11.163327057394275;12.932533121413831;5.258074208555063;-0.33154296875;0.85546875;0.169921875;0.4375;-3.125;0.6875
1.0;0.58184814453125;-0.26263427734375;-0.556640625;0.5316162109375;11.162458951497179;12.92623724747348;5.255544176382877;-0.3408203125;0.8798828125;0.1533203125;0.5625;-2.75;-0.1875
1.0;0.58087158203125;-0.2623291015625;-0.55731201171875;0.5321044921875;11.161050902579891;12.918216210098446;5.251649269546323;-0.34423828125;0.84765625;0.1611328125;-6.1875;-2.6875;-0.0625
1.0;0.580078125;-0.261962890625;-0.557861328125;0.5325927734375;11.160309428245625;12.911191464771788;5.248973161689032;-0.34326171875;0.849609375;0.177734375;-6.3125;-3.5625;-0.1875
1.0;0.5792236328125;-0.2611083984375;-0.5582275390625;0.5335693359375;11.159486992335475;12.902141974263992;5.2492033702366045;-0.34228515625;0.849609375;0.1748046875;-6.0625;-2.6875;0.0
1.0;0.57696533203125;-0.25933837890625;-0.55975341796875;0.5352783203125;11.160977036976035;12.879808899481008;5.244278078032073;-0.35498046875;0.85546875;0.1953125;-10.25;-1.6875;-0.4375
1.0;0.57611083984375;-0.2591552734375;-0.5601806640625;0.5357666015625;11.157942730524812;12.873322757742322;5.241482195215254;-0.357421875;0.83935546875;0.20068359375;-8.875;-2.375;0.5625
1.0;0.57550048828125;-0.259033203125;-0.56048583984375;0.53619384765625;11.155259251507154;12.868519340488419;5.239647727092806;-0.34375;0.84912109375;0.2041015625;-4.5625;-2.375;0.6875
1.0;0.57470703125;-0.2586669921875;-0.5609130859375;0.536865234375;11.152864902148847;12.86142159719414;5.237915127626246;-0.33935546875;0.857421875;0.1923828125;-4.1875;-2.0;0.5
1.0;0.57421875;-0.258544921875;-0.56097412109375;0.537353515625;11.14924584144648;12.857720067688076;5.23761763670522;-0.34423828125;0.85009765625;0.201171875;-5.6875;-1.6875;0.8125
1.0;0.57354736328125;-0.2581787109375;-0.56121826171875;0.53790283203125;11.147223579621315;12.851986175549857;5.236742048452094;-0.34423828125;0.8515625;0.19482421875;-3.625;-0.5;1.625
1.0;0.57275390625;-0.25762939453125;-0.561767578125;0.5384521484375;11.147475883117288;12.844397234327204;5.234668821447194;-0.34423828125;0.85888671875;0.19921875;-5.5;-1.125;0.625
1.0;0.572021484375;-0.25732421875;-0.562255859375;0.5389404296875;11.146146256083556;12.837965302906099;5.232300411760954;-0.34912109375;0.84228515625;0.20361328125;-6.3125;-1.75;0.0625
1.0;0.57159423828125;-0.25732421875;-0.56256103515625;0.5390625;11.144980495216915;12.834963058059653;5.230023236647704;-0.3466796875;0.845703125;0.220703125;-4.25;-1.8125;0.25
1.0;0.5714111328125;-0.257568359375;-0.5626220703125;0.5390625;11.142555054700418;12.834584020239323;5.2286266563882675;-0.34423828125;0.8466796875;0.21533203125;-1.25;-1.6875;0.375
1.0;0.57110595703125;-0.25762939453125;-0.56280517578125;0.5391845703125;11.140890674034543;12.832604079894713;5.227081436398472;-0.34228515625;0.85302734375;0.1982421875;-0.0625;-1.875;0.8125
1.0;0.57012939453125;-0.2579345703125;-0.56353759765625;0.539306640625;11.136854410194053;12.82673915071868;5.220633404648811;-0.34912109375;0.85693359375;0.19482421875;-2.125;-1.875;0.5625
1.0;0.5693359375;-0.2587890625;-0.56396484375;0.53924560546875;11.128975684049792;12.824297672017272;5.214264105936363;-0.349609375;0.84326171875;0.216796875;-2.625;-5.9375;1.25
1.0;0.568603515625;-0.259033203125;-0.56402587890625;0.53985595703125;11.120715465637844;12.820163185142782;5.212666950350418;-0.33740234375;0.859375;0.19482421875;-0.75;-7.0;1.8125
1.0;0.567626953125;-0.2587890625;-0.56427001953125;0.540771484375;11.11429382907976;12.812578582723892;5.211476755882433;-0.31689453125;0.85595703125;0.19384765625;-4.5;-2.6875;2.1875
1.0;0.56719970703125;-0.25872802734375;-0.5640869140625;0.5413818359375;11.108660521882129;12.809733162835732;5.212557400996333;-0.33154296875;0.859375;0.21240234375;-6.9375;-1.5625;1.9375
1.0;0.56640625;-0.25799560546875;-0.5645751953125;0.5421142578125;11.108961872528536;12.801470892350729;5.211641247283707;-0.32275390625;0.87109375;0.201171875;-4.125;0.4375;1.5
1.0;0.56585693359375;-0.25714111328125;-0.5648193359375;0.5428466796875;11.11020769789479;12.79466709187313;5.212764263170249;-0.3359375;0.86865234375;0.224609375;-7.25;-0.4375;-1.0
1.0;0.5654296875;-0.25634765625;-0.5648193359375;0.54364013671875;11.11009926646854;12.789100465080947;5.21527092184176;-0.353515625;0.83740234375;0.2158203125;-6.8125;0.875;1.0
1.0;0.56512451171875;-0.25592041015625;-0.56488037109375;0.5440673828125;11.10998243841582;12.785606855431409;5.216141699622665;-0.345703125;0.83349609375;0.24267578125;-4.6875;2.875;1.3125
1.0;0.5645751953125;-0.25531005859375;-0.56561279296875;0.54412841796875;11.115223187699467;12.779527748321659;5.213035790350012;-0.3369140625;0.86279296875;0.22705078125;-3.375;0.875;0.0
1.0;0.5643310546875;-0.25482177734375;-0.56610107421875;0.544189453125;11.119777130018797;12.775741505959253;5.211565996233966;-0.34765625;0.85498046875;0.2275390625;-4.4375;-2.0;-3.125
1.0;0.56414794921875;-0.25396728515625;-0.5667724609375;0.5440673828125;11.129288042213656;12.771222399670265;5.209934696797324;-0.34375;0.86328125;0.23583984375;-2.375;-0.375;-2.625
1.0;0.563720703125;-0.25341796875;-0.56756591796875;0.5439453125;11.13585364933824;12.766036887423908;5.20633293706909;-0.34326171875;0.84423828125;0.23193359375;-3.375;0.0;-4.5625
1.0;0.5633544921875;-0.25311279296875;-0.56854248046875;0.54345703125;11.143605385574656;12.762001112749706;5.20068318424056;-0.34375;0.8525390625;0.25048828125;-2.3125;-1.6875;-4.25
1.0;0.56353759765625;-0.25408935546875;-0.56890869140625;0.5423583984375;11.14449872854195;12.76660218000243;5.194759210420067;-0.35791015625;0.81787109375;0.240234375;-0.0625;-4.125;-3.5
1.0;0.56402587890625;-0.25555419921875;-0.5689697265625;0.5411376953125;11.142303313266025;12.774857587298236;5.1895881449409655;-0.34228515625;0.81103515625;0.22509765625;7.4375;-4.9375;-1.1875
1.0;0.56378173828125;-0.25653076171875;-0.5693359375;0.54052734375;11.138599333199043;12.776518980884587;5.183555821586597;-0.33544921875;0.83642578125;0.20166015625;9.0625;-5.4375;-0.125
1.0;0.56341552734375;-0.2576904296875;-0.56976318359375;0.5399169921875;11.133194076069232;12.777931276534842;5.176471575673485;-0.3427734375;0.841796875;0.2080078125;3.5;-6.125;0.1875
1.0;0.56292724609375;-0.25823974609375;-0.57025146484375;0.5396728515625;11.130221030023613;12.776323136613003;5.171085258966788;-0.3310546875;0.85693359375;0.20361328125;2.6875;-7.5;0.0
1.0;0.56280517578125;-0.2587890625;-0.57037353515625;0.53936767578125;11.127632265332284;12.777490067619937;5.16818199986823;-0.34033203125;0.84521484375;0.2275390625;0.875;-4.875;0.375
1.0;0.56256103515625;-0.259033203125;-0.5701904296875;0.53973388671875;11.121783632503531;12.776748988596031;5.168526822098565;-0.35302734375;0.849609375;0.22119140625;2.4375;-2.9375;1.125
1.0;0.561767578125;-0.2587890625;-0.57012939453125;0.540771484375;11.11404871095224;12.770591998747248;5.169490171905788;-0.337890625;0.87060546875;0.20947265625;-1.625;-0.6875;2.1875
1.0;0.56121826171875;-0.25811767578125;-0.5701904296875;0.54150390625;11.112984911372212;12.76477218369689;5.170941684315551;-0.32177734375;0.849609375;0.2333984375;-6.0625;0.4375;2.8125
1.0;0.5609130859375;-0.25775146484375;-0.5703125;0.54193115234375;11.112615032842491;12.761244548172812;5.171413490753754;-0.345703125;0.826171875;0.23779296875;-4.9375;1.5;1.75
1.0;0.56121826171875;-0.25811767578125;-0.57000732421875;0.54180908203125;11.110485345037656;12.764603670821574;5.172446075356154;-0.3505859375;0.81689453125;0.26220703125;-0.9375;1.0625;1.8125
1.0;0.56158447265625;-0.25848388671875;-0.569580078125;0.5416259765625;11.10843423717577;12.76872408081012;5.174021381978552;-0.33740234375;0.83056640625;0.23681640625;4.25;0.875;1.5625
1.0;0.56201171875;-0.2586669921875;-0.56915283203125;0.54150390625;11.107740886440032;12.772512626087414;5.176355198178359;-0.330078125;0.845703125;0.232421875;4.375;1.5;0.8125
1.0;0.5625;-0.259033203125;-0.568603515625;0.54144287109375;11.105013087460863;12.777217666622832;5.179095967239685;-0.33349609375;0.84375;0.22509765625;3.1875;2.25;0.8125
1.0;0.5631103515625;-0.25921630859375;-0.5679931640625;0.54132080078125;11.104322430514566;12.782315134356521;5.182738193484101;-0.333984375;0.859375;0.232421875;4.375;2.75;1.25
1.0;0.56378173828125;-0.2593994140625;-0.5673828125;0.54119873046875;11.10389319096932;12.787666768001907;5.186561880362902;-0.3359375;0.8583984375;0.21826171875;3.5625;3.125;0.8125
1.0;0.564453125;-0.2596435546875;-0.56671142578125;0.54107666015625;11.102704795092338;12.793346130632141;5.190494572004335;-0.3349609375;0.845703125;0.2138671875;3.9375;3.4375;1.0625
1.0;0.5650634765625;-0.25982666015625;-0.5662841796875;0.540771484375;11.103810062205682;12.798330848767952;5.192933047685171;-0.3310546875;0.85498046875;0.2138671875;4.3125;3.25;0.75
1.0;0.56573486328125;-0.260009765625;-0.5657958984375;0.54052734375;11.10456721186713;12.803607888983542;5.195955272198205;-0.33935546875;0.8603515625;0.21142578125;3.625;2.3125;0.0625
1.0;0.5662841796875;-0.260009765625;-0.56524658203125;0.54052734375;11.104562735757678;12.80753943627573;5.199886819490394;-0.3359375;0.84814453125;0.21142578125;4.1875;2.8125;0.3125
1.0;0.56719970703125;-0.25982666015625;-0.56451416015625;0.54046630859375;11.107117823384591;12.813256802208453;5.2059698972714035;-0.326171875;0.84765625;0.21875;3.0;3.9375;0.1875
1.0;0.5679931640625;-0.259521484375;-0.56396484375;0.540283203125;11.111563620693074;12.81792551642591;5.210932003966762;-0.33154296875;0.8447265625;0.20458984375;3.5625;5.8125;-0.0625
1.0;0.568359375;-0.2587890625;-0.56396484375;0.540283203125;11.118882818376207;12.817722672402397;5.213787062824405;-0.34375;0.85986328125;0.20068359375;2.375;4.5625;-0.9375
1.0;0.56915283203125;-0.25994873046875;-0.56304931640625;0.53985595703125;11.11162056024956;12.827539827845602;5.216183208879439;-0.38330078125;0.86669921875;0.2333984375;0.375;3.5625;-0.75
1.0;0.57000732421875;-0.2607421875;-0.5623779296875;0.539306640625;11.109242987660497;12.836306817633279;5.218329704731813;-0.310546875;0.802734375;0.18359375;8.1875;1.375;3.5
1.0;0.5701904296875;-0.26068115234375;-0.562255859375;0.53924560546875;11.110310422393978;12.837439628592957;5.219390884678237;-0.32568359375;0.87841796875;0.18505859375;6.6875;1.0625;0.1875
1.0;0.5703125;-0.2606201171875;-0.5618896484375;0.53955078125;11.107960502534919;12.838161987619607;5.222147131818447;-0.33203125;0.875;0.18115234375;-0.8125;0.6875;-1.375
1.0;0.5704345703125;-0.25994873046875;-0.5618896484375;0.5396728515625;11.113036491236427;12.83679942445468;5.224425702007033;-0.3330078125;0.853515625;0.18408203125;-1.3125;2.1875;1.3125
1.0;0.5704345703125;-0.25933837890625;-0.561767578125;0.5401611328125;11.114510060951819;12.834550202901143;5.2275589810626;-0.34765625;0.85693359375;0.1953125;-2.875;2.125;-1.5
1.0;0.570556640625;-0.25897216796875;-0.56146240234375;0.54046630859375;11.114813490585238;12.834374799334359;5.2308008222851115;-0.357421875;0.853515625;0.203125;-3.125;3.0;1.0625
1.0;0.57086181640625;-0.25872802734375;-0.5609130859375;0.5408935546875;11.113179602774188;12.83568334640686;5.235599229023968;-0.33984375;0.833984375;0.2041015625;-1.0;2.9375;1.25
1.0;0.5709228515625;-0.25799560546875;-0.56060791015625;0.54150390625;11.114370872157203;12.833656018377866;5.240261452654251;-0.33447265625;0.85498046875;0.2021484375;-0.5;4.125;1.0625
1.0;0.5709228515625;-0.25750732421875;-0.560302734375;0.5419921875;11.114077386203018;12.832240668511687;5.243863456428144;-0.34228515625;0.8466796875;0.21044921875;-3.1875;4.5;0.8125
1.0;0.57110595703125;-0.25714111328125;-0.56005859375;0.54229736328125;11.114926420502865;12.832138788609615;5.247032657726082;-0.34228515625;0.84716796875;0.203125;-2.375;3.125;1.375
1.0;0.57147216796875;-0.257080078125;-0.5595703125;0.5423583984375;11.114438954652458;12.834836242955305;5.250458089433741;-0.349609375;0.8466796875;0.20751953125;-1.125;2.875;1.0
1.0;0.57177734375;-0.25689697265625;-0.55926513671875;0.54248046875;11.11512664308433;12.83629965948408;5.253374889792667;-0.34033203125;0.84912109375;0.19677734375;1.3125;2.9375;1.25
1.0;0.572265625;-0.25689697265625;-0.55859375;0.54266357421875;11.113168252813932;12.83989718178517;5.258064680712603;-0.34375;0.8447265625;0.20068359375;0.5;2.625;0.8125
1.0;0.57232666015625;-0.25640869140625;-0.55828857421875;0.5430908203125;11.113478652948247;12.838885732763934;5.261707253403296;-0.333984375;0.859375;0.19970703125;1.5625;4.0625;1.375
1.0;0.572509765625;-0.25634765625;-0.557861328125;0.54345703125;11.110763646814462;12.839887352592012;5.265038241495996;-0.35302734375;0.85498046875;0.20849609375;-1.8125;3.25;1.25
1.0;0.57257080078125;-0.256103515625;-0.557373046875;0.54388427734375;11.108332489146004;12.839984603957141;5.268849859854749;-0.3349609375;0.84912109375;0.19775390625;-0.3125;2.75;1.875
1.0;0.57281494140625;-0.256103515625;-0.556884765625;0.54412841796875;11.105798127262297;12.841859619471329;5.272183729927546;-0.3427734375;0.8505859375;0.2060546875;-0.875;3.1875;2.4375
1.0;0.57330322265625;-0.2564697265625;-0.55633544921875;0.54412841796875;11.102524038994002;12.846379864154455;5.2750338925436795;-0.333984375;0.84228515625;0.205078125;1.1875;2.9375;2.0
1.0;0.57366943359375;-0.2567138671875;-0.55572509765625;0.544189453125;11.099051355410449;12.850136282081053;5.278214132196868;-0.32763671875;0.85986328125;0.19287109375;3.0625;2.25;1.4375
1.0;0.57427978515625;-0.256591796875;-0.5550537109375;0.5443115234375;11.098857856789676;12.85409991660672;5.283414981361665;-0.32421875;0.8720703125;0.19384765625;2.0625;2.5625;1.125
1.0;0.57513427734375;-0.25640869140625;-0.55426025390625;0.5443115234375;11.100283745858775;12.859608815613901;5.289722074494066;-0.328125;0.86962890625;0.1904296875;1.375;4.6875;0.0
1.0;0.57568359375;-0.25592041015625;-0.55364990234375;0.5445556640625;11.10226599299887;12.86199753320642;5.2956734921801525;-0.333984375;0.86376953125;0.1875;2.8125;5.5625;0.25
1.0;0.5765380859375;-0.255859375;-0.5523681640625;0.54498291015625;11.09806584987186;12.868173859403766;5.304695918046062;-0.32568359375;0.85546875;0.20654296875;1.1875;6.1875;-0.3125
1.0;0.57720947265625;-0.2552490234375;-0.5509033203125;0.54608154296875;11.09278274577743;12.871195593089116;5.316827986442223;-0.333984375;0.87158203125;0.19189453125;2.4375;7.6875;3.3125
1.0;0.5772705078125;-0.2535400390625;-0.550048828125;0.54766845703125;11.093665904320973;12.866144963015818;5.3284470360534275;-0.31298828125;0.8720703125;0.171875;-2.8125;10.3125;2.875
1.0;0.57763671875;-0.2518310546875;-0.54931640625;0.54876708984375;11.099127260567105;12.863240295525468;5.339352989279037;-0.3291015625;0.82421875;0.19189453125;-8.625;10.8125;2.625
1.0;0.57830810546875;-0.25079345703125;-0.54827880859375;0.549560546875;11.100863598739359;12.864798783131674;5.350074294971281;-0.3447265625;0.818359375;0.22119140625;-4.5625;10.875;0.8125
1.0;0.5794677734375;-0.2503662109375;-0.5465087890625;0.55029296875;11.096718000928293;12.87208371303365;5.3636401966178475;-0.34814453125;0.86474609375;0.21044921875;-1.1875;10.375;1.9375
1.0;0.58038330078125;-0.24932861328125;-0.54473876953125;0.55157470703125;11.093283956823207;12.875584309521887;5.3792447501395015;-0.330078125;0.8720703125;0.169921875;0.8125;11.3125;3.6875
1.0;0.58099365234375;-0.24761962890625;-0.54339599609375;0.552978515625;11.095203869761278;12.874748207314289;5.394126445554596;-0.3232421875;0.85888671875;0.177734375;-3.0;13.8125;4.0625
1.0;0.58154296875;-0.24627685546875;-0.54229736328125;0.55413818359375;11.096487742341926;12.874372354406344;5.406333040631754;-0.35791015625;0.8388671875;0.18603515625;-6.3125;13.375;3.875
1.0;0.58154296875;-0.245361328125;-0.54193115234375;0.55487060546875;11.097971461452332;12.871567112679402;5.411818091695365;-0.3662109375;0.826171875;0.1904296875;-4.0;10.6875;4.4375
1.0;0.581787109375;-0.245361328125;-0.54168701171875;0.55487060546875;11.09780928371378;12.873310808879422;5.413561787895386;-0.36279296875;0.81884765625;0.20751953125;-3.4375;5.375;3.0625
1.0;0.58233642578125;-0.2464599609375;-0.54095458984375;0.5545654296875;11.089564797770334;12.880950212370028;5.414783062507961;-0.35986328125;0.8408203125;0.2060546875;2.5625;1.6875;2.3125
1.0;0.582275390625;-0.24713134765625;-0.54071044921875;0.55450439453125;11.083191649497198;12.88302977953263;5.413783955222591;-0.3271484375;0.8701171875;0.16943359375;5.75;-0.375;3.375
1.0;0.58203125;-0.24755859375;-0.54071044921875;0.55462646484375;11.078162663595531;12.882624595747165;5.412247127515277;-0.34130859375;0.88671875;0.1787109375;1.25;-1.6875;2.5625
1.0;0.5819091796875;-0.24810791015625;-0.54052734375;0.55462646484375;11.072461785619822;12.88384748590014;5.411257300580149;-0.3466796875;0.8544921875;0.18505859375;0.1875;-2.4375;3.25
1.0;0.5826416015625;-0.248779296875;-0.5394287109375;0.55462646484375;11.064908824063126;12.891593276660748;5.416287604078217;-0.3291015625;0.845703125;0.20068359375;2.4375;-1.3125;2.5
1.0;0.58367919921875;-0.2491455078125;-0.53814697265625;0.55462646484375;11.060090379156284;12.900477058371973;5.423746639025605;-0.31689453125;0.86669921875;0.1982421875;6.6875;4.4375;3.5625
1.0;0.58447265625;-0.24908447265625;-0.537353515625;0.55462646484375;11.059961972832463;12.905981986878999;5.429541773132477;-0.328125;0.8681640625;0.1875;6.3125;6.625;3.375
1.0;0.58599853515625;-0.24957275390625;-0.53619384765625;0.55389404296875;11.060661847829424;12.91871258551104;5.435994280077388;-0.33935546875;0.84375;0.21240234375;5.8125;5.8125;1.875
1.0;0.58721923828125;-0.2501220703125;-0.53515625;0.5533447265625;11.059201284000187;12.929463258264104;5.441283240639945;-0.32666015625;0.85302734375;0.16650390625;9.6875;5.625;1.125
1.0;0.58782958984375;-0.25042724609375;-0.53436279296875;0.5533447265625;11.05537752565903;12.934983443855977;5.445586597297154;-0.34130859375;0.89501953125;0.16748046875;8.1875;4.375;1.25
1.0;0.589111328125;-0.25140380859375;-0.53289794921875;0.552978515625;11.047649599577168;12.94765498223035;5.452100381528782;-0.3359375;0.84765625;0.2021484375;6.125;4.1875;3.625
1.0;0.5909423828125;-0.2520751953125;-0.53094482421875;0.55255126953125;11.042353929180168;12.963536647725189;5.462904331066086;-0.3203125;0.84375;0.2021484375;12.6875;6.25;4.6875
1.0;0.591796875;-0.25177001953125;-0.53045654296875;0.55218505859375;11.047699630636139;12.968850763220939;5.467460429486099;-0.3056640625;0.8505859375;0.1494140625;11.25;9.0625;3.4375
1.0;0.59271240234375;-0.251953125;-0.52978515625;0.55181884765625;11.048534841581613;12.975986757542719;5.471668345016957;-0.33935546875;0.86572265625;0.1708984375;4.25;5.0;-1.3125
1.0;0.59271240234375;-0.25146484375;-0.5296630859375;0.55218505859375;11.049756926081018;12.974340079891046;5.474247722715833;-0.31689453125;0.892578125;0.150390625;4.6875;3.875;-1.1875
1.0;0.5926513671875;-0.2509765625;-0.5296630859375;0.552490234375;11.051681361500389;12.972246395483198;5.476010635524063;-0.3349609375;0.87841796875;0.12841796875;-4.8125;1.4375;-0.0625
1.0;0.59271240234375;-0.2506103515625;-0.52978515625;0.552490234375;11.055399451117772;12.971377223776908;5.476650592424759;-0.32666015625;0.88330078125;0.1376953125;-4.25;1.25;-1.125
1.0;0.59283447265625;-0.25;-0.53021240234375;0.55218505859375;11.064450906483714;12.970174101097761;5.476196520047319;-0.326171875;0.880859375;0.126953125;-3.8125;0.125;-2.625
1.0;0.59332275390625;-0.24969482421875;-0.53009033203125;0.55194091796875;11.06948528257341;12.9725834417721;5.478427499507823;-0.345703125;0.8408203125;0.126953125;-2.75;-0.5;-2.9375
1.0;0.59393310546875;-0.24969482421875;-0.5301513671875;0.55120849609375;11.076174596245211;12.976911753412752;5.478415128297099;-0.3369140625;0.87109375;0.14404296875;0.1875;2.0625;-1.9375
1.0;0.5933837890625;-0.2496337890625;-0.53131103515625;0.55072021484375;11.082924059278396;12.972392223234033;5.471086737075297;-0.3505859375;0.88134765625;0.1376953125;2.75;-0.4375;-2.75
1.0;0.59136962890625;-0.2491455078125;-0.53338623046875;0.55108642578125;11.08706539037597;12.95587651008069;5.458554362373437;-0.3466796875;0.861328125;0.13134765625;-3.9375;-7.0;-3.6875
1.0;0.58941650390625;-0.24896240234375;-0.53521728515625;0.55145263671875;11.08772532990071;12.94096851493902;5.446412169789472;-0.3291015625;0.83984375;0.16796875;-11.5625;-11.0;-4.0625
1.0;0.587646484375;-0.24871826171875;-0.5364990234375;0.55224609375;11.084478373091276;12.927190726626513;5.438188831577782;-0.33251953125;0.8369140625;0.1826171875;-9.3125;-10.625;-1.8125
1.0;0.5850830078125;-0.247802734375;-0.53790283203125;0.55401611328125;11.078496358258928;12.905749982461124;5.430998351205677;-0.33837890625;0.87451171875;0.1689453125;-11.5;-8.1875;-0.1875
1.0;0.5823974609375;-0.24652099609375;-0.5394287109375;0.55584716796875;11.075055743394593;12.882501525378203;5.424038375953273;-0.33203125;0.8671875;0.18212890625;-19.0625;-7.1875;1.0625
1.0;0.5810546875;-0.24615478515625;-0.5400390625;0.556884765625;11.069737475283393;12.871613031232187;5.420773799879919;-0.33935546875;0.8271484375;0.21923828125;-18.1875;-6.0;1.625
1.0;0.5806884765625;-0.24609375;-0.53997802734375;0.557373046875;11.065776562924079;12.86886519002384;5.421195817646745;-0.326171875;0.84912109375;0.228515625;-7.375;-2.4375;1.75
1.0;0.58013916015625;-0.2462158203125;-0.5400390625;0.55780029296875;11.060532882499453;12.865550534508635;5.419974108127342;-0.3330078125;0.87841796875;0.212890625;-1.6875;0.375;1.5
1.0;0.580078125;-0.24658203125;-0.539794921875;0.55792236328125;11.05556517906912;12.866492584996456;5.420159856719029;-0.322265625;0.8486328125;0.20458984375;-2.25;-1.375;1.6875
1.0;0.5804443359375;-0.24676513671875;-0.53924560546875;0.5579833984375;11.052667763710856;12.869869006914143;5.423198243642545;-0.30712890625;0.85205078125;0.2041015625;1.75;0.1875;1.375
1.0;0.5811767578125;-0.2464599609375;-0.53839111328125;0.5582275390625;11.052659776988046;12.874129158559462;5.430228820308882;-0.30615234375;0.85888671875;0.193359375;2.4375;2.875;0.4375
1.0;0.58148193359375;-0.2454833984375;-0.53790283203125;0.55877685546875;11.056297600630502;12.873284215627383;5.436871508945146;-0.306640625;0.86767578125;0.1689453125;0.25;5.9375;-0.3125
1.0;0.58123779296875;-0.24444580078125;-0.53802490234375;0.55938720703125;11.060782997004788;12.868074020704562;5.439643532533998;-0.33642578125;0.8603515625;0.1748046875;-4.25;5.9375;-0.125
1.0;0.58111572265625;-0.2440185546875;-0.53802490234375;0.5596923828125;11.062012804958483;12.865845023423566;5.441051451027488;-0.34228515625;0.83642578125;0.20458984375;-5.25;3.3125;-0.25
1.0;0.5809326171875;-0.24395751953125;-0.537841796875;0.56005859375;11.058892385564855;12.864528636097683;5.442251573970565;-0.3447265625;0.8583984375;0.2138671875;-1.5;1.6875;0.625
1.0;0.5809326171875;-0.244140625;-0.53765869140625;0.5601806640625;11.055907522022771;12.865142906273055;5.442821729253694;-0.33349609375;0.853515625;0.2021484375;-1.0625;1.0;1.875
1.0;0.5814208984375;-0.24444580078125;-0.53704833984375;0.56011962890625;11.052884387436935;12.869783470094186;5.44588848088252;-0.3271484375;0.8525390625;0.20361328125;1.125;0.375;1.375
1.0;0.581298828125;-0.24407958984375;-0.53692626953125;0.56048583984375;11.052719275483586;12.867882366227539;5.4477895847491675;-0.32958984375;0.875;0.17578125;2.25;2.0;1.5625
1.0;0.58148193359375;-0.24365234375;-0.5367431640625;0.56072998046875;11.05464661448303;12.867626207429028;5.450717980700597;-0.33447265625;0.84765625;0.19140625;-2.5;1.5625;1.125
1.0;0.5819091796875;-0.2435302734375;-0.53643798828125;0.56060791015625;11.056538932066763;12.87035761431234;5.453285249207733;-0.3349609375;0.83447265625;0.20654296875;-0.3125;3.125;0.625
1.0;0.58209228515625;-0.2435302734375;-0.53619384765625;0.5606689453125;11.055777530028449;12.871676683127317;5.4549758248591065;-0.35205078125;0.8623046875;0.19091796875;2.0625;2.125;0.875
1.0;0.58209228515625;-0.243408203125;-0.53582763671875;0.56103515625;11.053004097069486;12.871522846725249;5.457630514596592;-0.3408203125;0.87060546875;0.1845703125;-0.1875;1.125;1.0
1.0;0.58197021484375;-0.2435302734375;-0.53558349609375;0.56134033203125;11.048721812318327;12.871187654411234;5.458657472145693;-0.3369140625;0.8544921875;0.18603515625;-1.375;1.8125;2.6875
1.0;0.58203125;-0.24395751953125;-0.5352783203125;0.5614013671875;11.043788492746598;12.87309027844152;5.4591519653203235;-0.3232421875;0.85302734375;0.19873046875;-0.125;0.8125;1.9375
1.0;0.58233642578125;-0.24432373046875;-0.53497314453125;0.56121826171875;11.041641659276735;12.876519262953275;5.459974111010231;-0.3271484375;0.86767578125;0.193359375;1.8125;0.0;2.0625
1.0;0.58245849609375;-0.24432373046875;-0.5345458984375;0.56146240234375;11.038754822204066;12.877629641245193;5.4626543487939845;-0.32568359375;0.86376953125;0.18115234375;2.25;0.3125;1.0625
1.0;0.58349609375;-0.24444580078125;-0.53350830078125;0.56134033203125;11.03760931723592;12.88555986809601;5.469425628110113;-0.3056640625;0.85107421875;0.20849609375;1.5625;2.9375;0.75
1.0;0.58404541015625;-0.2442626953125;-0.5328369140625;0.56146240234375;11.03734786556536;12.889089879075662;5.474568860407729;-0.3173828125;0.85888671875;0.17578125;4.875;5.5625;1.125
1.0;0.583984375;-0.2437744140625;-0.5325927734375;0.56195068359375;11.037148708388354;12.887214603237954;5.477740957357947;-0.33203125;0.88720703125;0.1748046875;0.5;4.375;0.875
1.0;0.58441162109375;-0.243896484375;-0.53216552734375;0.5618896484375;11.036146586724671;12.890660786675058;5.4803180847453925;-0.32666015625;0.84375;0.2001953125;-1.875;3.1875;1.125
1.0;0.58538818359375;-0.24493408203125;-0.531005859375;0.56158447265625;11.027834080137149;12.901112129274258;5.484640717085005;-0.3369140625;0.85107421875;0.2060546875;3.9375;2.625;1.875
1.0;0.58563232421875;-0.24505615234375;-0.5302734375;0.5618896484375;11.022615155827719;12.903697227391687;5.488753992214061;-0.310546875;0.89501953125;0.17578125;7.9375;3.0;2.9375
1.0;0.5860595703125;-0.24462890625;-0.5294189453125;0.56243896484375;11.020549523962332;12.905586982911647;5.495860844902316;-0.31005859375;0.87255859375;0.18212890625;1.125;3.5625;2.1875
1.0;0.587158203125;-0.24395751953125;-0.5283203125;0.56268310546875;11.023503807042644;12.91128249863351;5.505904900455444;-0.29736328125;0.85546875;0.19775390625;0.5625;6.875;0.875
1.0;0.58831787109375;-0.24298095703125;-0.52716064453125;0.56292724609375;11.028771736316486;12.916773014606514;5.517190536322745;-0.322265625;0.85498046875;0.208984375;4.0625;10.3125;0.5
1.0;0.58966064453125;-0.24224853515625;-0.52581787109375;0.5631103515625;11.0322026606156;12.92424409728197;5.529005754118363;-0.34326171875;0.84619140625;0.1923828125;2.75;11.125;0.875
1.0;0.5906982421875;-0.24267578125;-0.52459716796875;0.56298828125;11.027455108479977;12.933315171139956;5.5357201085551555;-0.35693359375;0.85791015625;0.18994140625;4.3125;10.875;2.625
1.0;0.59161376953125;-0.24346923828125;-0.52374267578125;0.56243896484375;11.023420762398048;12.94272196139603;5.538669411909101;-0.34716796875;0.85986328125;0.19189453125;7.9375;6.0;5.125
1.0;0.5926513671875;-0.24432373046875;-0.5224609375;0.562255859375;11.015251236463024;12.952999242066351;5.54434901337252;-0.32568359375;0.8583984375;0.150390625;7.3125;1.5625;2.625
1.0;0.59326171875;-0.24456787109375;-0.52117919921875;0.56268310546875;11.006942265881456;12.958566098928486;5.551696474075307;-0.31298828125;0.8662109375;0.1298828125;5.6875;3.6875;4.0625
1.0;0.593505859375;-0.24346923828125;-0.5208740234375;0.56317138671875;11.012408109352464;12.956881296773332;5.557635986123712;-0.27880859375;0.8876953125;0.12060546875;0.0;5.625;2.125
1.0;0.5933837890625;-0.24298095703125;-0.5206298828125;0.563720703125;11.011628245634528;12.954577688209001;5.560760893065947;-0.353515625;0.87158203125;0.1318359375;-6.25;4.6875;0.4375
1.0;0.59356689453125;-0.24261474609375;-0.52008056640625;0.56414794921875;11.010172412251569;12.955003032638905;5.565456004061454;-0.34130859375;0.845703125;0.154296875;-3.9375;2.1875;2.375
1.0;0.5933837890625;-0.24169921875;-0.52032470703125;0.56451416015625;11.015988177631101;12.950673061663133;5.567127174926192;-0.31396484375;0.87255859375;0.1513671875;-2.125;3.875;0.875
1.0;0.593994140625;-0.2420654296875;-0.5203857421875;0.563720703125;11.019981300916434;12.955959220663143;5.565987924525704;-0.3564453125;0.8505859375;0.185546875;-3.8125;2.0625;-0.3125
1.0;0.5933837890625;-0.24212646484375;-0.5223388671875;0.5625;11.03351950746476;12.951237602880457;5.553349974282192;-0.34619140625;0.8984375;0.173828125;5.8125;-0.625;-1.5
1.0;0.592041015625;-0.24359130859375;-0.52484130859375;0.56097412109375;11.037471855335571;12.945547563378021;5.531895723857054;-0.37646484375;0.86767578125;0.1689453125;-0.25;-11.1875;-5.9375
1.0;0.5909423828125;-0.24566650390625;-0.5264892578125;0.5596923828125;11.03192244028342;12.943948653353349;5.513616057043644;-0.35107421875;0.8310546875;0.1708984375;2.1875;-19.5;-3.375
1.0;0.58929443359375;-0.2464599609375;-0.52801513671875;0.55963134765625;11.027095293499702;12.934479728038832;5.500248305686026;-0.30078125;0.86767578125;0.1416015625;3.0625;-17.875;-2.1875
1.0;0.5863037109375;-0.24578857421875;-0.530029296875;0.5611572265625;11.022250454809523;12.910700226749242;5.488220580536896;-0.30712890625;0.88818359375;0.130859375;-7.9375;-13.5625;-1.8125
1.0;0.5838623046875;-0.24530029296875;-0.53173828125;0.562255859375;11.018789507425534;12.89162841925213;5.477677113382678;-0.33056640625;0.84619140625;0.1806640625;-19.4375;-11.6875;0.625
1.0;0.5826416015625;-0.2454833984375;-0.53253173828125;0.562744140625;11.013663621525364;12.883350790831956;5.471427192033367;-0.32373046875;0.83251953125;0.22314453125;-12.625;-9.25;0.4375
1.0;0.5823974609375;-0.24591064453125;-0.532470703125;0.56280517578125;11.00867443342335;12.88326201608944;5.470009988407293;-0.31494140625;0.8505859375;0.22265625;-3.6875;-5.0625;0.875
1.0;0.582275390625;-0.24609375;-0.53228759765625;0.56304931640625;11.004532129340326;12.883032825795448;5.470483666423037;-0.30126953125;0.8662109375;0.20166015625;0.9375;-1.5625;0.75
1.0;0.58233642578125;-0.24639892578125;-0.5318603515625;0.56329345703125;10.998977549817031;12.88453164542157;5.472187567814891;-0.31494140625;0.857421875;0.1923828125;0.0625;0.375;1.625
1.0;0.58270263671875;-0.2464599609375;-0.5311279296875;0.56353759765625;10.995093196517526;12.887651390441265;5.47667431447953;-0.30126953125;0.8720703125;0.185546875;0.375;1.1875;1.5
1.0;0.5830078125;-0.24609375;-0.53076171875;0.563720703125;10.996447810202227;12.888709667834814;5.480428930810313;-0.29248046875;0.880859375;0.18359375;1.1875;3.9375;0.4375
1.0;0.5828857421875;-0.24554443359375;-0.53076171875;0.5640869140625;10.998335828170276;12.886060838626795;5.4823007232262295;-0.306640625;0.884765625;0.18115234375;-1.0;3.4375;-1.3125
1.0;0.58319091796875;-0.2452392578125;-0.5306396484375;0.5640869140625;11.001382611320462;12.887035132899998;5.48447701346191;-0.31494140625;0.86962890625;0.1962890625;-2.625;2.1875;-1.25
1.0;0.58331298828125;-0.24505615234375;-0.5303955078125;0.564208984375;11.001473995565256;12.887531443991922;5.486590445223966;-0.3271484375;0.86376953125;0.1875;0.0625;2.25;-0.5
1.0;0.5830078125;-0.24420166015625;-0.53070068359375;0.56463623046875;11.006210819101504;12.882431427225463;5.487582179075247;-0.31201171875;0.880859375;0.17822265625;-1.1875;2.0625;-0.875
1.0;0.58245849609375;-0.2435302734375;-0.53094482421875;0.56524658203125;11.007240054605575;12.876392992613512;5.488050472787509;-0.33349609375;0.86572265625;0.1875;-5.5625;1.125;-1.375
1.0;0.58209228515625;-0.242919921875;-0.53118896484375;0.565673828125;11.009504683181735;12.87173294984337;5.488485235196387;-0.32275390625;0.853515625;0.19287109375;-6.0625;0.375;-0.4375
1.0;0.5819091796875;-0.2425537109375;-0.53125;0.56597900390625;11.01033535727817;12.869207247255947;5.4893147807771845;-0.33154296875;0.85009765625;0.1982421875;-4.3125;0.75;0.0625
1.0;0.58197021484375;-0.2423095703125;-0.5311279296875;0.56610107421875;11.011270819745473;12.868969421980696;5.490899259890834;-0.322265625;0.84716796875;0.2041015625;-1.8125;1.0625;-0.0625
1.0;0.58184814453125;-0.2418212890625;-0.53125;0.5662841796875;11.014266655820146;12.866582209201274;5.491697819340164;-0.3251953125;0.8623046875;0.1884765625;-1.0;1.375;-0.3125
1.0;0.58172607421875;-0.24151611328125;-0.5313720703125;0.56646728515625;11.015811536542445;12.864588803983043;5.492020691043832;-0.337890625;0.86474609375;0.193359375;-2.75;0.8125;-0.375
1.0;0.58172607421875;-0.24114990234375;-0.53131103515625;0.566650390625;11.017443375730188;12.8634998340907;5.493621518978336;-0.33349609375;0.85986328125;0.19677734375;-2.0;0.5;-0.25
1.0;0.5816650390625;-0.24072265625;-0.5313720703125;0.56689453125;11.01958289164938;12.86151723638074;5.494822209809351;-0.32373046875;0.8564453125;0.19091796875;-1.8125;1.375;-0.1875
1.0;0.5814208984375;-0.240478515625;-0.531494140625;0.56707763671875;11.020152778132942;12.859139037049076;5.494638986109131;-0.34033203125;0.8505859375;0.19775390625;-2.0625;1.3125;0.25
1.0;0.5814208984375;-0.240478515625;-0.531494140625;0.56707763671875;11.020152778132942;12.859139037049076;5.494638986109131;-0.33642578125;0.8525390625;0.2080078125;-1.4375;-0.1875;0.625
1.0;0.5814208984375;-0.240478515625;-0.53155517578125;0.56707763671875;11.020449296140628;12.858965788164898;5.49438083994309;-0.326171875;0.8603515625;0.19140625;0.625;-0.75;0.4375
1.0;0.5814208984375;-0.240478515625;-0.53155517578125;0.56707763671875;11.020449296140628;12.858965788164898;5.49438083994309;-0.3232421875;0.84228515625;0.2041015625;-0.625;-0.5625;0.125
1.0;0.5814208984375;-0.24041748046875;-0.53155517578125;0.56707763671875;11.020933830677874;12.858834462381374;5.494538806036068;-0.3251953125;0.8564453125;0.1962890625;-0.1875;0.625;0.25
1.0;0.58154296875;-0.24072265625;-0.5313720703125;0.5670166015625;11.018439699762123;12.860684943362402;5.494738237705438;-0.32177734375;0.84521484375;0.20361328125;-0.875;-0.0625;0.25
1.0;0.5819091796875;-0.24102783203125;-0.53094482421875;0.56683349609375;11.016392465871903;12.86457606769309;5.496399001168177;-0.31982421875;0.8662109375;0.2080078125;2.5;0.3125;0.625
1.0;0.58233642578125;-0.2412109375;-0.530517578125;0.5667724609375;11.014904584529162;12.868145257423032;5.498810385420667;-0.3173828125;0.86328125;0.19189453125;3.125;1.5;0.9375
1.0;0.58258056640625;-0.2413330078125;-0.5302734375;0.56671142578125;11.01405291446726;12.87028962263969;5.500086306680354;-0.32470703125;0.8564453125;0.19287109375;2.625;1.875;1.25
1.0;0.58282470703125;-0.24163818359375;-0.52996826171875;0.56658935546875;11.011774355849633;12.873157705791687;5.501012274751188;-0.32763671875;0.86279296875;0.197265625;2.0625;1.0625;0.8125
1.0;0.5831298828125;-0.241943359375;-0.5296630859375;0.56646728515625;11.009739253860932;12.876282649562734;5.502110037501632;-0.3203125;0.8603515625;0.193359375;2.5;0.5625;1.25
1.0;0.583251953125;-0.2421875;-0.52960205078125;0.5662841796875;11.008971500493045;12.877970382805964;5.501685805361055;-0.326171875;0.861328125;0.18359375;2.3125;0.5;1.1875
1.0;0.583984375;-0.24267578125;-0.52899169921875;0.56591796875;11.007001251957668;12.88479008043656;5.504280907336867;-0.326171875;0.85205078125;0.205078125;2.875;0.0;0.8125
1.0;0.5845947265625;-0.24298095703125;-0.52850341796875;0.56561279296875;11.0062559741923;12.890197234044038;5.506621947196447;-0.32763671875;0.85791015625;0.18603515625;5.9375;1.8125;1.75
1.0;0.5849609375;-0.24334716796875;-0.528076171875;0.56549072265625;11.003368668004889;12.894051690062573;5.508241440065621;-0.3349609375;0.8603515625;0.17529296875;3.9375;1.75;1.5625
1.0;0.58502197265625;-0.24365234375;-0.52783203125;0.56549072265625;10.999994045315892;12.895650252796758;5.508641925172196;-0.322265625;0.8740234375;0.17236328125;2.3125;0.875;1.625
1.0;0.5848388671875;-0.24365234375;-0.5277099609375;0.5657958984375;10.997033857579027;12.894424548474904;5.509285823548598;-0.32177734375;0.8701171875;0.16455078125;-0.0625;-0.625;1.625
1.0;0.58441162109375;-0.243408203125;-0.528076171875;0.56597900390625;10.998086352874937;12.890588067060001;5.507563298904894;-0.31787109375;0.8681640625;0.18408203125;-1.625;0.3125;1.0625
1.0;0.5843505859375;-0.24346923828125;-0.528076171875;0.5660400390625;10.997033766615434;12.890301144495039;5.507360457840143;-0.32861328125;0.8662109375;0.2021484375;-2.3125;-1.375;-0.3125
1.0;0.58453369140625;-0.24365234375;-0.5279541015625;0.56585693359375;10.996691573409871;12.892287933718373;5.507523210025602;-0.3125;0.86328125;0.1923828125;0.625;-0.8125;0.3125
1.0;0.58453369140625;-0.24365234375;-0.5279541015625;0.56585693359375;10.996691573409871;12.892287933718373;5.507523210025602;-0.3154296875;0.8681640625;0.1875;1.75;0.1875;-0.1875
1.0;0.584716796875;-0.2435302734375;-0.52783203125;0.56585693359375;10.997788566168955;12.893144860168263;5.508876136462458;-0.31591796875;0.86328125;0.18896484375;0.9375;0.9375;0.3125
1.0;0.58489990234375;-0.24359130859375;-0.5277099609375;0.56573486328125;10.99808598921726;12.894711853832082;5.509489158531403;-0.32080078125;0.85595703125;0.1904296875;0.9375;1.375;-0.125
1.0;0.58514404296875;-0.24371337890625;-0.5274658203125;0.56561279296875;10.997541044426852;12.897011606037475;5.510628843902782;-0.318359375;0.859375;0.18798828125;1.5625;0.875;-0.0625
1.0;0.58526611328125;-0.24371337890625;-0.52728271484375;0.565673828125;10.996798949858142;12.897883977590983;5.511875174934636;-0.3193359375;0.86572265625;0.18505859375;1.75;0.8125;0.125
1.0;0.58551025390625;-0.24371337890625;-0.5272216796875;0.5655517578125;10.998121895545754;12.899405437674087;5.51256485683615;-0.31298828125;0.87158203125;0.1875;0.5;1.3125;-0.125
1.0;0.58551025390625;-0.24371337890625;-0.52716064453125;0.5655517578125;10.997820213405697;12.89957844205988;5.512821747352232;-0.318359375;0.86376953125;0.1796875;1.0;0.6875;-0.5625
1.0;0.58551025390625;-0.24371337890625;-0.52716064453125;0.5655517578125;10.997820213405697;12.89957844205988;5.512821747352232;-0.31982421875;0.8623046875;0.18017578125;0.75;0.625;-0.375
1.0;0.5855712890625;-0.24371337890625;-0.52716064453125;0.56549072265625;10.998388832218051;12.899995855276835;5.512865254901906;-0.32373046875;0.85693359375;0.16943359375;0.8125;0.5;-0.125
1.0;0.58551025390625;-0.243408203125;-0.5272216796875;0.56561279296875;11.000211299008892;12.898597414863879;5.5134967728825055;-0.32666015625;0.86328125;0.17138671875;-0.4375;0.625;-0.1875
1.0;0.58551025390625;-0.24346923828125;-0.5272216796875;0.56561279296875;10.99972832857577;12.898726909007578;5.513336298456313;-0.33154296875;0.86376953125;0.1865234375;-1.3125;0.5625;-0.0625
1.0;0.5855712890625;-0.24346923828125;-0.5272216796875;0.56561279296875;10.999971685054053;12.898983877040378;5.513509321610396;-0.31640625;0.86474609375;0.1728515625;0.5625;0.4375;-0.0625
1.0;0.58538818359375;-0.2430419921875;-0.52734375;0.5657958984375;11.002250421064241;12.896478969445528;5.513987662031395;-0.328125;0.86962890625;0.17578125;-0.9375;0.5625;-0.6875
1.0;0.5853271484375;-0.24273681640625;-0.5274658203125;0.56585693359375;11.004700510764177;12.895067803224045;5.514231509523317;-0.32763671875;0.8662109375;0.1875;-2.375;0.5;-0.875
1.0;0.58563232421875;-0.2427978515625;-0.52728271484375;0.56573486328125;11.00517976905628;12.897323246647414;5.51544923117202;-0.32470703125;0.85205078125;0.19091796875;-1.0625;0.4375;-0.5
1.0;0.5859375;-0.24273681640625;-0.527099609375;0.56561279296875;11.00662350076569;12.899320247415506;5.516988253008687;-0.31640625;0.86181640625;0.1826171875;1.875;1.25;-0.375
1.0;0.5859375;-0.24237060546875;-0.527099609375;0.565673828125;11.00919779847769;12.898384376393622;5.518080798998138;-0.3203125;0.86572265625;0.18017578125;0.8125;1.625;-0.625
1.0;0.5860595703125;-0.24212646484375;-0.5272216796875;0.56561279296875;11.012544735227344;12.898196545807071;5.51842542231585;-0.32470703125;0.85791015625;0.181640625;-1.1875;1.0;-0.875
1.0;0.5860595703125;-0.24188232421875;-0.52740478515625;0.5655517578125;11.01570785438103;12.897320575866553;5.518165822469969;-0.326171875;0.86279296875;0.17724609375;-0.8125;0.5;-1.5
1.0;0.5860595703125;-0.24188232421875;-0.52740478515625;0.5655517578125;11.01570785438103;12.897320575866553;5.518165822469969;-0.3330078125;0.86572265625;0.18798828125;-0.625;0.125;-1.0625
1.0;0.5860595703125;-0.24188232421875;-0.52740478515625;0.5655517578125;11.01570785438103;12.897320575866553;5.518165822469969;-0.3193359375;0.8603515625;0.1865234375;-0.5625;0.1875;-0.875
1.0;0.5860595703125;-0.24188232421875;-0.52740478515625;0.5655517578125;11.01570785438103;12.897320575866553;5.518165822469969;-0.32666015625;0.85986328125;0.1806640625;-0.0625;0.75;-0.875
1.0;0.5860595703125;-0.2418212890625;-0.52740478515625;0.5655517578125;11.016191340815512;12.89719142822197;5.51832626972044;-0.3291015625;0.8642578125;0.1826171875;0.4375;0.875;-0.5625
1.0;0.5860595703125;-0.2418212890625;-0.52740478515625;0.5655517578125;11.016191340815512;12.89719142822197;5.51832626972044;-0.3359375;0.85595703125;0.18359375;-0.6875;0.4375;-0.75
1.0;0.5863037109375;-0.24188232421875;-0.52740478515625;0.5653076171875;11.017979348362315;12.898992552374011;5.51834288614662;-0.3271484375;0.8623046875;0.1875;0.5;0.375;-0.5625
1.0;0.58648681640625;-0.241943359375;-0.52740478515625;0.5650634765625;11.019525125306124;12.90053630589716;5.518186589783785;-0.3271484375;0.86328125;0.1826171875;1.375;0.1875;-0.75
1.0;0.58648681640625;-0.24169921875;-0.52764892578125;0.56500244140625;11.022989557531842;12.899486528953299;5.51766941711404;-0.32373046875;0.86767578125;0.1728515625;1.0;-0.3125;-1.125
1.0;0.58648681640625;-0.24151611328125;-0.5277099609375;0.56494140625;11.025066901373474;12.899086301452755;5.517764146846182;-0.326171875;0.8623046875;0.17919921875;-1.1875;-0.25;-1.625
1.0;0.58648681640625;-0.24151611328125;-0.52777099609375;0.56494140625;11.025367950415102;12.898912641364959;5.517506463931417;-0.32568359375;0.86572265625;0.18603515625;-0.1875;0.3125;-1.1875
1.0;0.58648681640625;-0.24151611328125;-0.52777099609375;0.56494140625;11.025367950415102;12.898912641364959;5.517506463931417;-0.326171875;0.853515625;0.1865234375;-0.3125;0.4375;-0.9375
1.0;0.5865478515625;-0.24151611328125;-0.52777099609375;0.56494140625;11.025610025385772;12.899170320035093;5.517680128263845;-0.3291015625;0.85302734375;0.1845703125;0.125;0.8125;-0.5
1.0;0.586669921875;-0.24139404296875;-0.52764892578125;0.56494140625;11.026458794920092;12.89977511647455;5.518863798941881;-0.326171875;0.85546875;0.17333984375;0.875;0.5625;0.0625
1.0;0.586669921875;-0.24139404296875;-0.52764892578125;0.56494140625;11.026458794920092;12.89977511647455;5.518863798941881;-0.326171875;0.8583984375;0.1787109375;-0.125;1.0625;0.0
1.0;0.586669921875;-0.2413330078125;-0.52764892578125;0.56494140625;11.026942328904669;12.899646193470446;5.5190243003222905;-0.33349609375;0.8642578125;0.17919921875;-0.0625;0.6875;-0.3125
1.0;0.58685302734375;-0.2413330078125;-0.527587890625;0.5648193359375;11.028018314817729;12.90091416995653;5.519545389559233;-0.3310546875;0.85693359375;0.18408203125;-0.25;0.1875;-0.4375
1.0;0.58721923828125;-0.2413330078125;-0.52734375;0.56463623046875;11.029239993500322;12.903637538081467;5.521232572751502;-0.33544921875;0.86474609375;0.1884765625;1.1875;0.5625;0.0625
1.0;0.58746337890625;-0.24151611328125;-0.52703857421875;0.5645751953125;11.02757240823724;12.906083807612928;5.522605038423015;-0.3359375;0.857421875;0.1708984375;1.5;1.1875;0.75
1.0;0.58746337890625;-0.24151611328125;-0.52703857421875;0.5645751953125;11.02757240823724;12.906083807612928;5.522605038423015;-0.32958984375;0.8740234375;0.17724609375;1.5625;0.9375;0.875
1.0;0.58734130859375;-0.2412109375;-0.5272216796875;0.564697265625;11.029760474124146;12.904082544817719;5.522545768376983;-0.33349609375;0.865234375;0.173828125;-0.875;0.4375;0.1875
1.0;0.58734130859375;-0.2412109375;-0.5272216796875;0.564697265625;11.029760474124146;12.904082544817719;5.522545768376983;-0.3349609375;0.85595703125;0.18603515625;-1.75;0.0;-0.3125
1.0;0.58746337890625;-0.241455078125;-0.52703857421875;0.56463623046875;11.027729843029565;12.905794359763677;5.5228944862722695;-0.3310546875;0.85107421875;0.18798828125;0.125;-0.1875;0.375
1.0;0.58770751953125;-0.24163818359375;-0.5267333984375;0.5645751953125;11.026059966857769;12.90823993026804;5.524266113205807;-0.32177734375;0.8603515625;0.18115234375;1.875;0.3125;0.875
1.0;0.5877685546875;-0.24188232421875;-0.52655029296875;0.5645751953125;11.023461055210248;12.909532192823425;5.5245680429373305;-0.330078125;0.85888671875;0.1728515625;1.3125;0.6875;1.375
1.0;0.58782958984375;-0.24212646484375;-0.52630615234375;0.56463623046875;11.020233470405385;12.910836444705053;5.525255079953765;-0.3251953125;0.865234375;0.1728515625;0.625;-0.0625;1.375
1.0;0.58782958984375;-0.24212646484375;-0.5263671875;0.56463623046875;11.020536084876214;12.910662877823674;5.524997682792248;-0.3251953125;0.86865234375;0.16943359375;0.25;-0.1875;1.25
1.0;0.58782958984375;-0.2420654296875;-0.5263671875;0.56463623046875;11.021019211383397;12.910534497739627;5.525158898095285;-0.3310546875;0.8662109375;0.18505859375;-0.125;-0.6875;0.375
1.0;0.58782958984375;-0.241943359375;-0.52618408203125;0.5648193359375;11.020100490125001;12.910314715065562;5.526638722842233;-0.3212890625;0.857421875;0.18310546875;0.75;0.875;0.4375
1.0;0.5880126953125;-0.24188232421875;-0.5260009765625;0.56488037109375;11.020072085949149;12.911317944927152;5.5282211136881125;-0.32958984375;0.84521484375;0.181640625;-0.6875;1.25;1.125
1.0;0.5885009765625;-0.24224853515625;-0.525390625;0.564697265625;11.017042174917634;12.9163646927578;5.530829062956726;-0.3349609375;0.8515625;0.2001953125;1.9375;1.75;1.3125
1.0;0.5892333984375;-0.2425537109375;-0.524658203125;0.56451416015625;11.01483676931942;12.922657158051118;5.534803855620944;-0.3251953125;0.85693359375;0.1962890625;5.375;2.375;2.375
1.0;0.59051513671875;-0.24322509765625;-0.5234375;0.56402587890625;11.01105373249992;12.934222609770714;5.540779175247951;-0.3134765625;0.84912109375;0.18701171875;5.8125;3.875;1.5625
1.0;0.59124755859375;-0.2430419921875;-0.5225830078125;0.5640869140625;11.010747808767373;12.93918804753073;5.547071198552996;-0.30810546875;0.8828125;0.16552734375;8.6875;5.25;1.375
1.0;0.59197998046875;-0.24273681640625;-0.52191162109375;0.5640869140625;11.012633468252819;12.943544650273246;5.552793494807033;-0.31201171875;0.87890625;0.17236328125;2.625;5.875;0.0625
1.0;0.5926513671875;-0.2421875;-0.5211181640625;0.56439208984375;11.013954559822078;12.94667021563213;5.560143436921029;-0.31396484375;0.86962890625;0.1669921875;2.0625;5.4375;-0.4375
1.0;0.593505859375;-0.2418212890625;-0.520263671875;0.56439208984375;11.015835021076331;12.951939708203232;5.567151192444058;-0.328125;0.86474609375;0.18212890625;1.5625;7.125;1.125
1.0;0.5946044921875;-0.24169921875;-0.51922607421875;0.564208984375;11.01674433463491;12.959753946635129;5.574591860437049;-0.337890625;0.83837890625;0.1845703125;4.25;6.875;1.5625
1.0;0.59625244140625;-0.24151611328125;-0.5177001953125;0.56402587890625;11.017705091566818;12.971143693942343;5.585813870887477;-0.30859375;0.859375;0.1669921875;5.375;7.1875;0.125
1.0;0.596923828125;-0.24072265625;-0.51690673828125;0.56439208984375;11.020531122343662;12.973617678413575;5.593957982182105;-0.31591796875;0.90283203125;0.13720703125;5.3125;9.8125;0.125
1.0;0.5966796875;-0.2391357421875;-0.5172119140625;0.56500244140625;11.030472590112876;12.966855873152358;5.597528725593659;-0.32958984375;0.91796875;0.13818359375;-2.5;7.25;-0.9375
1.0;0.59649658203125;-0.23779296875;-0.5179443359375;0.56512451171875;11.043495309857335;12.96095970815792;5.597806891885698;-0.34375;0.865234375;0.162109375;-8.0;3.875;-3.3125
1.0;0.59716796875;-0.23779296875;-0.51763916015625;0.56475830078125;11.046431326843681;12.965659761008872;5.600265098412224;-0.3544921875;0.80859375;0.1630859375;-5.4375;0.875;-3.25
1.0;0.59796142578125;-0.2373046875;-0.5174560546875;0.564208984375;11.055285527453076;12.970047420693383;5.603517306245726;-0.318359375;0.84326171875;0.14794921875;3.125;2.4375;-1.1875
1.0;0.5985107421875;-0.23699951171875;-0.517333984375;0.56390380859375;11.060773326280938;12.972937863928614;5.605815635127084;-0.353515625;0.86669921875;0.13671875;1.6875;2.9375;-2.1875
1.0;0.5987548828125;-0.23675537109375;-0.51708984375;0.56396484375;11.062053790413394;12.974011150309764;5.60833195186196;-0.35302734375;0.85595703125;0.1328125;0.25;1.5;-0.6875
1.0;0.5986328125;-0.23638916015625;-0.516845703125;0.564453125;11.060652057673405;12.972125061327382;5.6109942289419825;-0.33837890625;0.85693359375;0.1376953125;-1.25;2.0;0.4375
1.0;0.59869384765625;-0.2362060546875;-0.5166015625;0.56475830078125;11.0594619077605;12.971879628338167;5.6133118233762405;-0.33154296875;0.84228515625;0.14892578125;-3.4375;1.8125;1.8125
1.0;0.5986328125;-0.23565673828125;-0.5166015625;0.56494140625;11.062615974995422;12.970023038491515;5.61500196954878;-0.3291015625;0.857421875;0.15673828125;-1.1875;1.9375;0.875
1.0;0.5986328125;-0.2352294921875;-0.51678466796875;0.56494140625;11.066940170462836;12.968647857137347;5.615389842804092;-0.333984375;0.84423828125;0.16552734375;-1.875;2.0;-0.5
1.0;0.5989990234375;-0.235595703125;-0.5167236328125;0.56451416015625;11.067367921615284;12.972270881096446;5.61483871927568;-0.3505859375;0.84521484375;0.18701171875;0.3125;1.0;-0.6875
1.0;0.59857177734375;-0.23577880859375;-0.5169677734375;0.56463623046875;11.064911374800165;12.969798349712788;5.6123328491930415;-0.34521484375;0.8701171875;0.16015625;3.4375;-0.75;0.375
1.0;0.59844970703125;-0.2359619140625;-0.5167236328125;0.56494140625;11.060131744063149;12.969510616545833;5.613132405581776;-0.32763671875;0.86083984375;0.16162109375;-1.3125;-2.5;0.625
1.0;0.5982666015625;-0.23577880859375;-0.5164794921875;0.5654296875;11.057055120199689;12.967731530546137;5.615123066900343;-0.3173828125;0.86865234375;0.15234375;-1.5;0.5;1.6875
1.0;0.59783935546875;-0.2352294921875;-0.51666259765625;0.56597900390625;11.057826228975891;12.96280474200596;5.615729808721135;-0.3251953125;0.87744140625;0.15380859375;-3.1875;1.125;1.0625
1.0;0.59783935546875;-0.2352294921875;-0.51666259765625;0.56597900390625;11.057826228975891;12.96280474200596;5.615729808721135;-0.337890625;0.85205078125;0.177734375;-3.9375;0.8125;0.5625
1.0;0.5980224609375;-0.235595703125;-0.5164794921875;0.5657958984375;11.055645894604723;12.965332742740584;5.615662045600949;-0.33984375;0.86279296875;0.171875;0.0625;0.375;0.8125
1.0;0.5980224609375;-0.235595703125;-0.51641845703125;0.5657958984375;11.055334631754372;12.965505958186906;5.615920728223599;-0.3212890625;0.87109375;0.15283203125;1.875;-0.375;0.4375
1.0;0.59820556640625;-0.23553466796875;-0.51611328125;0.56591796875;11.054299814009994;12.966693108520191;5.618144290061629;-0.32080078125;0.8662109375;0.15869140625;-0.5625;0.3125;-0.0625
1.0;0.59796142578125;-0.23516845703125;-0.51629638671875;0.566162109375;11.055929221518522;12.963740733899986;5.618161858409966;-0.33203125;0.88720703125;0.150390625;-0.625;1.8125;0.5
1.0;0.59796142578125;-0.23516845703125;-0.51629638671875;0.566162109375;11.055929221518522;12.963740733899986;5.618161858409966;-0.3291015625;0.85498046875;0.171875;-2.5;0.3125;-0.5
1.0;0.5980224609375;-0.2349853515625;-0.5162353515625;0.56622314453125;11.056976505897602;12.963639975134797;5.619214622311685;-0.33740234375;0.8603515625;0.16162109375;-0.125;-0.8125;-0.75
1.0;0.598388671875;-0.23486328125;-0.51611328125;0.5660400390625;11.059666910526314;12.965794247324718;5.620737759083745;-0.32275390625;0.84619140625;0.1669921875;0.0625;1.0625;-0.5
1.0;0.59820556640625;-0.23455810546875;-0.51617431640625;0.5662841796875;11.060419977134115;12.963569128840355;5.6212787679625436;-0.33642578125;0.87158203125;0.15576171875;0.8125;1.4375;-0.6875
1.0;0.59808349609375;-0.2342529296875;-0.5162353515625;0.56646728515625;11.061726375535866;12.961769186822155;5.6218706137904295;-0.33544921875;0.85791015625;0.15869140625;-2.6875;0.3125;0.0
1.0;0.59808349609375;-0.2342529296875;-0.5162353515625;0.56646728515625;11.061726375535866;12.961769186822155;5.6218706137904295;-0.328125;0.853515625;0.16943359375;-1.375;0.8125;-0.4375
1.0;0.597900390625;-0.23382568359375;-0.516357421875;0.56671142578125;11.063762189864764;12.95912669077357;5.622484001431053;-0.34228515625;0.8525390625;0.1630859375;-1.4375;-0.375;-0.5
1.0;0.59783935546875;-0.23345947265625;-0.516357421875;0.56695556640625;11.065149219254584;12.957470985193943;5.623795378686778;-0.32763671875;0.86376953125;0.1708984375;-1.3125;1.125;0.5
1.0;0.59765625;-0.23333740234375;-0.51641845703125;0.567138671875;11.0647736074881;12.955777784638562;5.6237149414018175;-0.34228515625;0.87255859375;0.17041015625;-1.75;1.0625;-0.25
1.0;0.59735107421875;-0.233154296875;-0.5167236328125;0.5672607421875;11.065991376720417;12.952917265176763;5.6222945114643395;-0.33251953125;0.865234375;0.16357421875;-2.25;-0.0625;0.25
1.0;0.5975341796875;-0.2333984375;-0.5167236328125;0.5670166015625;11.066031384836366;12.954847524789649;5.621661772383249;-0.33203125;0.845703125;0.17578125;-1.25;-1.0;-0.25
1.0;0.5975341796875;-0.23321533203125;-0.5167236328125;0.5670166015625;11.067487628256702;12.954481017875878;5.622159304693255;-0.3271484375;0.87060546875;0.162109375;1.6875;-0.5;-0.875
1.0;0.5972900390625;-0.2327880859375;-0.516845703125;0.56732177734375;11.068972644528683;12.951412542717351;5.622719092913115;-0.33251953125;0.87451171875;0.16015625;-1.0625;0.3125;-1.0625
1.0;0.5972900390625;-0.23272705078125;-0.51690673828125;0.56732177734375;11.0697683426438;12.951117201228207;5.6226252081131545;-0.33642578125;0.861328125;0.17431640625;-2.875;0.75;-0.25
1.0;0.59735107421875;-0.23291015625;-0.51690673828125;0.567138671875;11.069511975482355;12.952240534182165;5.621934608899267;-0.33935546875;0.85107421875;0.18408203125;-0.5625;0.0625;-0.375
1.0;0.59735107421875;-0.23291015625;-0.51690673828125;0.567138671875;11.069511975482355;12.952240534182165;5.621934608899267;-0.3349609375;0.8564453125;0.17138671875;1.625;-0.6875;0.25
1.0;0.59735107421875;-0.23291015625;-0.51690673828125;0.567138671875;11.069511975482355;12.952240534182165;5.621934608899267;-0.32861328125;0.86767578125;0.16455078125;0.5625;-0.0625;0.375
1.0;0.59735107421875;-0.23291015625;-0.51690673828125;0.567138671875;11.069511975482355;12.952240534182165;5.621934608899267;-0.33203125;0.85791015625;0.1669921875;-0.25;-0.625;-0.4375
1.0;0.59735107421875;-0.23291015625;-0.5169677734375;0.567138671875;11.069822013981982;12.952067349731873;5.621675059609489;-0.33154296875;0.85400390625;0.1689453125;-0.75;0.0625;0.375
1.0;0.59735107421875;-0.23291015625;-0.5169677734375;0.567138671875;11.069822013981982;12.952067349731873;5.621675059609489;-0.33154296875;0.857421875;0.171875;-0.25;0.75;0.25
1.0;0.59735107421875;-0.23291015625;-0.5169677734375;0.567138671875;11.069822013981982;12.952067349731873;5.621675059609489;-0.33984375;0.8662109375;0.16455078125;0.5625;0.375;0.375
1.0;0.59735107421875;-0.23291015625;-0.5169677734375;0.567138671875;11.069822013981982;12.952067349731873;5.621675059609489;-0.3359375;0.8671875;0.171875;0.5625;-0.25;0.0625
1.0;0.59759521484375;-0.23321533203125;-0.51708984375;0.56671142578125;11.071198059725377;12.954530028332282;5.620164941249155;-0.34716796875;0.8515625;0.1728515625;0.0625;-1.6875;-0.5625
1.0;0.5975341796875;-0.2330322265625;-0.51727294921875;0.566650390625;11.073680004111463;12.953549530305514;5.619587992003047;-0.330078125;0.86865234375;0.15478515625;2.625;0.0;0.5
1.0;0.5975341796875;-0.2330322265625;-0.51727294921875;0.56658935546875;11.074004341028337;12.953715214384093;5.619465764257476;-0.3466796875;0.86474609375;0.16015625;-1.1875;-0.75;-0.75
1.0;0.597412109375;-0.23297119140625;-0.5174560546875;0.56658935546875;11.074961926673348;12.952553503586941;5.618505810163022;-0.33544921875;0.85595703125;0.1689453125;-0.625;-0.875;-0.375
1.0;0.597412109375;-0.23297119140625;-0.51751708984375;0.56658935546875;11.075271618369392;12.952380054211147;5.61824621432342;-0.3408203125;0.85888671875;0.17138671875;-0.1875;-1.0625;0.0
1.0;0.597412109375;-0.23297119140625;-0.51751708984375;0.56658935546875;11.075271618369392;12.952380054211147;5.61824621432342;-0.328125;0.85693359375;0.16943359375;-0.9375;-0.4375;0.0625
1.0;0.59722900390625;-0.2330322265625;-0.51751708984375;0.56671142578125;11.07345091092137;12.951392528743536;5.617805070558088;-0.3359375;0.86767578125;0.16748046875;0.25;-0.0625;0.0
1.0;0.5970458984375;-0.23309326171875;-0.51776123046875;0.566650390625;11.073840782926322;12.950208046852534;5.615958596725917;-0.33154296875;0.8642578125;0.16748046875;-1.0625;-0.3125;0.5625
1.0;0.59698486328125;-0.23321533203125;-0.51788330078125;0.5665283203125;11.073908214254294;12.950177419185081;5.614690145943374;-0.33447265625;0.85498046875;0.17626953125;0.0;-1.5625;-0.25
1.0;0.5970458984375;-0.23358154296875;-0.51788330078125;0.56634521484375;11.072198556654499;12.951668530295892;5.613503506414381;-0.333984375;0.85888671875;0.16796875;0.625;-1.375;-0.125
1.0;0.59698486328125;-0.2333984375;-0.5179443359375;0.56640625;11.073410213446262;12.950702407372024;5.613689323303178;-0.32861328125;0.8681640625;0.16357421875;1.625;-1.125;0.0625
1.0;0.59710693359375;-0.23358154296875;-0.5177001953125;0.56646728515625;11.070850308284957;12.952117415471589;5.614700364095552;-0.34130859375;0.8525390625;0.1640625;-1.125;-0.25;0.375
1.0;0.59686279296875;-0.2333984375;-0.51788330078125;0.56658935546875;11.071668781974799;12.949860749382662;5.61396971807855;-0.333984375;0.87255859375;0.1552734375;0.1875;0.3125;1.1875
