1.0;-0.09710693359375;-0.47222900390625;-0.87200927734375;0.0849609375;7.554697185398429;11.822540793840957;0.1671188745229954;0.35107421875;1.02294921875;0.49169921875;26.375;-7.75;-5.875
1.0;-0.1002197265625;-0.470703125;-0.87200927734375;0.08978271484375;7.497207335254952;11.811606318699035;0.18472008040704532;0.29931640625;1.07373046875;0.51025390625;15.6875;14.5;20.25
1.0;-0.10772705078125;-0.46856689453125;-0.87158203125;0.09619140625;7.3864420646439655;11.798032264259259;0.1991320250657791;0.23388671875;0.8525390625;0.57421875;-6.3125;-3.4375;35.8125
1.0;-0.114990234375;-0.46728515625;-0.87030029296875;0.10546875;7.262148974618681;11.788273327180582;0.22869002028018015;0.396484375;0.7705078125;0.634765625;-3.5;-16.8125;46.4375
1.0;-0.11663818359375;-0.46685791015625;-0.8690185546875;0.11529541015625;7.191907072315065;11.780614186453375;0.27610107085070323;0.54443359375;0.85009765625;0.56787109375;-1.8125;-2.875;54.75
1.0;-0.11932373046875;-0.4608154296875;-0.8712158203125;0.120361328125;7.140887184177194;11.738108500526792;0.30202341007759;0.26806640625;0.89501953125;0.5517578125;3.5;15.4375;59.375
1.0;-0.12457275390625;-0.45098876953125;-0.8751220703125;0.123779296875;7.0752098437543385;11.67258727259256;0.31705972900231666;0.11474609375;0.7763671875;0.5810546875;-32.75;-2.625;46.0625
1.0;-0.1258544921875;-0.4442138671875;-0.878173828125;0.12554931640625;7.057657361645145;11.626514055830217;0.33087819720823414;0.28759765625;0.5068359375;0.5556640625;-51.0;-9.375;31.5
1.0;-0.124267578125;-0.43865966796875;-0.881103515625;0.12603759765625;7.075977507821739;11.588292635907504;0.3439143293586772;0.248046875;0.53173828125;0.5478515625;-34.0;2.3125;14.0
1.0;-0.1177978515625;-0.437255859375;-0.88262939453125;0.126708984375;7.1415580886325944;11.575488840768742;0.3656110902321138;0.27880859375;0.4970703125;0.50732421875;-28.1875;15.125;-2.5625
1.0;-0.10833740234375;-0.437744140625;-0.88372802734375;0.125732421875;7.245129510959823;11.57576783020067;0.3838171802301442;0.25830078125;0.5966796875;0.38671875;-10.375;38.4375;-13.125
1.0;-0.097412109375;-0.439697265625;-0.8846435546875;0.121337890625;7.379858446450672;11.587866972925678;0.386007539137315;0.21923828125;0.63232421875;0.361328125;-1.4375;47.1875;-27.875
1.0;-0.0869140625;-0.44189453125;-0.88525390625;0.11651611328125;7.511745664917701;11.602360960516684;0.38493331092604105;0.17333984375;0.63232421875;0.419921875;8.6875;42.5625;-48.3125
1.0;-0.0791015625;-0.44488525390625;-0.88507080078125;0.112060546875;7.61306882570804;11.622533293383368;0.3787172662042553;0.1435546875;0.58154296875;0.474609375;15.25;37.0625;-49.8125
1.0;-0.07257080078125;-0.45166015625;-0.88299560546875;0.105712890625;7.707795236784335;11.668543617368043;0.35691806025672507;0.123046875;0.638671875;0.5595703125;22.375;21.8125;-39.625
1.0;-0.06982421875;-0.4603271484375;-0.87939453125;0.0997314453125;7.760724110235715;11.727522170519876;0.32662576455493686;0.078125;0.7353515625;0.64013671875;45.875;4.6875;-43.375
1.0;-0.0682373046875;-0.46466064453125;-0.8780517578125;0.0927734375;7.811092022523019;11.758350181655944;0.29177219898924356;0.087890625;0.86962890625;0.595703125;50.75;-13.875;-30.75
1.0;-0.070068359375;-0.46746826171875;-0.87713623046875;0.08544921875;7.830000810239351;11.780190295751677;0.24717476578661324;0.0888671875;0.7822265625;0.7275390625;33.875;-20.5;-33.75
1.0;-0.061279296875;-0.4737548828125;-0.87457275390625;0.08355712890625;7.926033791196486;11.820243343453946;0.25719126115286156;0.43896484375;0.7666015625;0.619140625;18.1875;-22.25;-46.8125
1.0;-0.04461669921875;-0.47283935546875;-0.87646484375;0.07940673828125;8.118216611872386;11.812885050604729;0.2816477379950453;0.51904296875;0.96533203125;0.4287109375;29.5625;49.4375;-51.3125
1.0;-0.033935546875;-0.46563720703125;-0.881103515625;0.075927734375;8.250146572647381;11.766111844780562;0.2958006820987952;-0.029296875;1.02490234375;0.45751953125;-16.3125;67.5625;-53.625
1.0;-0.02789306640625;-0.45159912109375;-0.88861083984375;0.07537841796875;8.324349293440273;11.675426038611269;0.3144067936962881;0.048828125;0.9013671875;0.51708984375;-50.625;45.6875;-41.0625
1.0;-0.0196533203125;-0.4444580078125;-0.8922119140625;0.078125;8.400114430863693;11.629559713676173;0.3521095757372587;0.1005859375;0.59912109375;0.6513671875;-76.9375;35.25;-20.3125
1.0;-0.00457763671875;-0.44195556640625;-0.8934326171875;0.0806884765625;8.544046969225196;11.61591720416519;0.40403320370854;0.3193359375;0.6533203125;0.5908203125;-36.625;62.0;-21.0
1.0;0.0076904296875;-0.43634033203125;-0.89581298828125;0.0843505859375;8.656995179824335;11.583370589740193;0.4548653703985705;-9.765625E-4;0.88330078125;0.50537109375;-18.875;81.8125;-20.3125
1.0;0.019287109375;-0.42828369140625;-0.899169921875;0.0877685546875;8.767919871252095;11.53668890975907;0.5024781223695426;0.09326171875;0.9287109375;0.4423828125;-45.125;77.1875;-14.125
1.0;0.02825927734375;-0.4163818359375;-0.9044189453125;0.08892822265625;8.868560567428297;11.465955213552448;0.5313908950969471;0.0712890625;0.82421875;0.5078125;-53.3125;73.5;-14.875
1.0;0.0391845703125;-0.4173583984375;-0.9031982421875;0.09259033203125;8.962737871919895;11.478234468072323;0.5767146284087815;0.0234375;0.49951171875;0.583984375;-61.75;54.4375;-20.8125
1.0;0.05169677734375;-0.427978515625;-0.8970947265625;0.0970458984375;9.055499590036543;11.553515823245492;0.6306701987988128;0.0302734375;0.46923828125;0.5634765625;21.625;66.25;-7.8125
1.0;0.0614013671875;-0.4332275390625;-0.8935546875;0.10089111328125;9.127847021759596;11.59414756082406;0.6752951851371579;-0.0380859375;0.82568359375;0.490234375;65.4375;69.75;0.3125
1.0;0.06597900390625;-0.43072509765625;-0.8941650390625;0.10333251953125;9.166031594345739;11.5822264430428;0.6993772385288783;-0.04296875;0.90673828125;0.490234375;27.6875;56.0625;0.8125
1.0;0.07159423828125;-0.4312744140625;-0.89324951171875;0.10491943359375;9.214358705907479;11.590774648093708;0.7219821025475137;-0.01025390625;0.6357421875;0.6005859375;-7.3125;31.75;-1.0625
1.0;0.07940673828125;-0.43768310546875;-0.889404296875;0.10577392578125;9.278874689888411;11.638513867160555;0.747396886160137;0.02001953125;0.56396484375;0.625;17.75;35.0625;-7.5
1.0;0.08447265625;-0.44390869140625;-0.885498046875;0.1082763671875;9.306506555443322;11.68335778417569;0.7746772864740185;-0.14794921875;0.75830078125;0.62646484375;49.5625;35.6875;-4.3125
1.0;0.08782958984375;-0.44842529296875;-0.8828125;0.10906982421875;9.328207689128572;11.715566475463026;0.7885039200620466;-0.09765625;0.83837890625;0.583984375;41.625;28.1875;7.375
1.0;0.0867919921875;-0.447021484375;-0.8837890625;0.10791015625;9.32636279999447;11.70537780092964;0.7794873240386672;-0.12744140625;0.83056640625;0.65234375;34.375;14.75;3.4375
1.0;0.08990478515625;-0.4456787109375;-0.88433837890625;0.10662841796875;9.366712690855744;11.69982309522129;0.7809617155397369;-0.01953125;0.6943359375;0.67431640625;0.25;-5.8125;-6.4375
1.0;0.09503173828125;-0.445556640625;-0.88397216796875;0.10552978515625;9.424174436861293;11.704397913804884;0.7890883133961819;-0.0556640625;0.7158203125;0.70166015625;4.5625;13.5;-15.5625
1.0;0.09869384765625;-0.440673828125;-0.88604736328125;0.105224609375;9.471206171271852;11.677305971868924;0.796179982109705;-0.18505859375;0.90478515625;0.609375;1.3125;18.9375;-12.6875
1.0;0.1015625;-0.4320068359375;-0.8900146484375;0.1051025390625;9.516151458938486;11.625494384681677;0.8008530017494602;-0.1396484375;0.8828125;0.61279296875;-29.875;17.5;-12.0
1.0;0.1046142578125;-0.4228515625;-0.8939208984375;0.10589599609375;9.559359806588375;11.57140944756712;0.8103587187297244;-0.1513671875;0.78369140625;0.6337890625;-50.25;14.75;-11.6875
1.0;0.10675048828125;-0.41583251953125;-0.89678955078125;0.1075439453125;9.585514182622218;11.53001282812501;0.8223114449812282;-0.14990234375;0.74072265625;0.69873046875;-49.25;18.8125;-8.1875
1.0;0.10882568359375;-0.41015625;-0.89874267578125;0.110595703125;9.602055453604198;11.497629352944397;0.8418532657315079;-0.1064453125;0.751953125;0.63623046875;-41.4375;17.375;-2.4375
1.0;0.112548828125;-0.40155029296875;-0.901611328125;0.114990234375;9.634978492262126;11.449395054259941;0.8715835125159189;-0.044921875;0.79052734375;0.607421875;-37.625;22.625;2.5625
1.0;0.11553955078125;-0.39263916015625;-0.90435791015625;0.12109375;9.653909593119607;11.399197788154666;0.9082971380200975;-0.08837890625;0.7861328125;0.56689453125;-57.6875;33.8125;5.4375
1.0;0.1181640625;-0.384033203125;-0.90667724609375;0.1285400390625;9.66349185141815;11.351219769080881;0.9513696356696144;-0.08642578125;0.7275390625;0.56689453125;-58.875;33.75;15.875
1.0;0.12103271484375;-0.3792724609375;-0.90728759765625;0.1358642578125;9.669298212250041;11.327449980162095;0.9957425882210859;-0.130859375;0.61279296875;0.63330078125;-50.0625;33.8125;26.875
1.0;0.12506103515625;-0.37725830078125;-0.90655517578125;0.1424560546875;9.684893891661515;11.322369699252151;1.0401264069843976;-0.08056640625;0.58984375;0.5634765625;-28.5625;34.8125;27.0625
1.0;0.1304931640625;-0.3751220703125;-0.90545654296875;0.14990234375;9.71137773400797;11.319122089116435;1.0925746432899235;-0.09130859375;0.73486328125;0.56689453125;-16.9375;37.75;23.125
1.0;0.1368408203125;-0.37359619140625;-0.90399169921875;0.15655517578125;9.749431318554155;11.321294702963256;1.1434058998368957;-0.10595703125;0.68310546875;0.4990234375;-17.5;45.875;25.9375
1.0;0.139404296875;-0.37017822265625;-0.90447998046875;0.15966796875;9.769847284630172;11.305278484964091;1.165139972307015;-0.2177734375;0.72021484375;0.541015625;-11.3125;44.25;25.25
1.0;0.13946533203125;-0.369873046875;-0.90460205078125;0.1595458984375;9.771788933108565;11.303509870003515;1.164531691766187;-0.25341796875;0.58642578125;0.6513671875;-14.75;16.5625;14.8125
1.0;0.1400146484375;-0.3743896484375;-0.90264892578125;0.1597900390625;9.764934848492048;11.331953774974176;1.1689405278365606;-0.19970703125;0.537109375;0.71533203125;8.25;-2.6875;3.75
1.0;0.1400146484375;-0.37786865234375;-0.90081787109375;0.16204833984375;9.745651406848785;11.353827164863725;1.1823795793564267;-0.2568359375;0.6982421875;0.69677734375;29.6875;-5.0625;11.8125
1.0;0.14013671875;-0.3785400390625;-0.89984130859375;0.16552734375;9.728925038004373;11.359202603005924;1.20165650360626;-0.13818359375;0.74658203125;0.71240234375;21.125;2.9375;16.375
1.0;0.13934326171875;-0.3763427734375;-0.900146484375;0.16949462890625;9.708128239704518;11.345589401074538;1.2201611106302699;-0.1044921875;0.7587890625;0.67431640625;1.3125;9.3125;17.6875
1.0;0.13897705078125;-0.37310791015625;-0.90081787109375;0.17333984375;9.695165457208958;11.326307288540187;1.238777496995719;-0.08544921875;0.6865234375;0.72412109375;-11.8125;8.6875;18.6875
1.0;0.13922119140625;-0.370849609375;-0.90130615234375;0.17547607421875;9.69385363973945;11.313517839270428;1.2500913627488537;-0.09033203125;0.67724609375;0.71435546875;-17.6875;10.75;15.9375
1.0;0.135986328125;-0.3692626953125;-0.90216064453125;0.177001953125;9.658254293420018;11.299003744881801;1.249795731412976;-0.2060546875;0.6943359375;0.7177734375;-11.5625;3.75;12.8125
1.0;0.13116455078125;-0.36749267578125;-0.90338134765625;0.177978515625;9.609449378795134;11.280846952980653;1.2427787831911028;-0.1982421875;0.68408203125;0.72021484375;-11.625;-16.375;16.9375
1.0;0.12713623046875;-0.3670654296875;-0.90423583984375;0.17742919921875;9.571979982906416;11.271823704846431;1.229974886963881;-0.10205078125;0.61669921875;0.72119140625;-11.5625;-21.75;13.1875
1.0;0.12347412109375;-0.36578369140625;-0.90576171875;0.1749267578125;9.549166994785237;11.257862045238493;1.207327378741069;-0.1005859375;0.65380859375;0.68310546875;-5.875;-22.1875;4.875
1.0;0.11907958984375;-0.36529541015625;-0.90716552734375;0.171630859375;9.52013133371373;11.247674106179812;1.179002821969146;-0.1484375;0.6064453125;0.67236328125;-8.375;-27.125;-4.4375
1.0;0.1156005859375;-0.36517333984375;-0.90838623046875;0.167724609375;9.50210531781674;11.241119669844553;1.149717228577033;-0.13916015625;0.6240234375;0.65625;-6.125;-32.75;-7.0
1.0;0.1148681640625;-0.3651123046875;-0.9091796875;0.16412353515625;9.510725796461927;11.238952895456162;1.128529600841408;-0.1201171875;0.5576171875;0.63671875;-0.3125;-29.125;-11.5
1.0;0.115234375;-0.3665771484375;-0.9093017578125;0.15997314453125;9.52944056407736;11.247485639318938;1.107371271119108;-0.22900390625;0.55859375;0.6787109375;5.5625;-18.8125;-10.375
1.0;0.11529541015625;-0.36602783203125;-0.90997314453125;0.1573486328125;9.54303702349239;11.243679931679255;1.0932186878142407;-0.130859375;0.708984375;0.59619140625;4.4375;-10.875;-19.875
1.0;0.11669921875;-0.36419677734375;-0.9111328125;0.15380859375;9.577463954478537;11.233712564410006;1.0768979201678845;0.064453125;0.767578125;0.64111328125;-8.9375;2.3125;-23.0625
1.0;0.11639404296875;-0.362548828125;-0.9122314453125;0.15118408203125;9.589652163933856;11.222745872539976;1.0615793561364881;0.0029296875;0.68603515625;0.64990234375;-10.4375;5.5;-28.75
1.0;0.11663818359375;-0.3636474609375;-0.9119873046875;0.1500244140625;9.594798833267294;11.229424070096153;1.056193372882192;0.0234375;0.62744140625;0.68505859375;-7.3125;-0.125;-20.6875
1.0;0.117919921875;-0.36639404296875;-0.9107666015625;0.14971923828125;9.603155286399765;11.247854625472113;1.058406314019847;0.0244140625;0.67919921875;0.65673828125;5.8125;3.9375;-11.75
1.0;0.117431640625;-0.3681640625;-0.91015625;0.1492919921875;9.595997032559758;11.257941779130027;1.0555332493867582;-0.00390625;0.73974609375;0.6044921875;11.375;8.6875;-6.75
1.0;0.1158447265625;-0.36541748046875;-0.9114990234375;0.1490478515625;9.586908275421296;11.238987907007287;1.0496589169289736;-0.04833984375;0.8193359375;0.6455078125;1.875;-2.1875;-3.125
1.0;0.11444091796875;-0.3626708984375;-0.91265869140625;0.14996337890625;9.574551071424464;11.220491154399115;1.050462185313808;0.0048828125;0.6455078125;0.642578125;-18.75;-2.4375;-6.0
1.0;0.115234375;-0.36456298828125;-0.91168212890625;0.15057373046875;9.57578757407284;11.233268644134323;1.05618137393323;0.0302734375;0.5751953125;0.697265625;-13.375;2.5;-0.4375
1.0;0.11724853515625;-0.3677978515625;-0.90997314453125;0.15142822265625;9.585410150160584;11.255951480125043;1.0664851813948797;-0.02783203125;0.62109375;0.64697265625;13.0625;7.375;0.4375
1.0;0.11968994140625;-0.36846923828125;-0.90911865234375;0.15325927734375;9.600836408037543;11.263772133537357;1.082274609915034;-0.08447265625;0.75439453125;0.62548828125;15.4375;11.25;2.625
1.0;0.12274169921875;-0.36846923828125;-0.90838623046875;0.15521240234375;9.623472211418317;11.268553302475286;1.1000425509587863;-0.078125;0.724609375;0.6630859375;3.625;17.375;4.125
1.0;0.1251220703125;-0.36663818359375;-0.908447265625;0.15728759765625;9.64299103656117;11.261346412103189;1.1163056464523042;-0.1533203125;0.70947265625;0.65380859375;0.5;18.0625;6.75
1.0;0.1285400390625;-0.36712646484375;-0.9073486328125;0.159423828125;9.667305321106959;11.27001803084827;1.1362334458255627;-0.12158203125;0.6640625;0.70166015625;-7.0625;17.9375;5.0
1.0;0.13232421875;-0.36614990234375;-0.90679931640625;0.16168212890625;9.698347318324453;11.27038258857442;1.1571980878527874;-0.109375;0.6904296875;0.67822265625;6.3125;22.625;4.9375
1.0;0.13580322265625;-0.36712646484375;-0.90557861328125;0.1636962890625;9.722434404833953;11.28213746586898;1.1768047583678585;-0.13818359375;0.6318359375;0.69873046875;1.5;25.0;5.125
1.0;0.1383056640625;-0.36602783203125;-0.9053955078125;0.164794921875;9.745821897359384;11.27980875443149;1.1884974118230018;-0.1533203125;0.71484375;0.6640625;7.5625;20.6875;6.5
1.0;0.141845703125;-0.3658447265625;-0.9046630859375;0.166259765625;9.775815164550826;11.284763275557246;1.2050129770037596;-0.14599609375;0.7060546875;0.68603515625;-4.1875;15.4375;0.4375
1.0;0.14788818359375;-0.36590576171875;-0.9034423828125;0.16754150390625;9.83142825426527;11.295415996478788;1.2269247564785153;-0.0771484375;0.630859375;0.67919921875;6.0625;25.0;-1.75
1.0;0.15191650390625;-0.3656005859375;-0.90252685546875;0.16949462890625;9.864309163182075;11.300992354526024;1.2474392686099471;-0.19091796875;0.6162109375;0.6337890625;9.0625;31.9375;-1.4375
1.0;0.1533203125;-0.3629150390625;-0.9029541015625;0.17169189453125;9.875794444251728;11.287814011003123;1.2616710122374333;-0.20654296875;0.775390625;0.671875;-1.125;23.25;4.5
1.0;0.1541748046875;-0.358154296875;-0.904541015625;0.1727294921875;9.892698757913875;11.26067443461417;1.2672646875785125;-0.078125;0.66357421875;0.68994140625;-13.125;17.6875;2.125
1.0;0.1568603515625;-0.357666015625;-0.90447998046875;0.171630859375;9.926317749526572;11.261978704750577;1.2677796902468625;-0.1240234375;0.53759765625;0.7451171875;-17.625;12.0625;-1.8125
1.0;0.15863037109375;-0.35498046875;-0.9056396484375;0.1693115234375;9.962013745736655;11.247965654423504;1.25836223396379;-0.19287109375;0.68017578125;0.65087890625;-0.125;9.875;-9.6875
1.0;0.15924072265625;-0.35186767578125;-0.90740966796875;0.1658935546875;9.991773143656328;11.228749786096694;1.2397202942057433;-0.18310546875;0.67822265625;0.677734375;-12.5625;4.9375;-18.375
1.0;0.1593017578125;-0.35186767578125;-0.908203125;0.161376953125;10.012398882064726;11.227082760620425;1.2153185759962888;-0.2060546875;0.66943359375;0.73583984375;-13.0625;-3.625;-21.5625
1.0;0.158447265625;-0.35174560546875;-0.90911865234375;0.15728759765625;10.022024380039468;11.223232175412498;1.190902745913446;-0.2333984375;0.7470703125;0.68798828125;-1.0;-12.3125;-22.375
1.0;0.15771484375;-0.35211181640625;-0.90997314453125;0.15203857421875;10.036738033731373;11.222141416605627;1.160788948805426;-0.19287109375;0.7119140625;0.6650390625;-2.625;-14.6875;-19.9375
1.0;0.157470703125;-0.352783203125;-0.9107666015625;0.1461181640625;10.058673606840838;11.223277249972694;1.1283392231286822;-0.19677734375;0.68701171875;0.68408203125;3.5;-16.625;-25.75
1.0;0.1580810546875;-0.35198974609375;-0.91180419921875;0.1407470703125;10.090488591080632;11.217159862775597;1.100253754255381;-0.21435546875;0.68505859375;0.66943359375;5.4375;-16.375;-28.9375
1.0;0.15753173828125;-0.350341796875;-0.91314697265625;0.13677978515625;10.106020695753415;11.204451085114949;1.0764102891143945;-0.2333984375;0.666015625;0.6728515625;-1.1875;-10.75;-28.25
1.0;0.1558837890625;-0.34814453125;-0.91473388671875;0.13360595703125;10.107758950439555;11.18702072357126;1.0538919177245603;-0.228515625;0.6396484375;0.69873046875;-6.3125;-12.5625;-20.0625
1.0;0.15478515625;-0.34698486328125;-0.915771484375;0.13079833984375;10.111073464205413;11.17696150552716;1.0352930523576753;-0.177734375;0.62451171875;0.69482421875;-11.1875;-14.25;-16.1875
1.0;0.1552734375;-0.3447265625;-0.9168701171875;0.128173828125;10.132396456302393;11.162826884041062;1.0209235121168452;-0.14892578125;0.63671875;0.640625;-8.1875;-10.125;-16.1875
1.0;0.15582275390625;-0.3419189453125;-0.91815185546875;0.1259765625;10.153566738380714;11.145458915931407;1.0085807045001611;-0.2158203125;0.654296875;0.6376953125;-13.9375;-3.9375;-16.4375
1.0;0.15606689453125;-0.34039306640625;-0.91888427734375;0.12432861328125;10.166373857012385;11.13577398251862;0.9992763387781877;-0.22998046875;0.60595703125;0.64892578125;-15.125;-3.25;-13.9375
1.0;0.1558837890625;-0.338623046875;-0.91973876953125;0.12298583984375;10.17388350123637;11.124069023617135;0.9904500532630727;-0.212890625;0.62353515625;0.638671875;-9.625;-3.125;-9.8125
1.0;0.1561279296875;-0.33685302734375;-0.92071533203125;0.12066650390625;10.189856269184236;11.11237716578396;0.9772002413380947;-0.2001953125;0.65966796875;0.69580078125;-11.0625;-3.5;-9.1875
1.0;0.15692138671875;-0.33367919921875;-0.922119140625;0.11761474609375;10.217436732355353;11.092701507388892;0.9603994968946319;-0.18017578125;0.595703125;0.63671875;-10.0625;-2.6875;-15.125
1.0;0.15802001953125;-0.32952880859375;-0.9237060546875;0.11505126953125;10.247985657367416;11.067775253222855;0.9462971923597968;-0.251953125;0.59619140625;0.69580078125;-14.75;-3.125;-18.75
1.0;0.15948486328125;-0.32666015625;-0.92474365234375;0.11285400390625;10.27812267332167;11.051281013016899;0.9357407020517292;-0.236328125;0.5498046875;0.7021484375;-18.3125;0.5625;-18.125
1.0;0.16070556640625;-0.32464599609375;-0.92547607421875;0.11102294921875;10.30240469472867;11.039776731224766;0.927122035750283;-0.23876953125;0.59423828125;0.7109375;-13.0;3.125;-16.3125
1.0;0.161865234375;-0.32122802734375;-0.9267578125;0.1087646484375;10.330418245562516;11.019321089613667;0.9149780001881157;-0.21875;0.634765625;0.6826171875;-12.0625;3.0625;-14.625
1.0;0.1630859375;-0.318115234375;-0.9278564453125;0.1063232421875;10.359107477605576;11.000815100702281;0.9021599292007957;-0.2236328125;0.54638671875;0.685546875;-15.75;2.4375;-17.125
1.0;0.16400146484375;-0.31640625;-0.92852783203125;0.10406494140625;10.381015494479263;10.9904241603408;0.8905498582315305;-0.24072265625;0.56298828125;0.71044921875;-13.875;2.0625;-17.4375
1.0;0.16552734375;-0.31365966796875;-0.92950439453125;0.10137939453125;10.412926033137808;10.974232814692039;0.877118715390549;-0.20068359375;0.62255859375;0.69775390625;-9.75;2.25;-17.5625
1.0;0.1673583984375;-0.3115234375;-0.93017578125;0.09893798828125;10.445885084733138;10.962308207457992;0.866099481225463;-0.20947265625;0.5185546875;0.67529296875;-11.125;4.5;-19.8125
1.0;0.16912841796875;-0.30950927734375;-0.9307861328125;0.096435546875;10.478148347661833;10.95099859178509;0.8546532095745655;-0.24072265625;0.51904296875;0.67529296875;-7.625;5.1875;-17.6875
1.0;0.1702880859375;-0.3067626953125;-0.9317626953125;0.0938720703125;10.505336445499621;10.934187521220469;0.8408336523501309;-0.26708984375;0.5498046875;0.68896484375;-8.0;3.875;-17.375
1.0;0.17071533203125;-0.30523681640625;-0.93243408203125;0.0911865234375;10.522905172653083;10.923745601956018;0.8256486825290679;-0.27197265625;0.53466796875;0.70458984375;-11.5625;0.375;-17.0625
1.0;0.17059326171875;-0.304931640625;-0.93280029296875;0.08843994140625;10.532633936490866;10.919938871762682;0.8098664170560351;-0.26806640625;0.541015625;0.73291015625;-4.375;-2.9375;-15.6875
1.0;0.1700439453125;-0.30419921875;-0.93341064453125;0.08563232421875;10.538670239895485;10.912803394118617;0.7924186576586452;-0.2587890625;0.5556640625;0.734375;1.5;-5.8125;-14.375
1.0;0.16937255859375;-0.3037109375;-0.9339599609375;0.0830078125;10.542206124319415;10.907073852398579;0.7758977480711211;-0.24658203125;0.533203125;0.72900390625;-0.125;-7.4375;-14.8125
1.0;0.16973876953125;-0.30377197265625;-0.93408203125;0.08050537109375;10.555528886364126;10.90629821545635;0.7628206550414632;-0.23046875;0.541015625;0.7255859375;0.0;-7.4375;-14.1875
1.0;0.17071533203125;-0.302490234375;-0.93450927734375;0.07830810546875;10.576381333014556;10.898265469162567;0.7516427663658926;-0.2314453125;0.58544921875;0.69384765625;0.375;-1.5625;-15.25
1.0;0.17120361328125;-0.30242919921875;-0.93463134765625;0.076171875;10.589770215674958;10.897057840918361;0.7407274308134981;-0.30224609375;0.54150390625;0.7255859375;-3.5;-0.9375;-12.8125
1.0;0.17156982421875;-0.30340576171875;-0.93438720703125;0.0738525390625;10.60099244173271;10.902048662739169;0.729463105419194;-0.2822265625;0.55810546875;0.71875;1.5;-2.3125;-11.4375
1.0;0.17169189453125;-0.30316162109375;-0.93463134765625;0.07159423828125;10.611195274982588;10.899116125943532;0.7169109513569114;-0.27783203125;0.58447265625;0.69189453125;5.75;-3.5625;-11.9375
1.0;0.171630859375;-0.30181884765625;-0.93524169921875;0.06939697265625;10.620826070861046;10.889229952627385;0.7033579494934332;-0.298828125;0.59130859375;0.70361328125;-1.5625;-5.8125;-11.5
1.0;0.171875;-0.302001953125;-0.93536376953125;0.0667724609375;10.63300165819892;10.88875507706916;0.6893560073551227;-0.29443359375;0.49658203125;0.72021484375;-2.875;-5.625;-10.875
1.0;0.17156982421875;-0.30352783203125;-0.93499755859375;0.0650634765625;10.633973215573368;10.896648785327477;0.6805273648451369;-0.32421875;0.5224609375;0.73828125;5.875;-6.25;-11.5
1.0;0.17144775390625;-0.30352783203125;-0.9351806640625;0.06298828125;10.640449045822825;10.894979519596436;0.6686595823500352;-0.265625;0.623046875;0.724609375;7.3125;-4.5625;-8.4375
1.0;0.17041015625;-0.3031005859375;-0.9356689453125;0.060791015625;10.638082617690188;10.88941931861297;0.6537569097078639;-0.2841796875;0.5810546875;0.71240234375;0.375;-5.5625;-10.75
1.0;0.16900634765625;-0.3031005859375;-0.93597412109375;0.0596923828125;10.62705455758414;10.886903667426532;0.6446163280406517;-0.291015625;0.5703125;0.7353515625;-1.625;-10.625;-9.75
1.0;0.1680908203125;-0.30255126953125;-0.93634033203125;0.05938720703125;10.61904249301829;10.882144505751851;0.6404664218115244;-0.265625;0.57568359375;0.7138671875;-1.25;-10.0;-4.0
1.0;0.16839599609375;-0.302001953125;-0.93646240234375;0.05963134765625;10.622159886982962;10.879280996757554;0.6419933849762328;-0.2626953125;0.56787109375;0.70458984375;-4.6875;-5.625;-0.9375
1.0;0.16912841796875;-0.3011474609375;-0.93658447265625;0.0599365234375;10.630109203963656;10.87514969528374;0.644523765765295;-0.27099609375;0.564453125;0.6904296875;-5.3125;0.9375;0.1875
1.0;0.16973876953125;-0.2999267578125;-0.93682861328125;0.06011962890625;10.637727674844559;10.868571631222625;0.6458078185766849;-0.2822265625;0.580078125;0.69580078125;-7.25;3.25;-0.375
1.0;0.17034912109375;-0.29901123046875;-0.93701171875;0.06005859375;10.645814873200967;10.863657606236657;0.645967440032558;-0.2841796875;0.5703125;0.720703125;-8.3125;2.8125;-0.9375
1.0;0.17120361328125;-0.29766845703125;-0.93731689453125;0.0596923828125;10.6582439163229;10.856172331884425;0.644542364156027;-0.2880859375;0.5654296875;0.7265625;-5.5625;2.375;-2.0625
1.0;0.17205810546875;-0.29742431640625;-0.93731689453125;0.05902099609375;10.670267807266633;10.855184368199746;0.6423507547871403;-0.30712890625;0.52783203125;0.72705078125;-5.75;2.375;-3.0
1.0;0.1734619140625;-0.29730224609375;-0.9371337890625;0.0576171875;10.690882824677402;10.85527132724658;0.6374116637957644;-0.29248046875;0.53564453125;0.720703125;0.0;2.125;-4.3125
1.0;0.1749267578125;-0.29681396484375;-0.9371337890625;0.05615234375;10.712786472367707;10.852961552416618;0.6318510666406928;-0.31787109375;0.54443359375;0.7080078125;0.8125;3.0;-8.1875
1.0;0.17608642578125;-0.29638671875;-0.9371337890625;0.05450439453125;10.73202215834555;10.850573675756465;0.6246962423833952;-0.31298828125;0.55322265625;0.7138671875;-1.375;3.375;-9.625
1.0;0.17657470703125;-0.2967529296875;-0.93701171875;0.052734375;10.743376852880116;10.852135055198174;0.6161567247789228;-0.32373046875;0.54150390625;0.7255859375;0.1875;1.3125;-9.625
1.0;0.17620849609375;-0.297607421875;-0.93695068359375;0.05084228515625;10.745225322659948;10.855441687705072;0.6055217152215111;-0.30712890625;0.56591796875;0.748046875;3.75;-0.9375;-9.375
1.0;0.17523193359375;-0.2984619140625;-0.93695068359375;0.04876708984375;10.741226085207229;10.85797175598898;0.592612251571199;-0.29296875;0.53662109375;0.732421875;7.375;-5.875;-8.375
1.0;0.17462158203125;-0.298828125;-0.93707275390625;0.04638671875;10.74292894389229;10.857662043403408;0.578295996442394;-0.3076171875;0.54150390625;0.7451171875;7.625;-9.625;-7.375
1.0;0.17449951171875;-0.299072265625;-0.9371337890625;0.0438232421875;10.750780778873818;10.857075373725635;0.5638875816067468;-0.30517578125;0.4951171875;0.71533203125;6.625;-9.0625;-9.6875
1.0;0.17449951171875;-0.30078125;-0.93670654296875;0.04144287109375;10.757549870111824;10.865823025682289;0.5521422366546255;-0.31982421875;0.47412109375;0.7451171875;8.4375;-6.625;-10.1875
1.0;0.174560546875;-0.302734375;-0.9361572265625;0.03900146484375;10.765042629795436;10.876170068373249;0.5404537141610822;-0.30322265625;0.5166015625;0.7275390625;14.25;-4.6875;-9.75
1.0;0.17462158203125;-0.30340576171875;-0.93603515625;0.0364990234375;10.774271066086884;10.87846792952988;0.5271917905049112;-0.29931640625;0.54541015625;0.71923828125;14.375;-4.5;-10.6875
1.0;0.174560546875;-0.3038330078125;-0.93597412109375;0.03436279296875;10.781128628703732;10.879421932533827;0.5155057938847638;-0.3115234375;0.5400390625;0.7353515625;7.6875;-4.8125;-11.5625
1.0;0.17431640625;-0.30474853515625;-0.935791015625;0.0328369140625;10.78316316052868;10.883617709840026;0.5073026577874836;-0.32080078125;0.525390625;0.73681640625;6.6875;-5.125;-9.0625
1.0;0.17401123046875;-0.30712890625;-0.93511962890625;0.03131103515625;10.78302652378296;10.89690736026505;0.5004072275962419;-0.29736328125;0.51806640625;0.7666015625;10.25;-3.4375;-5.9375
1.0;0.1746826171875;-0.30877685546875;-0.93450927734375;0.0302734375;10.792456511663866;10.907112270414283;0.49762893067125197;-0.2705078125;0.5458984375;0.71630859375;16.25;-2.875;-5.8125
1.0;0.17462158203125;-0.30841064453125;-0.9346923828125;0.0296630859375;10.794446986528932;10.904217068391151;0.49369649821518796;-0.30126953125;0.6025390625;0.708984375;8.5625;1.4375;-5.5
1.0;0.17364501953125;-0.308837890625;-0.93475341796875;0.02899169921875;10.785931270881239;10.905228197605814;0.4882490801617041;-0.3251953125;0.541015625;0.736328125;0.125;-2.625;-2.1875
1.0;0.17303466796875;-0.30999755859375;-0.9344482421875;0.02825927734375;10.780952635653636;10.911306043731479;0.48400527636043933;-0.3056640625;0.50439453125;0.71728515625;5.75;-7.3125;0.3125
1.0;0.17266845703125;-0.3118896484375;-0.9339599609375;0.0269775390625;10.779863959041874;10.921633348731842;0.4778539221163083;-0.29150390625;0.50732421875;0.70751953125;9.875;-4.4375;-0.25
1.0;0.173828125;-0.3123779296875;-0.93359375;0.025390625;10.798060152228912;10.924850231431396;0.4719965290863711;-0.2880859375;0.57421875;0.69775390625;11.3125;-4.125;-4.75
1.0;0.17462158203125;-0.3128662109375;-0.933349609375;0.02386474609375;10.81198280741886;10.927566121008068;0.4656457543705391;-0.314453125;0.57666015625;0.697265625;3.5625;2.1875;-9.4375
1.0;0.1734619140625;-0.31396484375;-0.9332275390625;0.02215576171875;10.804872692052205;10.931800898893483;0.4546607982459744;-0.3525390625;0.56103515625;0.71435546875;5.25;-1.125;-6.625
1.0;0.17352294921875;-0.3173828125;-0.93212890625;0.0198974609375;10.810922716494535;10.951474377086901;0.4455443662448612;-0.28466796875;0.513671875;0.73388671875;11.25;-8.25;-5.5625
1.0;0.17474365234375;-0.3189697265625;-0.93133544921875;0.0185546875;10.827939177696498;10.961869135071844;0.44235155266208864;-0.283203125;0.57421875;0.7060546875;22.5;-2.3125;-9.1875
1.0;0.17584228515625;-0.31719970703125;-0.9317626953125;0.01812744140625;10.843157040190194;10.951630771497472;0.4405820333176236;-0.318359375;0.62939453125;0.67724609375;7.4375;3.0;-8.125
1.0;0.1751708984375;-0.31524658203125;-0.93255615234375;0.01702880859375;10.84194861598386;10.937771091638925;0.4310015267224678;-0.3408203125;0.57470703125;0.70458984375;-9.8125;2.875;-4.8125
1.0;0.1746826171875;-0.31658935546875;-0.9322509765625;0.0152587890625;10.84219901999873;10.944182083969668;0.4213704863112488;-0.30419921875;0.46435546875;0.75341796875;-3.875;-5.125;-4.1875
1.0;0.1746826171875;-0.3192138671875;-0.931396484375;0.01300048828125;10.848596413334828;10.95885392292596;0.4114012219751289;-0.2861328125;0.4638671875;0.70703125;15.0625;-4.9375;-5.4375
1.0;0.17535400390625;-0.32000732421875;-0.93096923828125;0.01251220703125;10.857138411791482;10.964275530123816;0.4109841056103261;-0.3056640625;0.58544921875;0.6982421875;16.875;-3.75;-9.625
1.0;0.17657470703125;-0.31707763671875;-0.9317626953125;0.01434326171875;10.86582214819669;10.94859835200036;0.4208707748411151;-0.30517578125;0.66064453125;0.69677734375;0.9375;2.9375;-4.875
1.0;0.17620849609375;-0.3138427734375;-0.932861328125;0.0167236328125;10.855657950664689;10.92984437517543;0.43011055655876373;-0.2666015625;0.57421875;0.7265625;-18.375;11.75;2.625
1.0;0.17529296875;-0.313720703125;-0.93304443359375;0.0186767578125;10.838326728160066;10.92959745583002;0.4389304545329779;-0.23486328125;0.4462890625;0.755859375;-13.375;6.3125;9.625
1.0;0.1737060546875;-0.314453125;-0.93304443359375;0.02117919921875;10.810792398613891;10.93436164454889;0.4502112732465591;-0.26123046875;0.48828125;0.7685546875;3.25;1.9375;12.0
1.0;0.1737060546875;-0.3160400390625;-0.93243408203125;0.02294921875;10.802479142566456;10.945745246437015;0.4616983078912434;-0.251953125;0.5078125;0.71923828125;4.6875;-1.625;16.1875
1.0;0.17578125;-0.3189697265625;-0.93109130859375;0.02349853515625;10.819834257237439;10.966818803288492;0.47220236152544826;-0.2060546875;0.505859375;0.70849609375;11.375;8.3125;8.9375
1.0;0.1763916015625;-0.32012939453125;-0.9305419921875;0.0240478515625;10.823146738666798;10.975287590344807;0.4778011734309169;-0.3427734375;0.5888671875;0.6708984375;15.6875;10.0;3.6875
1.0;0.17431640625;-0.3226318359375;-0.9300537109375;0.02520751953125;10.793555047691113;10.989399319513748;0.48209627534843125;-0.40380859375;0.57275390625;0.73681640625;8.5;-0.125;7.6875
1.0;0.17315673828125;-0.327880859375;-0.9283447265625;0.02667236328125;10.769801999206699;11.022169112177334;0.4927895718718881;-0.2734375;0.55224609375;0.7802734375;17.75;-5.9375;12.1875
1.0;0.17413330078125;-0.33160400390625;-0.9267578125;0.02886962890625;10.767474407068187;11.04840402026464;0.5108305770552056;-0.2373046875;0.63427734375;0.6884765625;27.125;0.1875;12.25
1.0;0.17431640625;-0.3345947265625;-0.92559814453125;0.0313720703125;10.755872448401593;11.069208489111142;0.5279704608091995;-0.2939453125;0.626953125;0.68212890625;18.875;10.0625;13.1875
1.0;0.17431640625;-0.3399658203125;-0.92352294921875;0.03399658203125;10.73886078732314;11.104952561365629;0.547630363227365;-0.26416015625;0.57080078125;0.66845703125;16.5;7.375;15.75
1.0;0.17462158203125;-0.34423828125;-0.92181396484375;0.03704833984375;10.724143557851116;11.134311615869725;0.5691760693423084;-0.23291015625;0.646484375;0.6318359375;26.0625;7.75;16.4375
1.0;0.17431640625;-0.34552001953125;-0.92120361328125;0.04034423828125;10.70543195438729;11.144415665594106;0.5878071580773899;-0.23828125;0.6865234375;0.6162109375;17.125;9.25;16.5625
1.0;0.17303466796875;-0.3458251953125;-0.92120361328125;0.0438232421875;10.676631988552607;11.1469874374763;0.6040749444152735;-0.26513671875;0.6591796875;0.6552734375;2.0625;5.8125;17.875
1.0;0.1739501953125;-0.3489990234375;-0.91961669921875;0.04852294921875;10.662073120163383;11.17131720445463;0.6349333854098491;-0.216796875;0.61962890625;0.6845703125;-1.4375;3.3125;18.6875
1.0;0.176513671875;-0.35205078125;-0.91766357421875;0.05364990234375;10.66283200237535;11.1975295248634;0.6720717418773279;-0.208984375;0.64208984375;0.6142578125;12.375;16.8125;23.125
1.0;0.17877197265625;-0.354248046875;-0.91607666015625;0.0584716796875;10.662411500162808;11.217822366864617;0.7060491682078209;-0.26904296875;0.66552734375;0.60302734375;11.5625;23.875;24.6875
1.0;0.1802978515625;-0.3541259765625;-0.91552734375;0.06298828125;10.658895137442641;11.222295321199779;0.7344383473190575;-0.29736328125;0.69091796875;0.59423828125;5.0;20.125;23.75
1.0;0.18218994140625;-0.35345458984375;-0.91510009765625;0.0673828125;10.660607490218762;11.22383233932023;0.7626142063346416;-0.30078125;0.66650390625;0.62890625;-6.0;15.9375;21.4375
1.0;0.1856689453125;-0.35430908203125;-0.91375732421875;0.0718994140625;10.675776532567447;11.237498495654002;0.7968874681561127;-0.2890625;0.60693359375;0.62255859375;-6.3125;18.1875;20.0625
1.0;0.1905517578125;-0.35479736328125;-0.91217041015625;0.075927734375;10.70826086197914;11.251226800736909;0.8320177898033944;-0.28857421875;0.626953125;0.60009765625;2.25;26.625;18.9375
1.0;0.19488525390625;-0.35528564453125;-0.91082763671875;0.078857421875;10.739574204624166;11.26343044662931;0.8598060998366623;-0.3369140625;0.65869140625;0.6044921875;1.0;31.6875;14.75
1.0;0.1978759765625;-0.35540771484375;-0.90985107421875;0.08203125;10.756321839633586;11.271484423599004;0.8851807073088235;-0.3662109375;0.6591796875;0.6005859375;1.4375;25.0625;11.1875
1.0;0.19964599609375;-0.35595703125;-0.9088134765625;0.08673095703125;10.752539521912906;11.2812862437535;0.9161038845290659;-0.3408203125;0.68994140625;0.64697265625;-1.125;20.8125;12.75
1.0;0.20166015625;-0.35504150390625;-0.9083251953125;0.0911865234375;10.7551839994211;11.282112112498936;0.944949583937708;-0.25146484375;0.70751953125;0.62939453125;-2.625;21.125;19.0625
1.0;0.2049560546875;-0.3538818359375;-0.90765380859375;0.09478759765625;10.775533242621147;11.283346711051536;0.9724585644214551;-0.2626953125;0.6748046875;0.63232421875;-9.0625;21.75;16.6875
1.0;0.2083740234375;-0.35430908203125;-0.90643310546875;0.097412109375;10.79812801944613;11.294203285867033;0.9965287202495071;-0.3408203125;0.5986328125;0.62109375;-5.4375;23.125;14.125
1.0;0.21044921875;-0.35357666015625;-0.906005859375;0.09967041015625;10.810910146367979;11.295097376757;1.0138584942827846;-0.3740234375;0.66845703125;0.61962890625;2.1875;20.5625;11.1875
1.0;0.21136474609375;-0.351806640625;-0.90606689453125;0.10302734375;10.809088366499838;11.288241413027073;1.0331075639931744;-0.36962890625;0.7236328125;0.6376953125;-7.75;12.75;8.875
1.0;0.2125244140625;-0.35076904296875;-0.90582275390625;0.10638427734375;10.808179959811385;11.286355189369484;1.0536868236928831;-0.296875;0.67822265625;0.66796875;-12.5;13.375;12.625
1.0;0.21429443359375;-0.3504638671875;-0.9051513671875;0.10943603515625;10.813301689263973;11.29011778653197;1.0750323963424107;-0.2841796875;0.65087890625;0.64501953125;-7.875;14.5;13.625
1.0;0.21575927734375;-0.35015869140625;-0.90460205078125;0.11224365234375;10.81632540891447;11.293071278968805;1.0941727954373959;-0.3125;0.65771484375;0.625;-3.5;15.375;12.875
1.0;0.21661376953125;-0.3486328125;-0.9046630859375;0.1146240234375;10.817951344106934;11.287016691943023;1.1081827690881063;-0.328125;0.6513671875;0.6044921875;-4.375;12.0625;13.125
1.0;0.2169189453125;-0.34759521484375;-0.90478515625;0.11639404296875;10.81554005416879;11.282374317360498;1.1177266689819063;-0.32958984375;0.609375;0.63818359375;-8.5;8.6875;11.0625
1.0;0.2164306640625;-0.346435546875;-0.90521240234375;0.1175537109375;10.808059587910549;11.274954383499196;1.1216144874924852;-0.3154296875;0.62451171875;0.6640625;-5.125;5.4375;8.4375
1.0;0.21636962890625;-0.34619140625;-0.90521240234375;0.11834716796875;10.80444460154375;11.273893459063785;1.125582033325343;-0.30712890625;0.6435546875;0.6669921875;-6.9375;0.3125;5.625
1.0;0.21722412109375;-0.3470458984375;-0.90460205078125;0.11895751953125;10.808391590277584;11.281385508915015;1.1321198841828615;-0.29150390625;0.64404296875;0.6171875;-2.9375;1.0;3.9375
1.0;0.21807861328125;-0.3466796875;-0.9044189453125;0.119873046875;10.813917642352356;11.281488183304146;1.1391760532305142;-0.30322265625;0.67333984375;0.5966796875;2.4375;4.6875;2.75
1.0;0.2186279296875;-0.3466796875;-0.9041748046875;0.12042236328125;10.817099406891575;11.28309959084121;1.1437832611496754;-0.30224609375;0.67333984375;0.623046875;-4.0625;6.1875;2.125
1.0;0.2191162109375;-0.3465576171875;-0.904052734375;0.1207275390625;10.821037553071964;11.283581626346598;1.146721714614846;-0.2880859375;0.64111328125;0.62158203125;0.0;4.25;1.6875
1.0;0.2198486328125;-0.347412109375;-0.90362548828125;0.12066650390625;10.8266634686188;11.290200258541336;1.1491540805068228;-0.29345703125;0.638671875;0.63330078125;-0.125;3.875;0.625
1.0;0.220703125;-0.3477783203125;-0.90325927734375;0.12060546875;10.834815754280486;11.294263002791942;1.1516069041797259;-0.2919921875;0.666015625;0.615234375;4.1875;3.3125;-1.1875
1.0;0.22174072265625;-0.34820556640625;-0.90277099609375;0.12091064453125;10.843018528303912;11.299372969770337;1.1566628103758223;-0.30126953125;0.6806640625;0.61865234375;1.3125;4.1875;-1.8125
1.0;0.22314453125;-0.348388671875;-0.90234375;0.12139892578125;10.854665445748713;11.303665079457625;1.1634131470251066;-0.27734375;0.6640625;0.60693359375;1.8125;6.875;-1.1875
1.0;0.2242431640625;-0.3482666015625;-0.9019775390625;0.12213134765625;10.862898638471975;11.305851728708143;1.1705000265593946;-0.30224609375;0.66943359375;0.61083984375;0.5;8.3125;-0.4375
1.0;0.2252197265625;-0.348388671875;-0.901611328125;0.12274169921875;10.869777256891682;11.309110860964523;1.1767450022908312;-0.30615234375;0.64990234375;0.6064453125;-1.0625;7.0625;1.8125
1.0;0.22637939453125;-0.3485107421875;-0.9012451171875;0.123046875;10.879911762054462;11.312530065158168;1.18183501894207;-0.31298828125;0.65234375;0.6201171875;1.0625;6.4375;1.75
1.0;0.2274169921875;-0.34857177734375;-0.90087890625;0.123291015625;10.889273351352653;11.315427927252578;1.1862825269425805;-0.30908203125;0.65625;0.62255859375;1.5625;6.6875;0.0
1.0;0.22821044921875;-0.34832763671875;-0.90081787109375;0.123291015625;10.89796860853804;11.315487950197047;1.1882478179816616;-0.3134765625;0.66162109375;0.6240234375;0.75;6.1875;-0.75
1.0;0.22857666015625;-0.34796142578125;-0.90081787109375;0.12335205078125;10.90239967084425;11.314129170802602;1.189330059313216;-0.32373046875;0.658203125;0.62060546875;-1.0;3.5;-1.375
1.0;0.228759765625;-0.34808349609375;-0.9007568359375;0.12335205078125;10.903931141697;11.315205716424416;1.1899294201385362;-0.32568359375;0.65234375;0.63525390625;-1.125;1.9375;-0.375
1.0;0.229736328125;-0.34820556640625;-0.90045166015625;0.12310791015625;10.914748629638579;11.317996179887889;1.1915854988147223;-0.29931640625;0.63525390625;0.63232421875;2.25;1.6875;-0.125
1.0;0.23077392578125;-0.34808349609375;-0.90032958984375;0.122802734375;10.927019670401876;11.31910808848529;1.1926936976424147;-0.30322265625;0.6640625;0.62158203125;1.5;5.25;-3.75
1.0;0.23138427734375;-0.346923828125;-0.90057373046875;0.12298583984375;10.935414069729028;11.313363696367974;1.1943170822221358;-0.31005859375;0.68896484375;0.619140625;-1.0625;5.25;-4.625
1.0;0.2318115234375;-0.34661865234375;-0.90057373046875;0.123291015625;10.939134780434632;11.312532333929314;1.196869580841616;-0.32275390625;0.66552734375;0.6328125;-6.6875;3.8125;-2.4375
1.0;0.23248291015625;-0.3460693359375;-0.9005126953125;0.123779296875;10.945195511768153;11.31101533281094;1.2009903094621566;-0.3203125;0.646484375;0.6142578125;-1.875;2.75;0.875
1.0;0.233642578125;-0.3453369140625;-0.90045166015625;0.12420654296875;10.95696422321845;11.309259474296983;1.2059262072479138;-0.31591796875;0.65087890625;0.60693359375;-3.75;4.5;0.25
1.0;0.234619140625;-0.3446044921875;-0.900390625;0.12469482421875;10.966620994106794;11.30725537056139;1.2107282780377717;-0.32177734375;0.6552734375;0.619140625;-3.75;7.125;-1.0625
1.0;0.2349853515625;-0.34417724609375;-0.90045166015625;0.125;10.970047495084643;11.305540291187476;1.2129785162770061;-0.31982421875;0.65087890625;0.61865234375;-3.9375;6.75;-0.625
1.0;0.2349853515625;-0.34356689453125;-0.900634765625;0.125;10.971684456715153;11.301842906824792;1.212422189053859;-0.3310546875;0.65673828125;0.625;-2.9375;2.375;0.4375
1.0;0.23486328125;-0.3424072265625;-0.90118408203125;0.124755859375;10.97454282715422;11.294014701003263;1.2094471488005498;-0.33251953125;0.63671875;0.62939453125;-2.75;-0.375;-0.1875
1.0;0.23492431640625;-0.3414306640625;-0.90155029296875;0.12432861328125;10.979695613792332;11.287813420177336;1.206315590403961;-0.337890625;0.61083984375;0.63525390625;-4.9375;-1.5;-1.6875
1.0;0.2352294921875;-0.34033203125;-0.9019775390625;0.12384033203125;10.987869019561025;11.281155980316537;1.2033055668528418;-0.32958984375;0.63671875;0.63818359375;-4.375;-0.25;-3.625
1.0;0.23516845703125;-0.33868408203125;-0.9027099609375;0.12322998046875;10.994255179984028;11.270183343372782;1.1979969709498315;-0.3369140625;0.65966796875;0.63037109375;-6.25;0.125;-4.4375
1.0;0.23492431640625;-0.33746337890625;-0.90338134765625;0.1221923828125;10.999556801629257;11.261144300928507;1.190240831069377;-0.33837890625;0.6318359375;0.62548828125;-8.9375;-2.0625;-5.125
1.0;0.23492431640625;-0.3365478515625;-0.90386962890625;0.12115478515625;11.006551934611092;11.25455054577828;1.1835026674369182;-0.32861328125;0.615234375;0.6416015625;-5.125;-3.1875;-6.5625
1.0;0.235107421875;-0.33514404296875;-0.9044189453125;0.12017822265625;11.016424921100786;11.245492956870699;1.1771918212396508;-0.3193359375;0.63232421875;0.63232421875;-4.375;-1.625;-7.125
1.0;0.2352294921875;-0.33355712890625;-0.90509033203125;0.11932373046875;11.025496866717997;11.235106244228211;1.1710855649432605;-0.33642578125;0.62451171875;0.634765625;-6.3125;-1.0625;-7.125
1.0;0.23529052734375;-0.33203125;-0.90576171875;0.11859130859375;11.033181301295553;11.225001193800065;1.1654969282865142;-0.3310546875;0.61962890625;0.6455078125;-7.6875;-0.4375;-7.0625
1.0;0.2354736328125;-0.33050537109375;-0.9063720703125;0.117919921875;11.041841341110512;11.215249456316027;1.1606082672821516;-0.31591796875;0.63525390625;0.64501953125;-8.0625;-0.125;-7.4375
1.0;0.2362060546875;-0.3291015625;-0.90679931640625;0.11700439453125;11.056951521051296;11.207288038660177;1.1560588624041523;-0.29638671875;0.63525390625;0.6455078125;-8.4375;1.75;-8.125
1.0;0.2369384765625;-0.32781982421875;-0.9072265625;0.11590576171875;11.072518578232646;11.199863186738636;1.1505622595554323;-0.322265625;0.62255859375;0.63427734375;-6.5;2.8125;-9.0
1.0;0.237548828125;-0.3262939453125;-0.90771484375;0.114990234375;11.086629559372483;11.190867126149861;1.1455031429958777;-0.33740234375;0.61376953125;0.63037109375;-5.9375;1.8125;-9.0625
1.0;0.23822021484375;-0.32537841796875;-0.907958984375;0.11407470703125;11.099861581882939;11.18582988712061;1.1412825177296946;-0.3291015625;0.62158203125;0.64794921875;-7.25;2.25;-8.875
1.0;0.239013671875;-0.3240966796875;-0.9083251953125;0.11309814453125;11.115489275691825;11.178650455587118;1.1366097151343735;-0.322265625;0.62646484375;0.66650390625;-3.0625;3.375;-8.75
1.0;0.239990234375;-0.323486328125;-0.908447265625;0.11199951171875;11.131867321082272;11.175881315207096;1.1324592965538298;-0.32958984375;0.60009765625;0.6494140625;-4.6875;3.5625;-9.125
1.0;0.2410888671875;-0.32220458984375;-0.90875244140625;0.11090087890625;11.151157051426495;11.169196650843896;1.1279031582058259;-0.3466796875;0.609375;0.63623046875;-1.625;3.0625;-8.3125
1.0;0.24188232421875;-0.32049560546875;-0.90924072265625;0.10992431640625;11.16778906180899;11.159337369567856;1.1227051092228053;-0.36181640625;0.6103515625;0.6396484375;-5.1875;3.1875;-9.125
1.0;0.2427978515625;-0.3194580078125;-0.90948486328125;0.1090087890625;11.183753022519568;11.153915481285786;1.1188912867294096;-0.3544921875;0.59130859375;0.662109375;-6.5;3.0625;-8.875
1.0;0.24334716796875;-0.31890869140625;-0.90960693359375;0.1080322265625;11.19504464347031;11.15083704334733;1.1143479504199272;-0.35693359375;0.6005859375;0.66796875;-2.875;3.8125;-7.875
1.0;0.24395751953125;-0.3175048828125;-0.9100341796875;0.10723876953125;11.20815933065702;11.142564093745964;1.1099195256526486;-0.349609375;0.6181640625;0.65771484375;-1.75;2.0625;-7.5625
1.0;0.24456787109375;-0.31640625;-0.91033935546875;0.1065673828125;11.220007983463459;11.136313286270656;1.106521460581154;-0.36181640625;0.58154296875;0.64794921875;-5.6875;1.6875;-7.0625
1.0;0.2454833984375;-0.31524658203125;-0.91058349609375;0.10595703125;11.234910861126977;11.130363388469267;1.1042183418300082;-0.3544921875;0.57568359375;0.634765625;-4.5;2.0;-5.75
1.0;0.2464599609375;-0.3140869140625;-0.91082763671875;0.10528564453125;11.250690712366412;11.124451360356533;1.1017067578115234;-0.35888671875;0.5927734375;0.64453125;-5.375;4.1875;-6.8125
1.0;0.2469482421875;-0.3126220703125;-0.9112548828125;0.1044921875;11.262665240867644;11.115591630031115;1.0968555306555974;-0.3701171875;0.5966796875;0.63671875;-5.4375;3.4375;-6.9375
1.0;0.24725341796875;-0.31201171875;-0.9114990234375;0.10345458984375;11.271683648723602;11.111393917825982;1.0910842430060488;-0.3740234375;0.57666015625;0.650390625;-6.4375;1.25;-6.625
1.0;0.24749755859375;-0.31201171875;-0.91156005859375;0.1025390625;11.278081308204843;11.110968833044463;1.0865389674772064;-0.3720703125;0.56982421875;0.6513671875;-0.9375;-0.6875;-6.5625
1.0;0.2479248046875;-0.31146240234375;-0.91168212890625;0.101806640625;11.286975484709842;11.107777843983664;1.0829468863557536;-0.3671875;0.59912109375;0.63330078125;0.375;-0.5625;-5.5
1.0;0.24853515625;-0.31085205078125;-0.911865234375;0.10101318359375;11.298073225223666;11.104328745570253;1.0793082143752473;-0.3603515625;0.59375;0.642578125;-2.5625;1.25;-6.0
1.0;0.2490234375;-0.30987548828125;-0.91217041015625;0.10003662109375;11.309566454962397;11.098243568251997;1.0739086110564813;-0.3681640625;0.58251953125;0.62548828125;-2.875;1.125;-6.0625
1.0;0.24932861328125;-0.30914306640625;-0.91241455078125;0.09893798828125;11.319121489490788;11.093268291149776;1.0676584816863757;-0.38134765625;0.57177734375;0.630859375;-4.4375;0.3125;-7.0
1.0;0.2493896484375;-0.30859375;-0.9127197265625;0.0977783203125;11.32585580404855;11.08873577809719;1.0605286825631424;-0.390625;0.5712890625;0.64453125;-2.0;-1.5625;-6.6875
1.0;0.2493896484375;-0.3084716796875;-0.91290283203125;0.09661865234375;11.330954104975584;11.086752004911682;1.0537522372236197;-0.38720703125;0.56103515625;0.6484375;-1.0625;-2.5;-6.1875
1.0;0.24951171875;-0.30841064453125;-0.91302490234375;0.095458984375;11.337203949644001;11.085423171494707;1.0473959542453717;-0.3779296875;0.57763671875;0.65234375;0.75;-2.125;-6.0625
1.0;0.249755859375;-0.3079833984375;-0.9132080078125;0.0941162109375;11.346384576626855;11.081952375478089;1.0399346282014452;-0.36767578125;0.58447265625;0.646484375;0.8125;-1.5;-6.875
1.0;0.2501220703125;-0.30743408203125;-0.9134521484375;0.093017578125;11.355980222285886;11.078016479768358;1.0339170721700763;-0.380859375;0.5625;0.6484375;0.125;-1.4375;-7.5625
1.0;0.25030517578125;-0.30670166015625;-0.91375732421875;0.09173583984375;11.364887730623348;11.072493210569615;1.0262073179198217;-0.396484375;0.5771484375;0.65576171875;-1.25;-0.75;-6.875
1.0;0.250244140625;-0.30645751953125;-0.91400146484375;0.09033203125;11.370590885970776;11.069356000419;1.0177131102521026;-0.4111328125;0.55859375;0.65771484375;-1.375;-2.5;-6.625
1.0;0.250244140625;-0.30633544921875;-0.9141845703125;0.0888671875;11.376925686720558;11.06706946424606;1.0092024891778308;-0.40380859375;0.564453125;0.6591796875;1.0;-4.0625;-6.4375
1.0;0.25030517578125;-0.30645751953125;-0.91424560546875;0.08721923828125;11.384190026432666;11.06635526721282;1.0001839600963423;-0.39306640625;0.568359375;0.65576171875;1.625;-3.0625;-7.4375
1.0;0.250244140625;-0.305908203125;-0.91461181640625;0.0858154296875;11.390468714827646;11.061198434016587;0.9912413882119482;-0.39697265625;0.57666015625;0.65380859375;2.625;-3.4375;-8.0
1.0;0.24981689453125;-0.30548095703125;-0.91497802734375;0.084716796875;11.391363825952046;11.056439984235105;0.9832398267957536;-0.40869140625;0.55810546875;0.6611328125;-0.6875;-3.9375;-6.875
1.0;0.24945068359375;-0.30596923828125;-0.91497802734375;0.08343505859375;11.391814607249412;11.057576099433794;0.975641410196199;-0.39697265625;0.53857421875;0.650390625;0.1875;-5.125;-4.4375
1.0;0.2491455078125;-0.30633544921875;-0.91510009765625;0.0821533203125;11.393023001228489;11.057832308291848;0.9679093568199744;-0.3779296875;0.56591796875;0.6513671875;4.1875;-4.1875;-5.5625
1.0;0.24896240234375;-0.30609130859375;-0.91534423828125;0.08087158203125;11.39686176104434;11.054565494256115;0.9597756188468153;-0.3798828125;0.587890625;0.65087890625;2.4375;-3.9375;-6.625
1.0;0.2484130859375;-0.30621337890625;-0.91552734375;0.079833984375;11.395063835537497;11.053174574417731;0.9525470712802525;-0.404296875;0.5732421875;0.6484375;-0.375;-4.5;-5.9375
1.0;0.24786376953125;-0.30645751953125;-0.91571044921875;0.07879638671875;11.392948672462305;11.052468685849465;0.9454232573148194;-0.39697265625;0.564453125;0.65087890625;1.625;-5.6875;-4.0625
1.0;0.247314453125;-0.30712890625;-0.91571044921875;0.07794189453125;11.389254993139977;11.054734211489862;0.9399408787735892;-0.3935546875;0.5546875;0.658203125;3.0625;-5.5625;-3.4375
1.0;0.2469482421875;-0.30706787109375;-0.9158935546875;0.0770263671875;11.389265294456836;11.052684892160682;0.9336681456679534;-0.37646484375;0.56884765625;0.65283203125;4.25;-4.3125;-2.75
1.0;0.2467041015625;-0.3070068359375;-0.91607666015625;0.07586669921875;11.391549704904563;11.050594744231097;0.9263120917125377;-0.384765625;0.5595703125;0.66455078125;1.3125;-3.5;-4.1875
1.0;0.24627685546875;-0.30706787109375;-0.916259765625;0.07464599609375;11.391903731554667;11.048881818181599;0.9182935165666841;-0.40087890625;0.544921875;0.6494140625;1.9375;-4.4375;-4.5
1.0;0.24560546875;-0.30755615234375;-0.9163818359375;0.07354736328125;11.388269442279597;11.049475251037096;0.9108444224263759;-0.416015625;0.5595703125;0.65673828125;2.0625;-6.3125;-3.9375
1.0;0.244873046875;-0.3077392578125;-0.91656494140625;0.07232666015625;11.385185238270413;11.048036627571122;0.9022278341557934;-0.40234375;0.5556640625;0.6474609375;3.8125;-6.875;-3.1875
1.0;0.24420166015625;-0.308349609375;-0.91668701171875;0.07098388671875;11.382283508576712;11.049113437783404;0.8935209352387766;-0.390625;0.5537109375;0.6611328125;3.0;-6.5625;-4.0
1.0;0.24359130859375;-0.30853271484375;-0.9168701171875;0.06976318359375;11.38044160194808;11.047847487616822;0.8851898410887115;-0.384765625;0.5654296875;0.64697265625;4.5;-6.625;-4.9375
1.0;0.24298095703125;-0.30908203125;-0.91693115234375;0.06878662109375;11.376871764055373;11.049129391205428;0.8787070888503096;-0.39208984375;0.560546875;0.6455078125;2.0625;-6.375;-4.625
1.0;0.24224853515625;-0.30987548828125;-0.91693115234375;0.068115234375;11.370276208277216;11.052026661664563;0.8739449093155878;-0.39453125;0.5576171875;0.6494140625;4.0625;-6.1875;-2.4375
1.0;0.2413330078125;-0.31036376953125;-0.9169921875;0.06744384765625;11.36244766841355;11.052839295243242;0.8684171235223493;-0.38525390625;0.56689453125;0.638671875;4.25;-6.1875;-1.0
1.0;0.2403564453125;-0.31109619140625;-0.91705322265625;0.06658935546875;11.354184822286303;11.054789749989922;0.8619349335066951;-0.37890625;0.56591796875;0.65087890625;2.9375;-6.125;-1.125
1.0;0.239501953125;-0.3118896484375;-0.9171142578125;0.06573486328125;11.347038290006754;11.057248579079108;0.8557868685277802;-0.3701171875;0.5673828125;0.662109375;5.125;-6.4375;-2.0625
1.0;0.2386474609375;-0.31298828125;-0.9169921875;0.06512451171875;11.338435835949605;11.0620510115234;0.8515007199494384;-0.380859375;0.56689453125;0.6591796875;5.25;-6.5625;-1.5625
1.0;0.2379150390625;-0.31365966796875;-0.91705322265625;0.0643310546875;11.332594887499477;11.06404810173707;0.8458698304661973;-0.38232421875;0.57177734375;0.64501953125;6.25;-6.25;0.0625
1.0;0.23712158203125;-0.314697265625;-0.91693115234375;0.06365966796875;11.325045560976967;11.068544744524347;0.8413251479136992;-0.38427734375;0.55029296875;0.66162109375;5.5;-5.8125;-1.125
1.0;0.2362060546875;-0.31549072265625;-0.91693115234375;0.06317138671875;11.315859114063148;11.071399865656627;0.8371565053076657;-0.3818359375;0.58154296875;0.6728515625;6.8125;-5.5625;-0.4375
1.0;0.2352294921875;-0.3160400390625;-0.9169921875;0.0628662109375;11.305749612733079;11.072833219141742;0.8335852413379414;-0.37451171875;0.587890625;0.66796875;4.375;-5.75;0.0625
1.0;0.234619140625;-0.31689453125;-0.91693115234375;0.0625;11.29914501416797;11.07666638073826;0.8309259083917079;-0.37060546875;0.5693359375;0.666015625;3.8125;-5.5625;0.75
1.0;0.2340087890625;-0.31768798828125;-0.916748046875;0.06256103515625;11.29105804297186;11.080797124306232;0.8307482216647755;-0.38720703125;0.572265625;0.6572265625;5.25;-4.875;1.4375
1.0;0.2332763671875;-0.31842041015625;-0.91668701171875;0.0625;11.28219270408594;11.084050007116783;0.8293984133683976;-0.36572265625;0.5859375;0.650390625;3.8125;-3.125;2.125
1.0;0.2322998046875;-0.3192138671875;-0.91668701171875;0.0625;11.270329141979277;11.087246401145807;0.8277931318788719;-0.36572265625;0.578125;0.66259765625;4.125;-3.8125;2.0625
1.0;0.2313232421875;-0.3203125;-0.91650390625;0.0626220703125;11.257519743951931;11.09266347033547;0.8273367877574678;-0.36083984375;0.5693359375;0.6572265625;4.8125;-4.8125;2.875
1.0;0.2305908203125;-0.32110595703125;-0.91644287109375;0.0626220703125;11.248261797844442;11.096304037267005;0.8263578479089084;-0.35693359375;0.580078125;0.65185546875;5.6875;-4.8125;3.5625
1.0;0.23004150390625;-0.32183837890625;-0.91632080078125;0.06268310546875;11.240856117689072;11.100022276458844;0.8261635918008075;-0.36474609375;0.578125;0.64453125;4.0625;-4.375;2.625
1.0;0.2294921875;-0.32281494140625;-0.9161376953125;0.0625;11.234028293753774;11.105041556031615;0.8248788242313777;-0.36328125;0.57470703125;0.64111328125;3.875;-3.4375;3.0
1.0;0.22900390625;-0.32421875;-0.915771484375;0.0623779296875;11.226857031803256;11.11297928667582;0.8246331060080275;-0.3701171875;0.56396484375;0.65185546875;6.6875;-3.5625;2.4375
1.0;0.22857666015625;-0.3250732421875;-0.91558837890625;0.062255859375;11.221306345199755;11.117517817555733;0.8238612703807698;-0.37451171875;0.57763671875;0.63818359375;8.1875;-4.0625;3.1875
1.0;0.2279052734375;-0.3260498046875;-0.9154052734375;0.06201171875;11.213501173455787;11.12233449727263;0.8219346196365558;-0.3798828125;0.57177734375;0.64208984375;5.3125;-3.8125;2.75
1.0;0.22698974609375;-0.32708740234375;-0.915283203125;0.06182861328125;11.202705346873561;11.127093713016555;0.8197417515036;-0.3837890625;0.5595703125;0.6318359375;6.25;-5.75;3.0625
1.0;0.22607421875;-0.32867431640625;-0.9149169921875;0.061767578125;11.190484514721499;11.135555780520287;0.8189372496190368;-0.36572265625;0.57177734375;0.6513671875;6.9375;-5.75;3.375
1.0;0.22552490234375;-0.33038330078125;-0.91448974609375;0.061767578125;11.181564663133283;11.145325322804812;0.8194781901014716;-0.33251953125;0.57470703125;0.630859375;9.1875;-4.375;3.0625
1.0;0.2252197265625;-0.33148193359375;-0.9141845703125;0.0614013671875;11.177964331140753;11.151455205857003;0.8179467242886663;-0.33642578125;0.60498046875;0.63720703125;8.75;-2.4375;2.625
1.0;0.22393798828125;-0.3330078125;-0.91387939453125;0.0614013671875;11.161788336630028;11.159021994305354;0.8164485732995606;-0.37548828125;0.5771484375;0.6474609375;8.125;-3.375;1.875
1.0;0.222412109375;-0.33514404296875;-0.9134521484375;0.06195068359375;11.139484597551649;11.170339633628542;0.8179719917237043;-0.37060546875;0.57861328125;0.6513671875;9.5625;-7.625;6.0
1.0;0.22119140625;-0.3375244140625;-0.912841796875;0.06298828125;11.117825214417556;11.184128826715517;0.823247626629127;-0.3017578125;0.59228515625;0.6611328125;12.125;-4.75;7.125
1.0;0.22052001953125;-0.338623046875;-0.91253662109375;0.063720703125;11.105614115211125;11.19058208382013;0.8268226183255586;-0.26708984375;0.64794921875;0.66845703125;11.3125;0.0625;6.625
1.0;0.2196044921875;-0.33868408203125;-0.9127197265625;0.0640869140625;11.094241215698187;11.189624055332931;0.8264737750386877;-0.31689453125;0.6474609375;0.65087890625;4.1875;-0.8125;4.6875
1.0;0.218017578125;-0.3397216796875;-0.91265869140625;0.06414794921875;11.075454378257433;11.193569677236868;0.8238348258004208;-0.3427734375;0.58203125;0.6513671875;1.0625;-4.125;4.5625
1.0;0.215576171875;-0.34197998046875;-0.91241455078125;0.0643310546875;11.044866889320907;11.203683561542388;0.8208679328650015;-0.35986328125;0.5654296875;0.64599609375;7.3125;-9.375;6.9375
1.0;0.2135009765625;-0.34619140625;-0.91131591796875;0.0645751953125;11.014451687483113;11.226952777243529;0.8213534706837595;-0.3291015625;0.583984375;0.65478515625;13.75;-12.6875;9.375
1.0;0.2125244140625;-0.34967041015625;-0.91015625;0.064697265625;10.997519584511597;11.247574787981224;0.8233007640647505;-0.2822265625;0.6435546875;0.625;21.8125;-8.5;8.3125
1.0;0.21197509765625;-0.35205078125;-0.90936279296875;0.0653076171875;10.98472992221395;11.262142054353816;0.8277398241404251;-0.29052734375;0.6318359375;0.59326171875;18.0;-4.3125;5.625
1.0;0.2117919921875;-0.35406494140625;-0.9085693359375;0.0660400390625;10.975898719508983;11.275218323536516;0.8334672531950319;-0.31103515625;0.63037109375;0.60693359375;12.0;-1.5625;7.0625
1.0;0.2117919921875;-0.35662841796875;-0.90753173828125;0.066650390625;10.968475783099569;11.291991038232537;0.8395864633124058;-0.326171875;0.6103515625;0.607421875;11.4375;0.0625;7.6875
1.0;0.2119140625;-0.3597412109375;-0.90625;0.06683349609375;10.963231334900097;11.31220458165608;0.8443004706806274;-0.33642578125;0.61572265625;0.59228515625;14.4375;0.125;8.0
1.0;0.2127685546875;-0.3642578125;-0.90423583984375;0.06640625;10.965804313587526;11.342318845631112;0.8492550719797983;-0.32421875;0.61181640625;0.59326171875;18.9375;0.5;6.0
1.0;0.21392822265625;-0.36968994140625;-0.90185546875;0.06573486328125;10.970806741637732;11.378512475564003;0.8546714923100819;-0.34033203125;0.61181640625;0.55419921875;27.5625;2.0;4.25
1.0;0.2154541015625;-0.3753662109375;-0.899169921875;0.06524658203125;10.978238047605839;11.417367366178226;0.8625616683642497;-0.3603515625;0.64892578125;0.53564453125;31.4375;2.0625;3.5625
1.0;0.21759033203125;-0.38067626953125;-0.89642333984375;0.06512451171875;10.990718860457179;11.455434445668482;0.8739218814161838;-0.36083984375;0.66552734375;0.5263671875;32.875;4.625;4.25
1.0;0.22027587890625;-0.38641357421875;-0.893310546875;0.06451416015625;11.01018673825114;11.497225986818036;0.8849502595788754;-0.34716796875;0.67919921875;0.5341796875;31.4375;9.8125;3.5
1.0;0.22320556640625;-0.39276123046875;-0.88995361328125;0.06341552734375;11.033013040298531;11.543044949580336;0.8948767054855027;-0.34814453125;0.671875;0.5458984375;37.0625;12.5625;0.5625
1.0;0.2252197265625;-0.3990478515625;-0.88671875;0.06146240234375;11.05091167257108;11.586624481856072;0.8977911045727532;-0.37646484375;0.669921875;0.5263671875;41.375;11.5;0.0
1.0;0.22503662109375;-0.40643310546875;-0.8836669921875;0.05804443359375;11.051847698471121;11.631823533257064;0.8873917591361893;-0.41650390625;0.654296875;0.5576171875;44.625;4.5625;0.0
1.0;0.2227783203125;-0.41693115234375;-0.879638671875;0.05364990234375;11.031346305633713;11.69284301328736;0.8689744644546097;-0.4306640625;0.6923828125;0.6123046875;53.25;-9.625;-1.0625
1.0;0.220947265625;-0.427001953125;-0.87548828125;0.0496826171875;11.014585214481189;11.752742871974272;0.8537412805164897;-0.3466796875;0.75732421875;0.5771484375;68.75;-19.5;-2.125
1.0;0.22027587890625;-0.43328857421875;-0.87274169921875;0.0460205078125;11.015665574636374;11.790561729593195;0.8395825067150331;-0.2666015625;0.8046875;0.5244140625;63.0;-13.875;-6.3125
1.0;0.21929931640625;-0.44061279296875;-0.8695068359375;0.0421142578125;11.013516363985934;11.834667342618339;0.8244257238802518;-0.3291015625;0.77294921875;0.53955078125;43.4375;-9.875;-9.0
1.0;0.21795654296875;-0.44671630859375;-0.8668212890625;0.03985595703125;11.001343597740895;11.871240527425051;0.8153180527869466;-0.31494140625;0.84765625;0.521484375;47.4375;-11.125;-10.125
1.0;0.2164306640625;-0.44903564453125;-0.86602783203125;0.03973388671875;10.98260914524401;11.883561972514812;0.8122893762251473;-0.294921875;0.9326171875;0.4462890625;31.3125;-10.3125;-5.5
1.0;0.21539306640625;-0.45123291015625;-0.86517333984375;0.039306640625;10.970676450585572;11.895890660401722;0.8091395478974627;-0.3017578125;0.8896484375;0.490234375;9.375;-6.4375;1.75
1.0;0.21417236328125;-0.45458984375;-0.86376953125;0.03826904296875;10.958284646053214;11.915279626714861;0.8035326982001233;-0.31396484375;0.7939453125;0.49365234375;13.125;-4.875;2.3125
1.0;0.21209716796875;-0.4580078125;-0.86248779296875;0.03778076171875;10.934355974192309;11.933825658291774;0.7979783051292622;-0.3466796875;0.83447265625;0.46484375;18.1875;-9.0625;2.1875
1.0;0.209716796875;-0.461669921875;-0.86114501953125;0.03717041015625;10.907760279152312;11.953371336304532;0.7909881608358579;-0.31005859375;0.8857421875;0.466796875;16.125;-10.5625;4.5625
1.0;0.20703125;-0.46685791015625;-0.85894775390625;0.03778076171875;10.868528697919873;11.983432414631496;0.7908586093522593;-0.33203125;0.84130859375;0.45751953125;19.25;-13.25;7.5625
1.0;0.20257568359375;-0.47003173828125;-0.85833740234375;0.03765869140625;10.819880049117605;11.996013826042333;0.7786882243088444;-0.41796875;0.88427734375;0.39990234375;23.5;-15.25;20.8125
1.0;0.19549560546875;-0.4715576171875;-0.85919189453125;0.03564453125;10.759576995293557;11.992158274741618;0.7465776521376519;-0.408203125;0.84716796875;0.3974609375;10.875;-27.4375;20.0
1.0;0.1868896484375;-0.4744873046875;-0.859619140625;0.03265380859375;10.687578380581988;11.995019219750763;0.7060837996587161;-0.3515625;0.7626953125;0.48388671875;8.375;-42.875;14.75
1.0;0.17724609375;-0.47698974609375;-0.8603515625;0.02984619140625;10.605182263238792;11.994354142560038;0.663034162346175;-0.28369140625;0.79833984375;0.49951171875;16.875;-50.875;12.125
1.0;0.1685791015625;-0.4793701171875;-0.86090087890625;0.02667236328125;10.534720932667195;11.995056699892576;0.6213823572500565;-0.2138671875;0.7802734375;0.52587890625;15.75;-53.5;12.125
1.0;0.16046142578125;-0.482177734375;-0.86090087890625;0.0247802734375;10.461862105157609;12.00101227830156;0.5885819398017639;-0.22998046875;0.7978515625;0.54833984375;17.125;-50.1875;9.1875
1.0;0.15301513671875;-0.482666015625;-0.86199951171875;0.02435302734375;10.390337736069094;11.993531185516808;0.563454749899881;-0.232421875;0.880859375;0.48193359375;12.75;-44.875;13.5625
1.0;0.146728515625;-0.4825439453125;-0.8631591796875;0.0247802734375;10.32603834863507;11.984363872073574;0.5459718857202076;-0.18408203125;0.8466796875;0.46435546875;-3.0;-37.375;15.3125
1.0;0.14117431640625;-0.48052978515625;-0.86517333984375;0.0260009765625;10.266693810617321;11.964231547491915;0.5335438573178166;-0.1669921875;0.8369140625;0.42041015625;-8.9375;-30.0;15.375
1.0;0.13616943359375;-0.47650146484375;-0.8681640625;0.02777099609375;10.211960123895325;11.93189237838573;0.5244104844578076;-0.17333984375;0.86181640625;0.42578125;-22.625;-25.375;16.375
1.0;0.132568359375;-0.47344970703125;-0.87030029296875;0.029541015625;10.169906251332693;11.908124067896395;0.5205195028561549;-0.1533203125;0.7880859375;0.44970703125;-32.1875;-20.375;16.1875
1.0;0.12982177734375;-0.47271728515625;-0.87109375;0.0308837890625;10.135929135950025;11.900462433027206;0.5186553374055193;-0.14501953125;0.7158203125;0.44140625;-23.25;-13.5;14.3125
1.0;0.12713623046875;-0.47271728515625;-0.8714599609375;0.03253173828125;10.09999180487027;11.897843202480828;0.5190338088075598;-0.189453125;0.75048828125;0.44140625;-8.75;-11.125;13.8125
1.0;0.12420654296875;-0.47021484375;-0.87310791015625;0.034912109375;10.060557452439673;11.878967856477889;0.5209616956466011;-0.1826171875;0.8427734375;0.41796875;-9.25;-10.3125;15.0
1.0;0.1221923828125;-0.4656982421875;-0.875732421875;0.03717041015625;10.033354836508545;11.847821799342471;0.5238615254649965;-0.13671875;0.81982421875;0.43017578125;-24.625;-8.625;14.75
1.0;0.121337890625;-0.461181640625;-0.87811279296875;0.03985595703125;10.015551714525468;11.818276855296189;0.5324560092562719;-0.14453125;0.75;0.4814453125;-32.1875;-4.3125;11.9375
1.0;0.12103271484375;-0.45977783203125;-0.8787841796875;0.0416259765625;10.004601750258226;11.809432849443267;0.5398260182232117;-0.15283203125;0.6904296875;0.49169921875;-29.0625;2.5;12.3125
1.0;0.1199951171875;-0.45745849609375;-0.880126953125;0.04248046875;9.99238631099689;11.793391665303638;0.5399016354538386;-0.1875;0.7802734375;0.4580078125;-13.875;1.125;9.8125
1.0;0.1190185546875;-0.453369140625;-0.88232421875;0.043212890625;9.983612473024019;11.766052058176479;0.5386208099608167;-0.1591796875;0.80810546875;0.4775390625;-20.1875;-3.6875;4.3125
1.0;0.11883544921875;-0.44854736328125;-0.884765625;0.04376220703125;9.984695616982302;11.734856812508557;0.5382735043066017;-0.15673828125;0.765625;0.50146484375;-28.875;-3.75;2.5
1.0;0.1192626953125;-0.44451904296875;-0.88671875;0.04425048828125;9.991320462773642;11.709443618763208;0.5397390482969053;-0.15576171875;0.7001953125;0.5341796875;-28.875;0.1875;-0.0625
1.0;0.11981201171875;-0.44256591796875;-0.88763427734375;0.044921875;9.995728127366183;11.6975361452074;0.5435966209234491;-0.16748046875;0.66015625;0.55126953125;-21.5625;3.0625;-0.5625
1.0;0.12091064453125;-0.44134521484375;-0.8880615234375;0.044677734375;10.009646855568437;11.690889642568298;0.5447113783163311;-0.134765625;0.705078125;0.54248046875;-11.125;5.5625;-0.6875
1.0;0.1219482421875;-0.4400634765625;-0.88861083984375;0.0443115234375;10.02362841190995;11.683535754637523;0.5449209981198836;-0.1572265625;0.7373046875;0.51708984375;-8.0;4.75;-5.0625
1.0;0.12322998046875;-0.43743896484375;-0.88970947265625;0.04412841796875;10.040811002271996;11.668051558410875;0.5460004723755402;-0.1591796875;0.7529296875;0.5078125;-10.125;4.125;-6.4375
1.0;0.12506103515625;-0.43438720703125;-0.8909912109375;0.0438232421875;10.064726806299065;11.650256935631273;0.5476129711543556;-0.16357421875;0.716796875;0.51806640625;-16.625;5.625;-6.125
1.0;0.12713623046875;-0.43267822265625;-0.89154052734375;0.04302978515625;10.092038598128983;11.641355976611731;0.5481482616693711;-0.18212890625;0.6650390625;0.54345703125;-15.8125;8.0;-7.125
1.0;0.12908935546875;-0.4315185546875;-0.89190673828125;0.041748046875;10.119912087888599;11.635543734686301;0.5460824310025069;-0.20703125;0.68408203125;0.53759765625;-7.9375;7.0;-8.5625
1.0;0.13165283203125;-0.42999267578125;-0.892333984375;0.03985595703125;10.157591239670175;11.62795203982911;0.5422790142440399;-0.197265625;0.7041015625;0.5263671875;-6.0;6.0;-11.1875
1.0;0.13470458984375;-0.42816162109375;-0.89288330078125;0.0374755859375;10.20307282154783;11.618646266914329;0.5369799420878212;-0.208984375;0.69775390625;0.53076171875;-6.875;6.9375;-15.5
1.0;0.13836669921875;-0.4267578125;-0.89306640625;0.03472900390625;10.256168503342266;11.612799959140554;0.5317120200277963;-0.2060546875;0.65869140625;0.52880859375;-7.3125;8.875;-19.875
1.0;0.1429443359375;-0.42572021484375;-0.89300537109375;0.0318603515625;10.318758876831092;11.610100508155865;0.5284598475885969;-0.1923828125;0.654296875;0.537109375;-3.3125;12.3125;-23.5625
1.0;0.1478271484375;-0.42559814453125;-0.892333984375;0.02838134765625;10.386599000989667;11.61372664969714;0.5236406749266604;-0.20654296875;0.62646484375;0.5361328125;0.875;16.375;-25.75
1.0;0.15283203125;-0.426025390625;-0.89141845703125;0.0240478515625;10.459408002703743;11.62054072178124;0.5151516161332834;-0.2197265625;0.6533203125;0.53271484375;6.0625;16.8125;-28.9375
1.0;0.1583251953125;-0.42633056640625;-0.89044189453125;0.019775390625;10.537110687589534;11.627217873875106;0.5083328135608808;-0.22900390625;0.6806640625;0.51806640625;8.8125;15.625;-33.5
1.0;0.16351318359375;-0.42626953125;-0.88958740234375;0.01654052734375;10.606898333106276;11.631859685149442;0.5059117922540417;-0.25927734375;0.68115234375;0.51513671875;8.125;17.3125;-33.375
1.0;0.16876220703125;-0.4267578125;-0.888427734375;0.01361083984375;10.675156762923464;11.640409774762734;0.5058673923574072;-0.2607421875;0.68017578125;0.52685546875;5.4375;18.875;-28.8125
1.0;0.174072265625;-0.42877197265625;-0.886474609375;0.010498046875;10.743301463042478;11.659107489767194;0.5067068097553591;-0.2373046875;0.65771484375;0.5263671875;10.125;21.5625;-27.8125
1.0;0.17889404296875;-0.43060302734375;-0.8846435546875;0.00775146484375;10.804812174219009;11.676373117571913;0.5081473770972447;-0.25341796875;0.6953125;0.50830078125;17.875;21.6875;-27.5
1.0;0.1832275390625;-0.4312744140625;-0.8834228515625;0.00537109375;10.860795383250736;11.68571189732039;0.5090764530336738;-0.27001953125;0.74365234375;0.5;13.8125;19.375;-25.75
1.0;0.18701171875;-0.43218994140625;-0.8822021484375;0.0040283203125;10.9054247320713;11.696542883877283;0.5142030223398151;-0.3046875;0.697265625;0.51708984375;9.25;17.0625;-21.5
1.0;0.19036865234375;-0.43255615234375;-0.88128662109375;0.00372314453125;10.940900921584705;11.70397988685407;0.5230513055053415;-0.3056640625;0.732421875;0.5205078125;8.625;17.125;-15.5
1.0;0.19317626953125;-0.4342041015625;-0.8798828125;0.00396728515625;10.966253815304391;11.719451321599294;0.5346482074885694;-0.28759765625;0.69873046875;0.5234375;5.5;18.0625;-10.3125
1.0;0.19580078125;-0.43731689453125;-0.87774658203125;0.00457763671875;10.985909826898332;11.744843636106896;0.5494425502113308;-0.29443359375;0.73046875;0.521484375;11.4375;17.1875;-5.125
1.0;0.197509765625;-0.43951416015625;-0.87628173828125;0.0072021484375;10.986359589670107;11.763988191884623;0.5710003000879983;-0.3330078125;0.7451171875;0.5;19.0;16.4375;-0.125
1.0;0.19818115234375;-0.43963623046875;-0.8759765625;0.01220703125;10.966118692587182;11.769374605033404;0.5995130815029682;-0.349609375;0.83447265625;0.5;7.625;15.4375;10.6875
1.0;0.1981201171875;-0.4376220703125;-0.87689208984375;0.01739501953125;10.940434859007246;11.759340334807533;0.6242653978182544;-0.2861328125;0.83203125;0.47216796875;-10.0;16.5625;19.375
1.0;0.197265625;-0.43646240234375;-0.8775634765625;0.0216064453125;10.910899124792468;11.752953828634393;0.6424252584248648;-0.2666015625;0.74609375;0.52880859375;-17.8125;14.25;20.9375
1.0;0.19647216796875;-0.43853759765625;-0.8765869140625;0.0267333984375;10.872287669469337;11.76857108724132;0.6690578374406104;-0.26904296875;0.66552734375;0.57275390625;-6.5;8.5625;21.1875
1.0;0.1968994140625;-0.44049072265625;-0.87530517578125;0.033203125;10.83863473714864;11.786214093674909;0.7062361287508635;-0.26611328125;0.72705078125;0.53759765625;8.6875;11.625;28.1875
1.0;0.19793701171875;-0.43914794921875;-0.87542724609375;0.0411376953125;10.808323559624663;11.783932402080081;0.7494225111523446;-0.26171875;0.83203125;0.47802734375;0.875;20.375;29.875
1.0;0.19842529296875;-0.4371337890625;-0.87591552734375;0.0484619140625;10.777189300968214;11.776013978086638;0.7871177608249141;-0.265625;0.81591796875;0.529296875;-17.1875;26.875;32.5625
1.0;0.1988525390625;-0.4368896484375;-0.87554931640625;0.055419921875;10.744341606090696;11.779207779872817;0.8244512806905591;-0.27392578125;0.74169921875;0.544921875;-17.8125;22.0625;32.0625
1.0;0.2001953125;-0.43682861328125;-0.874755859375;0.06304931640625;10.716591863276276;11.785673395926572;0.8683277996781843;-0.2529296875;0.72900390625;0.5107421875;-7.125;21.1875;32.25
1.0;0.20306396484375;-0.43463134765625;-0.87457275390625;0.07122802734375;10.70523938162707;11.781330991443927;0.9178047414269564;-0.2451171875;0.77294921875;0.49072265625;-8.9375;27.3125;32.6875
1.0;0.20623779296875;-0.43096923828125;-0.8748779296875;0.07989501953125;10.697669868068715;11.768570963984596;0.9695372823179346;-0.25537109375;0.7724609375;0.48486328125;-21.3125;36.375;29.6875
1.0;0.20892333984375;-0.42803955078125;-0.87493896484375;0.08782958984375;10.688025861791514;11.759315715561875;1.0166777808339964;-0.2607421875;0.744140625;0.5244140625;-27.1875;39.3125;30.0625
1.0;0.21209716796875;-0.4268798828125;-0.87396240234375;0.0947265625;10.684943148880176;11.762325911830468;1.0617875605353886;-0.28662109375;0.71484375;0.5458984375;-20.5625;34.6875;30.875
1.0;0.21649169921875;-0.42510986328125;-0.873046875;0.10162353515625;10.695232952016577;11.763761661962926;1.110135001341061;-0.27587890625;0.75537109375;0.5234375;-10.0;34.375;25.5625
1.0;0.22161865234375;-0.420166015625;-0.87335205078125;0.108154296875;10.722881353853817;11.746722798284067;1.1562334526006786;-0.28857421875;0.7802734375;0.49853515625;-15.125;40.0625;22.1875
1.0;0.22705078125;-0.41680908203125;-0.873046875;0.1124267578125;10.76192942683959;11.739614588724242;1.1930090456715727;-0.32958984375;0.72705078125;0.54296875;-28.6875;42.6875;16.9375
1.0;0.23321533203125;-0.41400146484375;-0.8721923828125;0.11639404296875;10.80849041672414;11.738170667458311;1.2313331968036183;-0.37890625;0.71240234375;0.52734375;-16.9375;36.4375;9.75
1.0;0.238525390625;-0.410400390625;-0.87188720703125;0.12054443359375;10.848029413950005;11.730134830951336;1.26716286801369;-0.412109375;0.76806640625;0.52783203125;-13.75;39.0;7.6875
1.0;0.2430419921875;-0.4063720703125;-0.87200927734375;0.124267578125;10.883571764203456;11.717549819683958;1.2977760964790823;-0.40576171875;0.75146484375;0.51416015625;-20.5625;34.75;8.625
1.0;0.24810791015625;-0.4022216796875;-0.8720703125;0.1273193359375;10.928669252696332;11.705442515654873;1.3265994169937088;-0.36572265625;0.69287109375;0.5263671875;-20.75;31.9375;6.5625
1.0;0.25299072265625;-0.39935302734375;-0.87176513671875;0.12872314453125;10.977177958923642;11.700354322106168;1.3474653208494587;-0.3671875;0.67919921875;0.546875;-18.5625;33.625;1.625
1.0;0.2559814453125;-0.39691162109375;-0.87200927734375;0.128662109375;11.013874879126769;11.692339865273796;1.3546270088101258;-0.4052734375;0.689453125;0.56591796875;-8.5;27.8125;-3.125
1.0;0.25762939453125;-0.3944091796875;-0.872802734375;0.12762451171875;11.042893121792218;11.67983855020728;1.3519420264419035;-0.384765625;0.7294921875;0.5615234375;-8.9375;14.5625;-7.9375
1.0;0.25946044921875;-0.39190673828125;-0.87353515625;0.1268310546875;11.07237386429249;11.667871182586559;1.3510641279846562;-0.361328125;0.7470703125;0.55908203125;-11.4375;6.4375;-12.375
1.0;0.26202392578125;-0.39019775390625;-0.87359619140625;0.12640380859375;11.104739199065005;11.663274344597202;1.3555390422456997;-0.34716796875;0.7236328125;0.5546875;-10.5625;8.125;-12.0625
1.0;0.263671875;-0.39031982421875;-0.8731689453125;0.12567138671875;11.124296552525657;11.667770502785036;1.3573053599113574;-0.3583984375;0.666015625;0.51953125;-5.3125;11.875;-8.5625
1.0;0.26409912109375;-0.390625;-0.87298583984375;0.1248779296875;11.131751190587595;11.670337718649957;1.3548939945734193;-0.35498046875;0.71240234375;0.51953125;3.5;6.625;-6.1875
1.0;0.2647705078125;-0.39056396484375;-0.8729248046875;0.1241455078125;11.142336528686194;11.67112428162871;1.353155915785452;-0.32568359375;0.7177734375;0.5205078125;2.6875;0.875;-5.75
1.0;0.26611328125;-0.38916015625;-0.87322998046875;0.12347412109375;11.163174431405752;11.66516371304684;1.352528038241268;-0.302734375;0.720703125;0.486328125;-1.375;2.4375;-7.875
1.0;0.26788330078125;-0.38897705078125;-0.87286376953125;0.12298583984375;11.18355392949534;11.668238387439747;1.355708377331761;-0.3251953125;0.697265625;0.52978515625;-5.0;6.8125;-9.625
1.0;0.26959228515625;-0.38909912109375;-0.872314453125;0.1229248046875;11.200164689319488;11.673483923750215;1.36136935400561;-0.3447265625;0.67578125;0.51953125;2.8125;8.6875;-6.1875
1.0;0.2708740234375;-0.389892578125;-0.87158203125;0.1226806640625;11.211566913364635;11.681896373520166;1.365456098569955;-0.35986328125;0.68994140625;0.52001953125;3.375;8.875;-2.9375
1.0;0.27166748046875;-0.3900146484375;-0.871337890625;0.12237548828125;11.220530269210132;11.684546563531397;1.366686421308637;-0.35009765625;0.68798828125;0.4951171875;6.5;6.0625;-2.3125
1.0;0.27227783203125;-0.38946533203125;-0.871337890625;0.1224365234375;11.227842123633245;11.682849289704155;1.368567422145035;-0.36083984375;0.68603515625;0.4931640625;1.3125;2.625;-2.0
1.0;0.27325439453125;-0.389892578125;-0.87091064453125;0.1220703125;11.237982403896373;11.687917290557401;1.3704769898800113;-0.35302734375;0.69140625;0.525390625;-1.5;3.9375;-1.875
1.0;0.27447509765625;-0.39093017578125;-0.8701171875;0.12188720703125;11.247653614897837;11.6977172648422;1.374959581304243;-0.37109375;0.65576171875;0.50830078125;5.9375;3.75;-1.4375
1.0;0.27569580078125;-0.3931884765625;-0.8687744140625;0.12127685546875;11.255896196269585;11.715245962496862;1.3787504871318297;-0.37939453125;0.67138671875;0.51611328125;9.375;5.5;0.4375
1.0;0.27606201171875;-0.3939208984375;-0.86834716796875;0.1212158203125;11.257525206409591;11.720908595878566;1.380584757019676;-0.404296875;0.7119140625;0.48046875;14.4375;3.125;0.9375
1.0;0.2760009765625;-0.39434814453125;-0.86810302734375;0.1214599609375;11.254340990772146;11.723801223952412;1.3822651267276989;-0.38037109375;0.7197265625;0.47900390625;3.0625;0.25;0.6875
1.0;0.2767333984375;-0.3955078125;-0.8673095703125;0.12164306640625;11.256887143715907;11.733501710675299;1.3872700058539844;-0.3359375;0.69287109375;0.50390625;2.625;1.0;1.3125
1.0;0.27813720703125;-0.3974609375;-0.865966796875;0.121826171875;11.263404256793969;11.75013635719009;1.3955930603152715;-0.3251953125;0.6806640625;0.4931640625;8.5;5.8125;0.625
1.0;0.2791748046875;-0.399169921875;-0.8648681640625;0.121826171875;11.268076123121666;11.764064059327943;1.401364573338789;-0.36376953125;0.7255859375;0.4833984375;11.9375;7.5625;1.375
1.0;0.279541015625;-0.40045166015625;-0.8641357421875;0.12188720703125;11.267276738865933;11.773495846400763;1.4046019029057661;-0.38037109375;0.73486328125;0.4716796875;9.5625;4.4375;1.25
1.0;0.2799072265625;-0.40155029296875;-0.86346435546875;0.12225341796875;11.26534695373301;11.781920001693504;1.4092103438385237;-0.36328125;0.73974609375;0.49169921875;7.1875;2.125;1.6875
1.0;0.28070068359375;-0.4034423828125;-0.86224365234375;0.12249755859375;11.265692770294175;11.796787372446706;1.415790946757622;-0.35009765625;0.72265625;0.49609375;6.6875;3.4375;2.0625
1.0;0.28179931640625;-0.40521240234375;-0.861083984375;0.12255859375;11.270241225954189;11.811363279414566;1.4222193580691502;-0.33984375;0.71142578125;0.478515625;12.1875;5.8125;2.1875
1.0;0.28228759765625;-0.40625;-0.86041259765625;0.12249755859375;11.271965992883954;11.819560677355708;1.4250129391597188;-0.38134765625;0.73974609375;0.4892578125;11.625;5.6875;2.125
1.0;0.28253173828125;-0.40740966796875;-0.85986328125;0.12213134765625;11.272623694352014;11.827441970425049;1.4253302978696836;-0.38720703125;0.71435546875;0.48388671875;7.6875;2.0;2.125
1.0;0.28277587890625;-0.41015625;-0.858642578125;0.12103271484375;11.272329510592414;11.845155892073793;1.4237394480600865;-0.38134765625;0.6923828125;0.5078125;10.4375;0.1875;1.5
1.0;0.28369140625;-0.413330078125;-0.85699462890625;0.119384765625;11.280198650527566;11.867429071640235;1.4224025987193403;-0.3642578125;0.69970703125;0.484375;20.0;-1.0625;0.125
1.0;0.28521728515625;-0.41680908203125;-0.8551025390625;0.11737060546875;11.294929553998466;11.893045579059828;1.4217238772795682;-0.37060546875;0.7109375;0.46923828125;23.25;1.0;-3.125
1.0;0.28607177734375;-0.41900634765625;-0.85400390625;0.11566162109375;11.305697735990899;11.908584880532743;1.4186128420980866;-0.39697265625;0.7431640625;0.43505859375;24.0;1.5;-5.25
1.0;0.28656005859375;-0.42095947265625;-0.85308837890625;0.114013671875;11.313503231267232;11.921653136114408;1.4142541134207023;-0.39404296875;0.775390625;0.45361328125;15.1875;-0.375;-5.625
1.0;0.28680419921875;-0.42279052734375;-0.85235595703125;0.11212158203125;11.320829811692922;11.932987717272686;1.4075277984929395;-0.38134765625;0.77197265625;0.46240234375;14.375;-1.4375;-6.125
1.0;0.286865234375;-0.42620849609375;-0.85089111328125;0.11004638671875;11.322535749849882;11.95419127294391;1.4012253471913474;-0.37939453125;0.7412109375;0.46923828125;14.9375;-3.25;-5.5625
1.0;0.2877197265625;-0.42987060546875;-0.8489990234375;0.108154296875;11.32994011218401;11.97954179637756;1.3992742785402188;-0.3759765625;0.74755859375;0.46533203125;24.75;-4.125;-3.9375
1.0;0.2890625;-0.43243408203125;-0.847412109375;0.10662841796875;11.343305986854372;11.999485805867074;1.399826749687653;-0.376953125;0.76220703125;0.4326171875;25.25;0.1875;-4.4375
1.0;0.29046630859375;-0.43365478515625;-0.84649658203125;0.1048583984375;11.362952827310245;12.010618364612805;1.3976932117000713;-0.3896484375;0.775390625;0.4296875;18.3125;3.125;-5.625
1.0;0.29156494140625;-0.43426513671875;-0.8460693359375;0.10296630859375;11.382385164522663;12.01650217436335;1.3928546051796222;-0.4140625;0.75927734375;0.42919921875;11.875;1.9375;-7.5
1.0;0.29254150390625;-0.435546875;-0.8453369140625;0.10113525390625;11.39821190685222;12.026511078152906;1.3887551233333315;-0.4248046875;0.71826171875;0.45751953125;10.375;0.3125;-7.4375
1.0;0.29388427734375;-0.43768310546875;-0.843994140625;0.098876953125;11.417370744069373;12.043332087208196;1.38522888840765;-0.41259765625;0.75537109375;0.46240234375;13.8125;1.0;-7.3125
1.0;0.29498291015625;-0.4384765625;-0.843505859375;0.09625244140625;11.440682226872768;12.050048206811383;1.3769962694611182;-0.4072265625;0.798828125;0.42919921875;17.375;1.5;-10.0625
1.0;0.2960205078125;-0.43829345703125;-0.843505859375;0.09393310546875;11.46470097264794;12.050247143541245;1.3687862572861453;-0.3984375;0.79931640625;0.4306640625;9.3125;-0.9375;-14.625
1.0;0.29718017578125;-0.43902587890625;-0.843017578125;0.0911865234375;11.489566959734004;12.056671153773554;1.3601371911754543;-0.4033203125;0.75341796875;0.44921875;5.375;0.0;-13.8125
1.0;0.29815673828125;-0.44097900390625;-0.8419189453125;0.08856201171875;11.508274205885666;12.070907875797296;1.3531800658065303;-0.41357421875;0.73388671875;0.42724609375;11.0625;-1.0625;-13.3125
1.0;0.2991943359375;-0.443359375;-0.840576171875;0.08612060546875;11.525177172299019;12.08829020297304;1.348032299186533;-0.404296875;0.77783203125;0.41650390625;16.6875;-0.625;-11.9375
1.0;0.2996826171875;-0.4443359375;-0.840087890625;0.083984375;11.539558765618285;12.094854318844092;1.3403593827589249;-0.392578125;0.83642578125;0.3935546875;16.6875;-0.0625;-12.6875
1.0;0.2994384765625;-0.4442138671875;-0.84039306640625;0.082275390625;11.547949679625368;12.092008516247049;1.3303525757807133;-0.3984375;0.83447265625;0.400390625;7.0;-2.75;-12.75
1.0;0.2999267578125;-0.44482421875;-0.840087890625;0.08056640625;11.560894621693722;12.096278093638594;1.3243045008657173;-0.3828125;0.7841796875;0.43896484375;2.625;-4.1875;-10.3125
1.0;0.3018798828125;-0.4462890625;-0.8388671875;0.07781982421875;11.591186065446756;12.110272924840949;1.320191176842946;-0.37353515625;0.7421875;0.41796875;8.3125;-0.0625;-9.8125
1.0;0.30474853515625;-0.44744873046875;-0.8375244140625;0.073974609375;11.637653778842267;12.124426553827977;1.3138747253626861;-0.4052734375;0.7431640625;0.396484375;15.875;3.9375;-15.25
1.0;0.307861328125;-0.44879150390625;-0.836181640625;0.06842041015625;11.69626554105199;12.139109823203816;1.300017791954284;-0.43408203125;0.7275390625;0.39013671875;17.375;5.25;-21.6875
1.0;0.310791015625;-0.449951171875;-0.83502197265625;0.06097412109375;11.76553243045371;12.150736860214502;1.2756204976170318;-0.4658203125;0.73681640625;0.39599609375;21.75;1.625;-29.4375
1.0;0.31353759765625;-0.451416015625;-0.83380126953125;0.0518798828125;11.842565730735675;12.162492879500231;1.2425353381684794;-0.490234375;0.71826171875;0.3798828125;23.6875;-4.875;-36.875
1.0;0.3165283203125;-0.453857421875;-0.83203125;0.0406494140625;11.93256856209123;12.179795313127984;1.2011153119881157;-0.49267578125;0.6875;0.38134765625;29.3125;-10.0;-43.5
1.0;0.3192138671875;-0.456787109375;-0.82989501953125;0.02752685546875;12.03089371659327;12.198283348811163;1.1499194159311;-0.52001953125;0.69384765625;0.37841796875;39.0625;-13.25;-51.8125
1.0;0.32183837890625;-0.46038818359375;-0.82720947265625;0.0137939453125;12.1315671942472;12.220783086224486;1.0968488196190398;-0.57958984375;0.70556640625;0.3974609375;46.625;-19.75;-57.1875
1.0;0.32452392578125;-0.46368408203125;-0.824462890625;1.8310546875E-4;12.23381569200684;12.241288090937744;1.0443745744730948;-0.5810546875;0.74560546875;0.36474609375;50.25;-20.9375;-61.0
1.0;0.3275146484375;-0.4664306640625;-0.82159423828125;-0.0146484375;12.349078514267354;12.257817763833758;0.9861356474939943;-0.5341796875;0.72900390625;0.3330078125;47.5;-19.3125;-63.875
1.0;0.33148193359375;-0.46746826171875;-0.8189697265625;-0.02972412109375;12.480159907651718;12.264758391962188;0.9274960680953744;-0.5458984375;0.7080078125;0.3359375;48.75;-20.5;-71.5625
1.0;0.3365478515625;-0.4664306640625;-0.81689453125;-0.0433349609375;12.61757376518892;12.260856543138468;0.8765460089203938;-0.59521484375;0.74755859375;0.30859375;37.875;-18.5625;-78.75
1.0;0.34234619140625;-0.4635009765625;-0.81549072265625;-0.0548095703125;12.752664599714354;12.24677889350344;0.8351912960270264;-0.6181640625;0.73193359375;0.26513671875;21.875;-12.6875;-78.1875
1.0;0.34857177734375;-0.45941162109375;-0.81451416015625;-0.06396484375;12.879616975947108;12.22743087730682;0.8047063532832637;-0.634765625;0.7314453125;0.2548828125;6.125;-5.4375;-74.5
1.0;0.35516357421875;-0.45391845703125;-0.81402587890625;-0.07208251953125;13.00647430801625;12.199367034287667;0.77713973774149;-0.603515625;0.73046875;0.24609375;-5.625;2.125;-70.1875
1.0;0.36212158203125;-0.44781494140625;-0.8135986328125;-0.08026123046875;13.138315744076815;12.166840122801226;0.7481110637017628;-0.5986328125;0.71826171875;0.26123046875;-14.8125;6.0625;-70.0625
1.0;0.36907958984375;-0.4417724609375;-0.81292724609375;-0.08843994140625;13.270104574795395;12.134085005946735;0.7181293017129586;-0.61279296875;0.693359375;0.28271484375;-16.8125;8.0625;-72.1875
1.0;0.3760986328125;-0.43743896484375;-0.81121826171875;-0.0960693359375;13.396115642485897;12.11559687918378;0.6959705408621448;-0.6328125;0.6484375;0.3154296875;-13.75;10.3125;-70.625
1.0;0.382568359375;-0.4337158203125;-0.80938720703125;-0.10247802734375;13.508295167397701;12.101698770759128;0.6796684271336353;-0.64697265625;0.62890625;0.2841796875;-5.125;13.25;-65.125
1.0;0.38885498046875;-0.4287109375;-0.808349609375;-0.10760498046875;13.613030649720596;12.078184547907625;0.6650730929575303;-0.66845703125;0.67626953125;0.2724609375;-6.375;14.0;-59.5
1.0;0.39483642578125;-0.42291259765625;-0.8079833984375;-0.11138916015625;13.707632391603937;12.048419529784283;0.6533037117308194;-0.68115234375;0.65673828125;0.2734375;-16.875;13.875;-54.9375
1.0;0.4002685546875;-0.4171142578125;-0.807861328125;-0.11505126953125;13.795727260736827;12.015732408323645;0.6384455791415047;-0.689453125;0.62548828125;0.294921875;-23.3125;14.75;-49.0
1.0;0.4049072265625;-0.4119873046875;-0.80767822265625;-0.11810302734375;13.871193071576362;11.986473478558818;0.625184975113786;-0.6962890625;0.59130859375;0.30908203125;-22.9375;12.5625;-45.5625
1.0;0.40924072265625;-0.4072265625;-0.8076171875;-0.120361328125;13.937744697975173;11.959851344530032;0.6158611185434814;-0.701171875;0.59326171875;0.31787109375;-20.5;11.875;-40.3125
1.0;0.41351318359375;-0.40179443359375;-0.807861328125;-0.12225341796875;14.002728920461546;11.927703005325458;0.6054600129600874;-0.70068359375;0.611328125;0.3193359375;-21.4375;12.1875;-37.125
1.0;0.4173583984375;-0.39642333984375;-0.80841064453125;-0.123291015625;14.05782286382949;11.895451971193339;0.5978039507166902;-0.7197265625;0.5302734375;0.33642578125;-23.75;12.0;-31.9375
1.0;0.4205322265625;-0.391845703125;-0.80889892578125;-0.12384033203125;14.10189712051837;11.86822833686985;0.5926625169423276;-0.74169921875;0.5048828125;0.3505859375;-24.9375;11.875;-25.375
1.0;0.42340087890625;-0.3875732421875;-0.8094482421875;-0.1241455078125;14.140685210461907;11.84251944915096;0.5883320500377727;-0.74072265625;0.51513671875;0.34912109375;-22.625;10.3125;-21.25
1.0;0.42596435546875;-0.3829345703125;-0.810302734375;-0.12384033203125;14.173516876302456;11.813749413415003;0.5847618624009155;-0.75830078125;0.5185546875;0.3408203125;-22.375;8.8125;-18.4375
1.0;0.4288330078125;-0.37835693359375;-0.81103515625;-0.12347412109375;14.20895676623979;11.786696586972852;0.5831546755978333;-0.75048828125;0.52392578125;0.33837890625;-26.375;7.75;-16.6875
1.0;0.43304443359375;-0.37420654296875;-0.81072998046875;-0.1231689453125;14.259259920854094;11.770350625887056;0.5907429408427826;-0.82080078125;0.466796875;0.30712890625;-26.375;6.0625;-11.9375
1.0;0.43121337890625;-0.3692626953125;-0.81439208984375;-0.1202392578125;14.22940202177862;11.723668321716183;0.5782693068133482;-0.97705078125;0.4521484375;0.23876953125;-24.875;7.9375;-9.0
1.0;0.43304443359375;-0.366943359375;-0.81475830078125;-0.11846923828125;14.242573638356607;11.715928800433648;0.5902561501158654;-0.47607421875;0.44580078125;0.47509765625;-31.25;-0.5;-0.375
1.0;0.43756103515625;-0.36285400390625;-0.81427001953125;-0.11810302734375;14.295939675495424;11.701451789240412;0.5997601369073653;-0.7373046875;0.49658203125;0.138671875;-24.9375;-0.875;-3.1875
1.0;0.43927001953125;-0.35736083984375;-0.81585693359375;-0.117431640625;14.319047299886346;11.661128816054521;0.5890538121064346;-1.21484375;0.4248046875;0.1748046875;-26.5625;-0.25;0.0
1.0;0.4373779296875;-0.35406494140625;-0.8184814453125;-0.11602783203125;14.294958571286704;11.625537169054311;0.573351212863025;-1.19677734375;0.3779296875;0.40234375;-27.8125;-5.8125;6.0625
1.0;0.43359375;-0.35223388671875;-0.821533203125;-0.1142578125;14.24554218227621;11.595749656604083;0.5568960043683271;-0.81884765625;0.40380859375;0.38427734375;-20.5625;-14.25;8.5625
1.0;0.4281005859375;-0.352783203125;-0.824462890625;-0.11212158203125;14.171945148394702;11.581407916478948;0.5451033910817803;-0.77587890625;0.41064453125;0.45361328125;-12.25;-18.25;16.5625
1.0;0.4202880859375;-0.3543701171875;-0.82818603515625;-0.109130859375;14.06676013138099;11.569153229586561;0.5323888586058476;-0.80126953125;0.46240234375;0.46044921875;-2.125;-24.75;26.375
1.0;0.40985107421875;-0.3551025390625;-0.8336181640625;-0.10546875;13.929989265200046;11.541291580780385;0.508867983300808;-0.7958984375;0.5634765625;0.46044921875;-2.0;-36.125;33.25
1.0;0.39715576171875;-0.3590087890625;-0.83843994140625;-0.10205078125;13.766714105043327;11.53375052391388;0.48745662776075815;-0.74755859375;0.55712890625;0.630859375;-3.5;-42.875;40.4375
1.0;0.38092041015625;-0.36474609375;-0.84375;-0.09991455078125;13.569760671427492;11.527791177502888;0.45003202707346723;-0.71435546875;0.49755859375;0.56201171875;13.9375;-54.5625;54.75
1.0;0.358154296875;-0.3756103515625;-0.84881591796875;-0.100830078125;13.31374612685019;11.539543413342987;0.38542603111235785;-0.71826171875;0.48974609375;0.4609375;23.4375;-81.6875;62.375
1.0;0.33160400390625;-0.3935546875;-0.851318359375;-0.10260009765625;13.018694563012334;11.599818068424518;0.32434737673304775;-0.62109375;0.4609375;0.55517578125;58.75;-115.3125;70.5
1.0;0.30303955078125;-0.41229248046875;-0.85345458984375;-0.09954833984375;12.681831558593569;11.673915699434927;0.28659486952955965;-0.54345703125;0.64453125;0.45166015625;100.1875;-127.125;85.25
1.0;0.27392578125;-0.430908203125;-0.85479736328125;-0.09326171875;12.327275091489934;11.75390838428349;0.2629308635696091;-0.38818359375;0.68701171875;0.67578125;99.5625;-121.5;113.25
1.0;0.24322509765625;-0.44659423828125;-0.8570556640625;-0.08331298828125;11.942505751402571;11.816707438720513;0.24511004859858532;-0.44873046875;0.7041015625;0.49609375;93.5;-118.4375;131.375
1.0;0.21270751953125;-0.4600830078125;-0.85906982421875;-0.0716552734375;11.555464208553582;11.86953994950473;0.23081225698497668;-0.04248046875;0.9423828125;0.30517578125;68.5;-118.9375;142.8125
1.0;0.1766357421875;-0.46966552734375;-0.8631591796875;-0.0574951171875;11.103191372935735;11.893190954544531;0.2047575445033558;-0.953125;0.728515625;0.0166015625;53.5;-124.625;162.125
1.0;0.1419677734375;-0.47882080078125;-0.86517333984375;-0.04644775390625;10.686411468118987;11.920869537651312;0.16646657624311403;0.22021484375;0.84375;0.9140625;38.9375;-133.625;170.125
1.0;0.1104736328125;-0.48126220703125;-0.8687744140625;-0.0390625;10.326917272449268;11.911620393882622;0.11322039067455193;-0.47802734375;0.841796875;0.19970703125;35.6875;-144.0625;160.25
1.0;0.0859375;-0.47845458984375;-0.8734130859375;-0.0299072265625;10.02956567595226;11.879255787363615;0.08733509261638457;-0.78857421875;0.66064453125;0.6220703125;7.5625;-142.875;134.875
1.0;0.07275390625;-0.4749755859375;-0.87689208984375;-0.0159912109375;9.820831736967518;11.852786419127824;0.11889091256549639;-0.0966796875;0.65234375;0.88720703125;-20.4375;-98.625;112.0
1.0;0.06341552734375;-0.45941162109375;-0.885986328125;-9.1552734375E-4;9.650014730060004;11.750096783832984;0.16340688017649407;-0.2109375;0.89501953125;0.52490234375;-32.1875;-30.9375;105.3125
1.0;0.052978515625;-0.43231201171875;-0.90008544921875;0.0123291015625;9.485933846434497;11.573807835116355;0.19566207862682553;-0.4404296875;1.052734375;0.294921875;-114.6875;-14.75;99.75
1.0;0.04327392578125;-0.40264892578125;-0.91412353515625;0.02191162109375;9.35238405573421;11.383853438368885;0.2151834794801118;-0.3310546875;0.86767578125;0.34130859375;-184.375;-26.5;88.3125
1.0;0.0416259765625;-0.38409423828125;-0.9219970703125;0.02801513671875;9.316607254141273;11.268252053604764;0.24021826819158526;-0.044921875;0.556640625;0.49560546875;-191.75;-28.5625;63.3125
1.0;0.0479736328125;-0.3822021484375;-0.92218017578125;0.03521728515625;9.35292550538923;11.260189889710011;0.29218190793178056;0.224609375;0.1201171875;0.2275390625;-115.6875;9.0;27.25
1.0;0.05694580078125;-0.39105224609375;-0.91754150390625;0.04473876953125;9.398564254485406;11.321054134442564;0.36463364067886744;0.03125;0.11962890625;0.1396484375;-10.0625;51.625;21.625
1.0;0.05902099609375;-0.40496826171875;-0.9110107421875;0.0518798828125;9.375617005614751;11.410106849374511;0.40997280898193655;0.12060546875;0.52587890625;0.4599609375;53.9375;75.8125;25.375
1.0;0.05560302734375;-0.42010498046875;-0.90447998046875;0.049072265625;9.340241045788655;11.502952728938867;0.3900054281176564;0.16259765625;0.67724609375;0.84521484375;98.125;37.125;27.4375
1.0;0.04705810546875;-0.42779541015625;-0.90167236328125;0.0428466796875;9.276268556829622;11.546340531346363;0.3378481265493423;-0.19580078125;0.7412109375;0.50732421875;88.125;-33.625;7.5625
1.0;0.03778076171875;-0.45654296875;-0.88787841796875;0.04327392578125;9.158013082387518;11.725615518825052;0.31973432086094977;-0.22607421875;0.53759765625;0.6513671875;57.5625;-68.4375;2.0
1.0;0.03802490234375;-0.49542236328125;-0.866943359375;0.03961181640625;9.15288559584977;11.978696708717354;0.3053680846819539;-0.0615234375;0.232421875;0.81201171875;189.125;-50.1875;37.0
1.0;0.0413818359375;-0.50677490234375;-0.8602294921875;0.0394287109375;9.178965008773599;12.055230560932067;0.31525425838354115;-0.06689453125;1.0966796875;0.634765625;253.5625;-13.9375;-5.1875
1.0;0.0457763671875;-0.48223876953125;-0.87384033203125;0.0418701171875;9.227063559154432;11.895950517471082;0.3371558426691178;-0.10107421875;1.77490234375;0.33056640625;35.5625;12.1875;-4.125
1.0;0.0548095703125;-0.4527587890625;-0.88885498046875;0.04498291015625;9.32503046753194;11.709901358223755;0.3728898054118172;-0.02587890625;1.08056640625;0.5009765625;-162.8125;31.25;-9.8125
1.0;0.0654296875;-0.43072509765625;-0.8988037109375;0.049072265625;9.432069820476718;11.57622024697741;0.4168067840093926;-0.06298828125;0.5732421875;0.49951171875;-186.875;56.9375;-20.625
1.0;0.072998046875;-0.415771484375;-0.90521240234375;0.049072265625;9.524131437293608;11.486773684263056;0.4318352100668381;-0.16943359375;0.5751953125;0.4658203125;-136.375;65.875;-14.4375
1.0;0.0760498046875;-0.4063720703125;-0.909423828125;0.04541015625;9.582051770130873;11.428978426913364;0.4172877191643416;-0.11962890625;0.71533203125;0.63720703125;-89.125;39.4375;-24.4375
1.0;0.08685302734375;-0.40447998046875;-0.9093017578125;0.045654296875;9.69504699969422;11.425094388866667;0.4441377466581472;0.16357421875;0.4990234375;0.34130859375;-61.5625;18.0;-43.5625
1.0;0.10821533203125;-0.40753173828125;-0.90545654296875;0.049072265625;9.897267399794737;11.46379595593189;0.5163104235495615;0.16943359375;0.4072265625;0.4013671875;-4.9375;68.25;-36.8125
1.0;0.12860107421875;-0.41058349609375;-0.9012451171875;0.05230712890625;10.088458193644971;11.505411723229066;0.587168493816017;-0.10791015625;0.5380859375;0.4892578125;29.1875;120.5625;-29.25
1.0;0.1431884765625;-0.40643310546875;-0.90069580078125;0.0562744140625;10.224963783175312;11.498061067034572;0.6437189092201543;-0.16650390625;0.72119140625;0.55712890625;28.6875;115.1875;-28.1875
1.0;0.15924072265625;-0.394287109375;-0.90325927734375;0.05792236328125;10.40035842011006;11.442881231322064;0.6862140432009063;-0.0283203125;0.8671875;0.66259765625;-22.1875;94.75;-28.125
1.0;0.18194580078125;-0.389404296875;-0.9010009765625;0.05963134765625;10.63436311301901;11.446010393364464;0.7523853427016638;-0.08837890625;0.72021484375;0.74072265625;-59.4375;97.0625;-47.75
1.0;0.2088623046875;-0.3946533203125;-0.89300537109375;0.05645751953125;10.91754037428352;11.523144668589783;0.8168646948244457;-0.30859375;0.37353515625;0.6630859375;-10.0;124.8125;-44.0
1.0;0.2371826171875;-0.38519287109375;-0.8902587890625;0.05322265625;11.24140612659411;11.514031486910168;0.8733479293270291;-0.39208984375;0.595703125;0.48388671875;57.4375;137.0;-66.9375
1.0;0.26470947265625;-0.35791015625;-0.89385986328125;0.05352783203125;11.577897542202326;11.395161910528508;0.9231385107477003;-0.32763671875;1.037109375;0.21875;-37.0625;142.3125;-93.6875
1.0;0.2906494140625;-0.3282470703125;-0.8970947265625;0.05474853515625;11.904774170884858;11.262071515705998;0.9653410434473102;-0.39013671875;0.681640625;0.2685546875;-143.375;142.5;-97.75
1.0;0.31610107421875;-0.31103515625;-0.8946533203125;0.0546875;12.21103385999686;11.212640903115187;1.0171971251563605;-0.5703125;0.333984375;0.5517578125;-150.1875;138.3125;-89.9375
1.0;0.3427734375;-0.31048583984375;-0.88525390625;0.05029296875;12.514135212455008;11.279444412843278;1.0831607456844385;-0.580078125;0.09326171875;0.4765625;-71.75;138.4375;-71.125
1.0;0.36419677734375;-0.315185546875;-0.87542724609375;0.04156494140625;12.769110925905702;11.367780840159252;1.1230571737097332;-0.673828125;0.34228515625;0.43017578125;31.25;143.6875;-64.75
1.0;0.37841796875;-0.3154296875;-0.86962890625;0.03253173828125;12.961590445385774;11.40421780065032;1.1270615630379566;-0.86328125;0.603515625;0.45458984375;63.5;107.875;-68.3125
1.0;0.384765625;-0.31231689453125;-0.8682861328125;0.02252197265625;13.085112870209176;11.386230047287548;1.0840374163528361;-0.87646484375;0.755859375;0.564453125;29.375;60.4375;-67.5625
1.0;0.38818359375;-0.31329345703125;-0.86669921875;0.010009765625;13.180008004563087;11.381565725823029;1.0228788391588013;-0.74267578125;0.53662109375;0.7041015625;18.3125;22.875;-63.1875
1.0;0.39044189453125;-0.32611083984375;-0.8609619140625;-0.0028076171875;13.238463526022793;11.461010000216895;0.9883595130485194;-0.73193359375;0.35107421875;0.759765625;52.8125;7.5625;-54.25
1.0;0.39093017578125;-0.34344482421875;-0.85382080078125;-0.01568603515625;13.271236616257386;11.56974299670336;0.9603720768566945;-0.7333984375;0.40673828125;0.69140625;105.75;2.125;-36.5625
1.0;0.38916015625;-0.35943603515625;-0.8477783203125;-0.0267333984375;13.27659284592086;11.664854964078183;0.9310302268487164;-0.71142578125;0.6474609375;0.54541015625;128.0;-4.75;-26.3125
1.0;0.38623046875;-0.36871337890625;-0.84490966796875;-0.032958984375;13.260256543346053;11.713684235563305;0.9067384649751784;-0.64208984375;0.76416015625;0.4345703125;113.5625;-15.1875;-17.625
1.0;0.3861083984375;-0.37298583984375;-0.843017578125;-0.03302001953125;13.250438009339728;11.746537999342582;0.9185916905052124;-0.603515625;0.80615234375;0.49658203125;61.9375;-13.875;-17.125
1.0;0.38739013671875;-0.37835693359375;-0.84027099609375;-0.02764892578125;13.22152353294974;11.802689519561142;0.9727073643473586;-0.61865234375;0.693359375;0.43701171875;22.6875;6.875;2.4375
1.0;0.38922119140625;-0.376953125;-0.8402099609375;-0.022705078125;13.2154769191517;11.80787170653252;1.0070632165833107;-0.6044921875;0.75048828125;0.34423828125;12.375;23.25;25.25
1.0;0.39068603515625;-0.3768310546875;-0.839599609375;-0.02154541015625;13.224159356680692;11.81508386244214;1.0208465041556785;-0.5927734375;0.548828125;0.44091796875;-14.4375;23.0625;16.4375
1.0;0.39093017578125;-0.37945556640625;-0.83831787109375;-0.02130126953125;13.218944014138598;11.836788114542495;1.0310986946128837;-0.6455078125;0.45458984375;0.44091796875;3.75;13.1875;8.25
1.0;0.38970947265625;-0.38555908203125;-0.83612060546875;-0.02001953125;13.184418531100087;11.880967131192106;1.0502337434816418;-0.70458984375;0.48828125;0.42431640625;19.25;4.8125;13.8125
1.0;0.388671875;-0.39337158203125;-0.8330078125;-0.01934814453125;13.150612981153184;11.937788497364823;1.07113873369195;-0.63330078125;0.56298828125;0.41455078125;33.875;4.0625;23.9375
1.0;0.38800048828125;-0.3995361328125;-0.83038330078125;-0.01904296875;13.126534143331847;11.982955130814405;1.0869251376681413;-0.599609375;0.60205078125;0.35302734375;42.5625;4.625;21.625
1.0;0.38818359375;-0.40325927734375;-0.8284912109375;-0.01763916015625;13.11042323773783;12.014720611423726;1.1064574038608734;-0.60546875;0.673828125;0.3291015625;31.5;3.1875;12.625
1.0;0.388671875;-0.40576171875;-0.82708740234375;-0.01580810546875;13.097570673931013;12.038803206615134;1.1263820695463918;-0.6103515625;0.62109375;0.28271484375;15.625;5.5625;13.75
1.0;0.39056396484375;-0.4097900390625;-0.82421875;-0.01513671875;13.10109983393101;12.07919191641097;1.151226018845985;-0.62060546875;0.5498046875;0.30419921875;10.75;7.8125;16.3125
1.0;0.39208984375;-0.41455078125;-0.82110595703125;-0.0155029296875;13.10502325902254;12.122286416929855;1.170446279123779;-0.69677734375;0.484375;0.25927734375;24.1875;11.4375;17.75
1.0;0.39227294921875;-0.42169189453125;-0.8173828125;-0.01513671875;13.084465388762991;12.178874809387668;1.1933178523045975;-0.8046875;0.52490234375;0.3056640625;31.9375;8.0625;18.75
1.0;0.39251708984375;-0.42840576171875;-0.81378173828125;-0.01434326171875;13.062496246469832;12.233035565397621;1.2175655272565915;-0.6787109375;0.58544921875;0.24658203125;39.4375;6.25;22.125
1.0;0.39404296875;-0.4349365234375;-0.8095703125;-0.01434326171875;13.057596274548017;12.290826546040828;1.2438876046970786;-0.63232421875;0.62890625;0.271484375;36.9375;9.625;19.4375
1.0;0.39599609375;-0.44061279296875;-0.8055419921875;-0.01422119140625;13.057785990543067;12.344413821408235;1.271032258026636;-0.62548828125;0.6845703125;0.259765625;38.3125;15.0;9.625
1.0;0.39862060546875;-0.4478759765625;-0.80023193359375;-0.013671875;13.055610962706117;12.414470075646426;1.308842704279238;-0.6884765625;0.65869140625;0.2626953125;35.0;16.5625;11.9375
1.0;0.40155029296875;-0.45440673828125;-0.7950439453125;-0.01397705078125;13.063144625028356;12.47991525701736;1.3422249572459277;-0.6611328125;0.63330078125;0.20703125;43.3125;22.5;15.9375
1.0;0.40435791015625;-0.45855712890625;-0.791259765625;-0.01361083984375;13.071899061431424;12.527066464362864;1.3720832212106389;-0.6904296875;0.6611328125;0.185546875;40.5625;20.625;9.5
1.0;0.4075927734375;-0.46087646484375;-0.78826904296875;-0.01275634765625;13.086644701452178;12.56293794544597;1.4022851103103233;-0.67333984375;0.68408203125;0.19384765625;25.25;19.6875;6.1875
1.0;0.41162109375;-0.4622802734375;-0.78533935546875;-0.01263427734375;13.116053816845334;12.595513150731891;1.4313581152755477;-0.67529296875;0.6689453125;0.20751953125;15.1875;21.9375;3.375
1.0;0.414794921875;-0.46246337890625;-0.7835693359375;-0.01220703125;13.139863538887523;12.614493570278203;1.4536486370745565;-0.70361328125;0.6826171875;0.19873046875;12.25;23.0625;-3.25
1.0;0.41802978515625;-0.46197509765625;-0.7821044921875;-0.012451171875;13.171163683060103;12.628250637094887;1.4713074559373878;-0.708984375;0.69921875;0.2314453125;4.6875;18.9375;-3.125
1.0;0.421142578125;-0.463623046875;-0.77947998046875;-0.0135498046875;13.19941611331076;12.657439635114306;1.4899650486621348;-0.66162109375;0.63720703125;0.2333984375;3.625;18.0;-7.4375
1.0;0.42401123046875;-0.46612548828125;-0.7763671875;-0.0146484375;13.222316225529493;12.692835475962163;1.5101332948150579;-0.68017578125;0.6640625;0.2490234375;19.25;18.5625;-6.75
1.0;0.42620849609375;-0.4676513671875;-0.77423095703125;-0.0146484375;13.235084397820955;12.717762190383079;1.5288871357825777;-0.71826171875;0.69873046875;0.20263671875;21.875;16.625;-3.75
1.0;0.42828369140625;-0.46710205078125;-0.7734375;-0.01470947265625;13.254900456020124;12.725283083701305;1.5405276974031648;-0.69580078125;0.70068359375;0.1953125;12.125;14.8125;-0.9375
1.0;0.43017578125;-0.46661376953125;-0.772705078125;-0.0147705078125;13.272920192100003;12.732310991753945;1.5512177364890225;-0.6904296875;0.68603515625;0.20947265625;0.625;11.3125;-5.3125
1.0;0.43267822265625;-0.46624755859375;-0.77154541015625;-0.0157470703125;13.302041132678957;12.74316910768419;1.5617765473742655;-0.65283203125;0.69873046875;0.224609375;1.5625;11.5625;-7.4375
1.0;0.435791015625;-0.46533203125;-0.770263671875;-0.01708984375;13.341055423920292;12.753578729054873;1.5734377804196895;-0.64404296875;0.67578125;0.2021484375;4.5;12.3125;-12.625
1.0;0.43896484375;-0.46502685546875;-0.76861572265625;-0.01922607421875;13.383758730842912;12.768497908578146;1.583365735302115;-0.650390625;0.60595703125;0.1591796875;2.1875;12.25;-13.9375
1.0;0.4417724609375;-0.4639892578125;-0.767578125;-0.02099609375;13.423698000379234;12.775954509507073;1.5907299958879806;-0.658203125;0.61279296875;0.12548828125;6.1875;10.1875;-16.1875
1.0;0.44500732421875;-0.46270751953125;-0.7664794921875;-0.02227783203125;13.46450018175297;12.784570598094477;1.6028372292145368;-0.6572265625;0.66748046875;0.154296875;1.8125;9.5;-18.9375
1.0;0.44854736328125;-0.460693359375;-0.7655029296875;-0.02423095703125;13.51571937828085;12.78931187787466;1.6120023126253205;-0.64697265625;0.6904296875;0.1259765625;-2.5;11.625;-20.25
1.0;0.4521484375;-0.45849609375;-0.7646484375;-0.0260009765625;13.566758268540951;12.793055938095788;1.621939032564337;-0.66162109375;0.68701171875;0.1279296875;-4.1875;10.875;-25.9375
1.0;0.45556640625;-0.45538330078125;-0.76446533203125;-0.02752685546875;13.618197948105792;12.788321686371086;1.62886808215666;-0.6767578125;0.6943359375;0.1181640625;-5.875;10.8125;-25.375
1.0;0.45880126953125;-0.4515380859375;-0.76470947265625;-0.02972412109375;13.67613384082272;12.776078212973122;1.628881974483006;-0.6953125;0.67138671875;0.12744140625;-11.6875;9.1875;-25.25
1.0;0.46173095703125;-0.4481201171875;-0.76483154296875;-0.0328369140625;13.736502937402628;12.764332074653485;1.6232289401838302;-0.72607421875;0.62939453125;0.140625;-13.4375;5.5;-26.25
1.0;0.46417236328125;-0.44647216796875;-0.76416015625;-0.035888671875;13.78537342425297;12.764322336655024;1.6203503108589106;-0.734375;0.5634765625;0.15234375;-7.3125;2.9375;-25.6875
1.0;0.46661376953125;-0.44525146484375;-0.76324462890625;-0.03875732421875;13.831205757080962;12.768134873841401;1.6199310412106243;-0.70751953125;0.5927734375;0.154296875;1.9375;3.6875;-22.875
1.0;0.4696044921875;-0.44287109375;-0.7626953125;-0.041259765625;13.88355396492777;12.766338621123412;1.6215123084515723;-0.68115234375;0.64990234375;0.15576171875;3.5;5.8125;-25.625
1.0;0.47283935546875;-0.440185546875;-0.76214599609375;-0.04254150390625;13.930444415351129;12.765577110655144;1.6306398643103015;-0.7197265625;0.6708984375;0.171875;-3.3125;8.25;-28.25
1.0;0.47540283203125;-0.43719482421875;-0.76226806640625;-0.043212890625;13.968531359852863;12.757746354321094;1.6363509405454268;-0.75390625;0.671875;0.13427734375;-9.5625;10.0;-23.5625
1.0;0.47821044921875;-0.432861328125;-0.76287841796875;-0.0439453125;14.014790866222455;12.740681745616719;1.6390834695414365;-0.712890625;0.6455078125;0.14306640625;-13.25;7.9375;-21.0
1.0;0.48101806640625;-0.427978515625;-0.76385498046875;-0.045166015625;14.066662185028697;12.717603858709323;1.6365516511054459;-0.71630859375;0.619140625;0.1552734375;-19.875;7.625;-24.0
1.0;0.48394775390625;-0.4237060546875;-0.76434326171875;-0.04656982421875;14.11849621528497;12.700645024645723;1.6363263690752803;-0.73095703125;0.59716796875;0.18359375;-20.4375;6.5;-26.5625
1.0;0.48663330078125;-0.4210205078125;-0.76397705078125;-0.04791259765625;14.16169077480475;12.696476703137659;1.6410560483856191;-0.76416015625;0.5732421875;0.1884765625;-15.75;7.75;-24.3125
1.0;0.4893798828125;-0.41790771484375;-0.763916015625;-0.04864501953125;14.20260459031246;12.689429145329681;1.6475973264764154;-0.77783203125;0.609375;0.15771484375;-8.6875;8.125;-20.5625
1.0;0.4945068359375;-0.41375732421875;-0.7626953125;-0.05084228515625;14.278503104700947;12.69089995070307;1.6627185270909086;-0.71044921875;0.615234375;0.22607421875;-10.1875;13.5625;-23.25
1.0;0.4945068359375;-0.40814208984375;-0.7657470703125;-0.05084228515625;14.301373633783351;12.640403354989868;1.639241368793058;-1.017578125;0.5810546875;0.06494140625;-15.0625;10.875;-25.0
1.0;0.49481201171875;-0.40631103515625;-0.7664794921875;-0.0511474609375;14.313607157923316;12.626128190175017;1.6326052679168626;-0.568359375;0.52099609375;0.35498046875;-23.625;2.5625;-21.5
1.0;0.4989013671875;-0.4072265625;-0.76312255859375;-0.05438232421875;14.367769259579056;12.66319407368727;1.6541001354719889;-0.4296875;0.54833984375;0.140625;-10.4375;0.3125;-20.4375
1.0;0.50469970703125;-0.4061279296875;-0.75958251953125;-0.05810546875;14.44802970326769;12.697234703907538;1.6809552625627862;-0.859375;0.5908203125;-0.06884765625;9.875;6.125;-21.4375
1.0;0.5084228515625;-0.4063720703125;-0.75689697265625;-0.0596923828125;14.48940361535501;12.729525203743687;1.7074619271654956;-1.216796875;0.587890625;-0.1103515625;1.125;6.3125;-19.75
1.0;0.50537109375;-0.40545654296875;-0.75958251953125;-0.057861328125;14.454528485061662;12.696838938413544;1.6851990167885607;-0.8564453125;0.6181640625;-0.12646484375;-1.0;3.5625;-18.0625
1.0;0.50701904296875;-0.399658203125;-0.76141357421875;-0.059326171875;14.503170430859923;12.655750969372246;1.6664771495312685;-0.13916015625;0.578125;0.35595703125;-7.25;1.625;-14.125
1.0;0.510986328125;-0.398193359375;-0.7593994140625;-0.06103515625;14.555088732965892;12.67460294449194;1.687174164383001;-1.04296875;0.423828125;0.28759765625;-19.375;0.8125;-10.6875
1.0;0.5059814453125;-0.397216796875;-0.76324462890625;-0.06024169921875;14.511063044623873;12.623023138484927;1.640989338030926;-1.07470703125;0.53857421875;-0.13525390625;-9.6875;-1.375;-11.75
1.0;0.5084228515625;-0.39495849609375;-0.762451171875;-0.064697265625;14.573045819853474;12.61588699442877;1.6274584980949578;-0.16162109375;0.5;0.4814453125;-1.1875;-6.125;-9.0
1.0;0.510009765625;-0.39691162109375;-0.76025390625;-0.06622314453125;14.58965416427425;12.645779385038349;1.642607241793011;-1.28076171875;0.45361328125;0.14453125;4.0;-4.9375;-9.8125
1.0;0.5045166015625;-0.39678955078125;-0.76416015625;-0.0643310546875;14.529223929390094;12.599266857901137;1.6018194072841934;-0.9013671875;0.64013671875;-0.11328125;5.5625;-6.5;-8.5625
1.0;0.50634765625;-0.39373779296875;-0.76434326171875;-0.06658935546875;14.573320025161548;12.582684683631594;1.5913155679069426;-0.17919921875;0.53955078125;0.44384765625;-2.875;-8.0;-2.5625
1.0;0.508056640625;-0.3948974609375;-0.76251220703125;-0.0670166015625;14.586761804669582;12.608252013973681;1.6103833582381897;-1.255859375;0.4599609375;0.15478515625;-7.8125;-5.375;-2.125
1.0;0.50244140625;-0.3936767578125;-0.76708984375;-0.06488037109375;14.527199872768797;12.551460255997766;1.5654785407803948;-0.89794921875;0.5859375;-0.12646484375;-2.125;-6.0625;-3.5
1.0;0.50482177734375;-0.390625;-0.766845703125;-0.0677490234375;14.580275130051616;12.538067493227457;1.555891784997514;-0.1728515625;0.486328125;0.4873046875;-7.875;-8.0625;-1.1875
1.0;0.50665283203125;-0.39227294921875;-0.76470947265625;-0.06878662109375;14.597344564961693;12.567627912241392;1.5743101432623408;-1.2763671875;0.41015625;0.1552734375;-5.125;-3.75;-2.875
1.0;0.50140380859375;-0.391357421875;-0.76873779296875;-0.06732177734375;14.544109096246627;12.516638902870698;1.5310498088077826;-0.88916015625;0.57568359375;-0.10693359375;3.125;-4.9375;-5.3125
1.0;0.50225830078125;-0.38873291015625;-0.76934814453125;-0.0689697265625;14.573269631254837;12.49623652669967;1.516650785754487;-0.1787109375;0.47509765625;0.49560546875;-3.1875;-5.9375;-3.1875
1.0;0.50311279296875;-0.387939453125;-0.76910400390625;-0.06982421875;14.589936345101586;12.49444695071013;1.5154938029886027;-1.03662109375;0.43896484375;0.2744140625;-4.375;-0.625;-3.625
1.0;0.50341796875;-0.386962890625;-0.76934814453125;-0.07086181640625;14.60347169523834;12.485539240645624;1.507130622758785;-0.81640625;0.5009765625;0.1845703125;-0.5625;1.9375;-7.0
1.0;0.50396728515625;-0.38690185546875;-0.7689208984375;-0.07159423828125;14.613858164372324;12.488434437738663;1.5075253709740382;-0.818359375;0.49365234375;0.19189453125;-1.6875;-2.1875;-6.875
1.0;0.504638671875;-0.38677978515625;-0.76849365234375;-0.0721435546875;14.624203216591596;12.491964898754427;1.5097043083125312;-0.802734375;0.50927734375;0.1669921875;1.5;0.75;-4.8125
1.0;0.50531005859375;-0.385009765625;-0.7689208984375;-0.0723876953125;14.638591173641078;12.480382724161897;1.5057738688789004;-0.8125;0.517578125;0.17333984375;1.1875;2.0;-4.875
1.0;0.50592041015625;-0.38372802734375;-0.7691650390625;-0.0721435546875;14.647252715382812;12.474002229222744;1.506691544183699;-0.830078125;0.470703125;0.185546875;-7.8125;0.375;-4.9375
1.0;0.50640869140625;-0.3829345703125;-0.769287109375;-0.07220458984375;14.654917017007042;12.470196387921945;1.5066723230612462;-0.826171875;0.46728515625;0.1923828125;-6.5625;1.875;-1.4375
1.0;0.506591796875;-0.38134765625;-0.7698974609375;-0.07257080078125;14.665110070481147;12.455993186169273;1.4984590128811999;-0.810546875;0.4775390625;0.181640625;-3.75;0.8125;-2.0
1.0;0.5064697265625;-0.3798828125;-0.7706298828125;-0.07305908203125;14.672884159266188;12.440047750589658;1.4872688300585721;-0.82470703125;0.47314453125;0.1943359375;-6.9375;-2.375;-4.5
1.0;0.5064697265625;-0.3792724609375;-0.7708740234375;-0.07379150390625;14.68016517008892;12.432594286461452;1.4796739928856049;-0.8173828125;0.46923828125;0.20654296875;-5.625;-3.625;-4.0625
1.0;0.506591796875;-0.37841796875;-0.77117919921875;-0.07427978515625;14.687757224872025;12.424334191833015;1.4734763456475004;-0.80859375;0.47998046875;0.1904296875;-1.0;-2.5625;-4.125
1.0;0.50665283203125;-0.377685546875;-0.771484375;-0.07440185546875;14.691841130442414;12.417559091811366;1.4696494596467289;-0.81005859375;0.4716796875;0.18359375;-3.1875;-2.5625;-3.6875
1.0;0.50653076171875;-0.37646484375;-0.77215576171875;-0.07415771484375;14.693556095018177;12.405426638280936;1.4641273521440097;-0.80224609375;0.486328125;0.17431640625;-4.375;-2.3125;-2.9375
1.0;0.50616455078125;-0.375;-0.77313232421875;-0.07415771484375;14.695388258667693;12.388007652835283;1.4534038547334658;-0.80712890625;0.4794921875;0.18310546875;-7.875;-3.25;-1.625
1.0;0.50592041015625;-0.37420654296875;-0.77362060546875;-0.0748291015625;14.700538212140232;12.376750146425593;1.4429747211407153;-0.8046875;0.45947265625;0.201171875;-7.9375;-4.875;-1.5625
1.0;0.5054931640625;-0.37353515625;-0.774169921875;-0.0755615234375;14.703895649188023;12.364907116463865;1.4310591522455873;-0.80029296875;0.46044921875;0.1982421875;-2.125;-4.375;-3.25
1.0;0.50543212890625;-0.37286376953125;-0.7744140625;-0.0760498046875;14.709247759550257;12.357239127950887;1.4243771882526832;-0.798828125;0.46044921875;0.20361328125;-1.6875;-5.0;-3.1875
1.0;0.5054931640625;-0.37255859375;-0.7745361328125;-0.07635498046875;14.712838271951517;12.35385305543916;1.421247106663049;-0.7998046875;0.44384765625;0.18701171875;-2.0;-3.1875;-1.8125
1.0;0.50543212890625;-0.3719482421875;-0.77484130859375;-0.0762939453125;14.71410006110452;12.347757647412642;1.4181690301893668;-0.8154296875;0.458984375;0.1865234375;-1.1875;-2.1875;-0.875
1.0;0.50537109375;-0.37127685546875;-0.77520751953125;-0.076416015625;14.71665906183043;12.340355863725296;1.4133828991010542;-0.81103515625;0.462890625;0.1923828125;-3.625;-2.0;-0.25
1.0;0.50543212890625;-0.3704833984375;-0.7755126953125;-0.07696533203125;14.723672860628836;12.331809644760115;1.4063201979053532;-0.810546875;0.46923828125;0.20458984375;-3.125;-2.0;-1.5625
1.0;0.50537109375;-0.36993408203125;-0.77569580078125;-0.07781982421875;14.730899300190707;12.324197777316126;1.3976618992994674;-0.81005859375;0.45703125;0.20654296875;-2.3125;-2.25;-3.5
1.0;0.50567626953125;-0.369873046875;-0.77545166015625;-0.07879638671875;14.740541241089693;12.323802392785598;1.3937035441298304;-0.81005859375;0.4560546875;0.21826171875;0.375;-2.1875;-4.125
1.0;0.50604248046875;-0.36968994140625;-0.7752685546875;-0.07940673828125;14.748684844622664;12.323537994745818;1.3919929229146673;-0.82177734375;0.4599609375;0.20166015625;2.75;-0.5625;-4.0
1.0;0.50640869140625;-0.36907958984375;-0.7752685546875;-0.07977294921875;14.75679080649353;12.319927120773034;1.389865197300031;-0.82177734375;0.4775390625;0.19189453125;0.5625;-0.125;-4.0
1.0;0.50677490234375;-0.3682861328125;-0.775390625;-0.0799560546875;14.764233796975889;12.31483894785269;1.3878877725231644;-0.830078125;0.47216796875;0.1943359375;-2.0;-0.5625;-3.625
1.0;0.50714111328125;-0.367431640625;-0.7755126953125;-0.080322265625;14.773152023576346;12.30876387031759;1.38443618610134;-0.8310546875;0.45751953125;0.19921875;-3.75;-0.125;-2.5
