2.0;0.37823486328125;-0.3695068359375;-0.66021728515625;0.53338623046875;9.604193262462971;12.184397128207632;4.081192875120945;0.08984375;0.69580078125;0.4912109375;89.125;-33.375;4.3125
2.0;0.38446044921875;-0.38323974609375;-0.65692138671875;0.52325439453125;9.597268834437996;12.28067436572302;4.046428704178115;-0.08935546875;0.85546875;0.4453125;104.25;-32.4375;-6.9375
2.0;0.39080810546875;-0.39654541015625;-0.65338134765625;0.512939453125;9.596302130072145;12.376793737444517;4.012834523504944;-0.091796875;0.873046875;0.37158203125;98.375;-33.0;-12.25
2.0;0.3973388671875;-0.40765380859375;-0.6505126953125;0.50274658203125;9.614568656993663;12.463692359560746;3.982232509154238;-0.0947265625;0.91845703125;0.298828125;94.3125;-30.875;-13.3125
2.0;0.40423583984375;-0.41552734375;-0.64752197265625;0.49462890625;9.645588347172108;12.536678678497907;3.9667842844638486;-0.1162109375;0.92236328125;0.2529296875;83.9375;-26.125;-19.3125
2.0;0.40728759765625;-0.4171142578125;-0.64703369140625;0.49139404296875;9.67261525158967;12.55936201643941;3.9623603812024935;-0.08349609375;1.01611328125;0.27197265625;69.0625;-8.9375;-22.3125
2.0;0.40704345703125;-0.4111328125;-0.65179443359375;0.49041748046875;9.731684727415798;12.52646371409509;3.954689346746722;-0.02978515625;1.10791015625;0.4111328125;25.375;3.125;-21.6875
2.0;0.40863037109375;-0.3992919921875;-0.658447265625;0.48992919921875;9.844581538231576;12.47264235710397;3.9581453797987094;-0.0087890625;0.94970703125;0.6123046875;-13.8125;7.5;-38.1875
2.0;0.41363525390625;-0.38250732421875;-0.66546630859375;0.48968505859375;10.013085476239318;12.411135936852574;3.978344642106361;-0.158203125;0.94091796875;0.70703125;-31.125;26.0;-51.4375
2.0;0.42034912109375;-0.36181640625;-0.67449951171875;0.4873046875;10.23813036913392;12.339924838737836;3.9937786789876144;-0.25439453125;0.88232421875;0.7255859375;-40.625;51.1875;-66.1875
2.0;0.42864990234375;-0.3433837890625;-0.681396484375;0.4837646484375;10.459184311794036;12.290057874323875;4.0108168318663;-0.40966796875;0.8701171875;0.662109375;-55.8125;55.6875;-85.5625
2.0;0.434326171875;-0.3292236328125;-0.68511962890625;0.4832763671875;10.60768490779881;12.250530904914477;4.034086228276333;-0.43603515625;0.97802734375;0.5244140625;-48.3125;56.625;-84.875
2.0;0.43634033203125;-0.31793212890625;-0.685302734375;0.48870849609375;10.669713790536662;12.209525727049352;4.075236985683977;-0.357421875;1.1337890625;0.419921875;-52.5;49.3125;-58.375
2.0;0.438232421875;-0.30908203125;-0.67852783203125;0.5020751953125;10.651845745448286;12.184698991046842;4.165173128841074;-0.21435546875;1.2060546875;0.09814453125;-82.3125;44.5;-22.1875
2.0;0.425048828125;-0.2967529296875;-0.6751708984375;0.5247802734375;10.521884550778594;12.067880028003332;4.238792770724991;-0.30712890625;1.54541015625;0.03466796875;-95.4375;64.5625;33.875
2.0;0.40948486328125;-0.29119873046875;-0.67376708984375;0.54180908203125;10.366520528008499;11.968575364683113;4.271196017910855;-0.16650390625;0.9931640625;0.22998046875;-141.4375;32.4375;88.25
2.0;0.404541015625;-0.3013916015625;-0.66558837890625;0.54998779296875;10.194632945486793;11.993772527792563;4.301584686118301;-0.1162109375;0.41064453125;0.435546875;-96.3125;-7.75;82.875
2.0;0.397216796875;-0.31787109375;-0.6595458984375;0.5533447265625;9.991449731968682;12.034042451912008;4.290216445779752;-0.11962890625;0.52099609375;0.248046875;15.25;-18.6875;88.75
2.0;0.38702392578125;-0.3367919921875;-0.65850830078125;0.55059814453125;9.79808289553793;12.07159484184584;4.227330653144365;-0.2001953125;0.6064453125;0.2666015625;37.9375;-63.6875;87.1875
2.0;0.3797607421875;-0.35772705078125;-0.6597900390625;0.54083251953125;9.65564908628658;12.13505968616229;4.134015259611372;-0.03125;0.39013671875;0.3515625;55.5625;-98.6875;52.875
2.0;0.37652587890625;-0.37689208984375;-0.6627197265625;0.52630615234375;9.587390355592706;12.211842828649184;4.029987388567406;0.04150390625;0.404296875;0.38720703125;78.125;-114.125;18.0625
2.0;0.3807373046875;-0.3934326171875;-0.663818359375;0.50958251953125;9.599834710008805;12.312482159817435;3.946979016643254;0.166015625;0.400390625;0.48095703125;92.75;-105.75;-18.75
2.0;0.3883056640625;-0.4049072265625;-0.664306640625;0.49395751953125;9.665500893192727;12.404748020274166;3.8883150175681758;-0.01171875;0.59912109375;0.5419921875;113.5;-71.5;-41.0
2.0;0.395263671875;-0.40966796875;-0.66455078125;0.48406982421875;9.73961028703032;12.460824242091498;3.8623973463921133;-0.09130859375;0.91162109375;0.49267578125;100.5625;-40.6875;-53.25
2.0;0.40234375;-0.40850830078125;-0.66510009765625;0.47845458984375;9.829600072348427;12.487470125443124;3.862375648305536;-0.1396484375;1.111328125;0.47216796875;62.5;-9.75;-44.9375
2.0;0.4073486328125;-0.39935302734375;-0.669189453125;0.47625732421875;9.948496295589514;12.463262750213506;3.8718705987398647;-0.25439453125;1.1689453125;0.38330078125;23.5625;13.5625;-37.3125
2.0;0.41162109375;-0.38037109375;-0.67791748046875;0.4757080078125;10.131496114958903;12.386006891612803;3.886083296168248;-0.267578125;1.015625;0.28369140625;-32.375;26.375;-46.875
2.0;0.417724609375;-0.35845947265625;-0.68975830078125;0.47039794921875;10.382836439690092;12.302922254059334;3.880077393298421;-0.51171875;0.79443359375;0.408203125;-74.3125;39.0625;-58.125
2.0;0.427490234375;-0.34613037109375;-0.6942138671875;0.46429443359375;10.5789931591131;12.288462813282667;3.889817810291701;-0.80322265625;0.6416015625;0.42822265625;-73.0;29.125;-78.5
2.0;0.44036865234375;-0.3455810546875;-0.6898193359375;0.45916748046875;10.686872804485338;12.351943415102024;3.925851725572081;-0.724609375;0.62158203125;0.29541015625;-15.9375;34.25;-53.25
2.0;0.4478759765625;-0.346435546875;-0.68487548828125;0.45867919921875;10.719698404233407;12.396918029064361;3.9628111283472087;-0.54541015625;0.9599609375;0.06298828125;31.875;40.125;-21.1875
2.0;0.44525146484375;-0.34130859375;-0.6864013671875;0.46270751953125;10.718120102547187;12.359065746635927;3.971368968591806;-0.3349609375;1.19775390625;-0.041015625;1.25;29.5625;-5.625
2.0;0.44024658203125;-0.335205078125;-0.6885986328125;0.46868896484375;10.69829792774455;12.304418851589244;3.9787994190389475;-0.2373046875;1.0361328125;0.126953125;-59.5;3.625;-2.9375
2.0;0.43975830078125;-0.33502197265625;-0.6844482421875;0.475341796875;10.646744903371486;12.304179561084634;4.015647466811582;-0.16455078125;0.72265625;0.22998046875;-62.4375;2.625;7.375
2.0;0.43896484375;-0.33551025390625;-0.68060302734375;0.48114013671875;10.594258537986047;12.305291521829684;4.046415835356731;-0.119140625;0.77978515625;0.26220703125;-15.9375;23.875;29.4375
2.0;0.43743896484375;-0.33563232421875;-0.67852783203125;0.4853515625;10.553566951653668;12.299672230140889;4.06379549361823;-0.095703125;0.78515625;0.3076171875;-10.25;19.625;26.6875
2.0;0.4405517578125;-0.33746337890625;-0.67529296875;0.48577880859375;10.54945174593421;12.325683266594131;4.08280724066664;-0.01416015625;0.62646484375;0.359375;-5.25;13.1875;14.5
2.0;0.4427490234375;-0.33721923828125;-0.67364501953125;0.4862060546875;10.558169416831094;12.336730132623204;4.0968715620617235;-0.14501953125;0.77197265625;0.28076171875;17.3125;17.4375;3.9375
2.0;0.44122314453125;-0.3330078125;-0.67462158203125;0.48919677734375;10.563479333142542;12.309213080374018;4.106026579084296;-0.30078125;0.978515625;0.271484375;-2.125;11.0;1.5625
2.0;0.4395751953125;-0.32879638671875;-0.67401123046875;0.494384765625;10.551213494476725;12.282281048642323;4.1280619969639165;-0.2998046875;0.84423828125;0.31298828125;-33.625;6.8125;3.5625
2.0;0.44281005859375;-0.32781982421875;-0.67120361328125;0.4959716796875;10.561902308862054;12.29602865182761;4.154385008853443;-0.17578125;0.6064453125;0.318359375;-30.3125;18.25;13.6875
2.0;0.44659423828125;-0.33013916015625;-0.66864013671875;0.49444580078125;10.570897815371662;12.32738612887314;4.165491295460907;-0.26904296875;0.6123046875;0.35546875;11.875;24.4375;10.5625
2.0;0.4508056640625;-0.33648681640625;-0.66595458984375;0.489990234375;10.570427067508433;12.379104079296935;4.161754337727015;-0.251953125;0.7275390625;0.435546875;35.875;13.1875;1.75
2.0;0.45318603515625;-0.340576171875;-0.666259765625;0.48443603515625;10.589755526442623;12.40979356159518;4.1420874016573075;-0.216796875;0.90478515625;0.36572265625;52.1875;-2.1875;-4.75
2.0;0.45562744140625;-0.3453369140625;-0.66693115234375;0.47784423828125;10.612379157313711;12.443570581970658;4.116777369099685;-0.29052734375;0.845703125;0.40234375;40.0625;-13.4375;-14.25
2.0;0.4598388671875;-0.35174560546875;-0.66595458984375;0.47052001953125;10.634614579136706;12.49525744674329;4.097516271965249;-0.29052734375;0.736328125;0.40869140625;48.375;-17.6875;-15.6875
2.0;0.466064453125;-0.35833740234375;-0.66357421875;0.462646484375;10.66767171386057;12.559868668384212;4.087432993310101;-0.2412109375;0.82373046875;0.44775390625;66.5;-10.0625;-17.8125
2.0;0.47222900390625;-0.36285400390625;-0.6614990234375;0.455810546875;10.70958136647275;12.61474964693511;4.08348027223632;-0.2529296875;0.888671875;0.40234375;73.8125;-1.125;-20.4375
2.0;0.475830078125;-0.36334228515625;-0.6614990234375;0.45172119140625;10.753233006732623;12.636190045316875;4.08052781209452;-0.2978515625;0.9990234375;0.34765625;57.75;4.0625;-22.75
2.0;0.47930908203125;-0.3634033203125;-0.66162109375;0.44769287109375;10.79908400175855;12.655340685590085;4.077862414975283;-0.28466796875;0.9619140625;0.42578125;30.4375;7.1875;-23.8125
2.0;0.48223876953125;-0.36236572265625;-0.66265869140625;0.44390869140625;10.850538896173989;12.665641213952881;4.073030701954409;-0.287109375;0.93115234375;0.4326171875;29.625;8.0;-24.5625
2.0;0.4853515625;-0.35980224609375;-0.6632080078125;0.441650390625;10.9025524961827;12.670586476416815;4.078196084580367;-0.2998046875;0.9052734375;0.39453125;19.5625;6.25;-27.0
2.0;0.48974609375;-0.35791015625;-0.66241455078125;0.43963623046875;10.951911504213786;12.686333139273444;4.09206903936227;-0.30078125;0.869140625;0.3701171875;10.4375;14.8125;-24.375
2.0;0.494140625;-0.35601806640625;-0.6611328125;0.4381103515625;10.99651213892854;12.703006207194779;4.109459659095677;-0.333984375;0.86083984375;0.2958984375;14.125;20.0;-18.9375
2.0;0.49603271484375;-0.35284423828125;-0.6611328125;0.4385986328125;11.02653595443684;12.698921324498825;4.122750045239008;-0.34619140625;0.94189453125;0.2373046875;8.5625;21.3125;-17.4375
2.0;0.4959716796875;-0.35015869140625;-0.66241455078125;0.43890380859375;11.046870663479618;12.685392782697036;4.123485674105805;-0.35009765625;0.91552734375;0.27783203125;-7.6875;16.75;-11.25
2.0;0.498779296875;-0.34930419921875;-0.6624755859375;0.436279296875;11.085885730064224;12.697304316356085;4.125635697429053;-0.32568359375;0.7431640625;0.3740234375;-3.8125;6.4375;-7.3125
2.0;0.49859619140625;-0.3521728515625;-0.66162109375;0.4354248046875;11.067628665672448;12.710062004656539;4.120487203773273;-0.45556640625;0.8330078125;0.29052734375;14.5;6.375;-10.25
2.0;0.5042724609375;-0.35467529296875;-0.65936279296875;0.4302978515625;11.108574438499199;12.755272954634416;4.1271050174495665;-0.09130859375;0.92724609375;0.26171875;14.4375;-2.4375;-9.6875
2.0;0.51153564453125;-0.3546142578125;-0.6578369140625;0.42413330078125;11.185042738564018;12.797889455766237;4.138111665170039;-0.4384765625;0.94091796875;0.03857421875;29.25;5.125;-14.4375
2.0;0.51739501953125;-0.3533935546875;-0.6571044921875;0.41912841796875;11.256401647157087;12.827276493546416;4.147617621067907;-0.6220703125;0.88037109375;0.07666015625;29.4375;11.5;-18.0
2.0;0.5233154296875;-0.353515625;-0.655517578125;0.41400146484375;11.316618432120443;12.864481696231277;4.15820835850588;-0.6435546875;0.75341796875;0.15087890625;24.25;11.0625;-12.25
2.0;0.53009033203125;-0.35369873046875;-0.65380859375;0.40802001953125;11.38601038619066;12.907375250263994;4.170083420594145;-0.65625;0.75830078125;0.07470703125;26.875;9.0625;-6.75
2.0;0.53533935546875;-0.35595703125;-0.650634765625;0.40423583984375;11.413129853981363;12.95223926117038;4.18535105091217;-0.728515625;0.90234375;0.0419921875;28.75;9.375;-11.625
2.0;0.53680419921875;-0.356689453125;-0.6485595703125;0.40496826171875;11.404142962234335;12.966021776471727;4.199253464481381;-0.5087890625;0.92626953125;-0.04833984375;24.3125;8.6875;-5.125
2.0;0.53631591796875;-0.35565185546875;-0.64862060546875;0.4063720703125;11.399703503418877;12.958263853345505;4.203364018379428;-0.30859375;0.89404296875;0.2255859375;11.8125;14.5625;0.6875
2.0;0.5355224609375;-0.3546142578125;-0.64898681640625;0.40771484375;11.39507347536059;12.948374675038316;4.205055132557856;-0.38037109375;0.91015625;0.232421875;-6.0625;5.375;0.8125
2.0;0.5350341796875;-0.35546875;-0.64886474609375;0.40789794921875;11.384910156161194;12.949152490395619;4.202722310026781;-0.357421875;0.810546875;0.23291015625;-5.8125;3.0625;2.0625
2.0;0.5347900390625;-0.35858154296875;-0.6475830078125;0.40753173828125;11.360095859246677;12.962698162824667;4.199767073305255;-0.31787109375;0.7919921875;0.2041015625;4.8125;-1.1875;1.8125
2.0;0.53564453125;-0.3624267578125;-0.64495849609375;0.40716552734375;11.331539935259514;12.987276522947914;4.204294154473157;-0.2958984375;0.87841796875;0.17236328125;15.125;-3.375;5.875
2.0;0.53411865234375;-0.36236572265625;-0.6441650390625;0.410400390625;11.299826625083302;12.978038877246357;4.211485257603503;-0.2900390625;1.0341796875;0.07861328125;15.8125;0.0625;4.5625
2.0;0.53192138671875;-0.3597412109375;-0.6446533203125;0.41485595703125;11.27874526044344;12.951877869784738;4.220074661974558;-0.29931640625;0.998046875;0.0869140625;-18.25;2.6875;8.125
2.0;0.52984619140625;-0.3564453125;-0.645263671875;0.41937255859375;11.263152021951402;12.923648566095785;4.230175239720772;-0.2978515625;0.94873046875;0.12890625;-33.1875;5.4375;5.0
2.0;0.526611328125;-0.352294921875;-0.64678955078125;0.42462158203125;11.24577510054731;12.883983261881806;4.236699563561019;-0.306640625;0.89306640625;0.1435546875;-34.5625;7.375;4.6875
2.0;0.52288818359375;-0.34912109375;-0.64874267578125;0.4288330078125;11.227093763945492;12.845919939264723;4.2351320330136675;-0.3603515625;0.84423828125;0.22265625;-39.8125;5.3125;9.9375
2.0;0.52117919921875;-0.3485107421875;-0.6474609375;0.43328857421875;11.18922892845534;12.833761852409056;4.24868152698568;-0.4052734375;0.833984375;0.27734375;-32.125;-2.1875;12.125
2.0;0.5181884765625;-0.34539794921875;-0.64642333984375;0.4407958984375;11.143493393389203;12.80266419261819;4.270951012912675;-0.337890625;0.90087890625;0.1611328125;-20.5;6.9375;19.1875
2.0;0.5126953125;-0.33758544921875;-0.64874267578125;0.4498291015625;11.119178907813689;12.733866672943343;4.285870108551735;-0.3037109375;1.01513671875;0.16455078125;-45.125;14.3125;20.1875
2.0;0.5048828125;-0.328857421875;-0.65289306640625;0.458984375;11.094010114511715;12.647359702855235;4.288638091344387;-0.3564453125;0.92138671875;0.2236328125;-76.0625;9.5625;14.375
2.0;0.4979248046875;-0.32220458984375;-0.6563720703125;0.46630859375;11.068009077605705;12.576099190380681;4.287705910820408;-0.34912109375;0.810546875;0.30322265625;-84.125;0.0;14.25
2.0;0.4945068359375;-0.3187255859375;-0.65716552734375;0.47119140625;11.046165101635523;12.541151758292697;4.295284979932212;-0.3544921875;0.76220703125;0.3408203125;-65.5625;-3.75;15.125
2.0;0.49249267578125;-0.31719970703125;-0.656005859375;0.4759521484375;11.013290952483185;12.524070617284954;4.311060762445611;-0.38134765625;0.78857421875;0.30908203125;-35.625;2.5625;16.9375
2.0;0.4921875;-0.3162841796875;-0.653076171875;0.48089599609375;10.979489530270206;12.520522767809684;4.338448526390962;-0.35546875;0.80029296875;0.24755859375;-24.5625;6.6875;23.25
2.0;0.48797607421875;-0.3089599609375;-0.65423583984375;0.48828125;10.968065820308968;12.464892067979115;4.3571229920707895;-0.2958984375;0.87890625;0.15283203125;-22.8125;15.5;22.0625
2.0;0.48065185546875;-0.3013916015625;-0.6573486328125;0.4959716796875;10.944866721626004;12.390112722566757;4.360396898859804;-0.36376953125;0.83740234375;0.26220703125;-65.5625;12.3125;14.25
2.0;0.47430419921875;-0.29827880859375;-0.65960693359375;0.5009765625;10.907765819690763;12.340589357340765;4.35410255518186;-0.31982421875;0.724609375;0.39892578125;-69.4375;-0.0625;14.3125
2.0;0.46954345703125;-0.299072265625;-0.6600341796875;0.50445556640625;10.854689524718221;12.317904799875445;4.348416690628623;-0.31201171875;0.7529296875;0.4580078125;-39.3125;-10.0625;16.4375
2.0;0.46514892578125;-0.300537109375;-0.66009521484375;0.50750732421875;10.800157739450006;12.300703228977447;4.34291613696951;-0.29150390625;0.83447265625;0.4443359375;-16.1875;-13.5625;21.1875
2.0;0.45867919921875;-0.29736328125;-0.66314697265625;0.51123046875;10.771736587214285;12.250785925373657;4.3301324537617205;-0.22021484375;0.85009765625;0.41162109375;-13.375;-12.875;18.0
2.0;0.45135498046875;-0.29388427734375;-0.66717529296875;0.51458740234375;10.744581840662818;12.194577865350444;4.310772874065991;-0.31298828125;0.7861328125;0.4833984375;-38.8125;-15.375;10.0
2.0;0.4453125;-0.29351806640625;-0.66925048828125;0.517333984375;10.699937959264478;12.16032708569592;4.295784687671851;-0.34228515625;0.76318359375;0.55078125;-40.0;-20.8125;8.75
2.0;0.43939208984375;-0.292236328125;-0.67120361328125;0.52056884765625;10.659426074458196;12.123203262738546;4.28498511146894;-0.236328125;0.8017578125;0.48681640625;-24.6875;-20.1875;11.3125
2.0;0.43438720703125;-0.29241943359375;-0.67242431640625;0.52313232421875;10.615462101155202;12.09771655240749;4.275176295208351;-0.29248046875;0.7822265625;0.5009765625;-28.3125;-17.3125;15.0625
2.0;0.42919921875;-0.2928466796875;-0.673583984375;0.525634765625;10.568500432545786;12.072780121812924;4.264746035144851;-0.30078125;0.76708984375;0.4384765625;-21.375;-19.5625;17.875
2.0;0.4251708984375;-0.29388427734375;-0.67474365234375;0.52685546875;10.531319946774763;12.056370413816762;4.252268690603517;-0.18603515625;0.75244140625;0.42822265625;-20.625;-17.9375;12.6875
2.0;0.42071533203125;-0.29730224609375;-0.67498779296875;0.52825927734375;10.470461006770662;12.048919324049042;4.239200537555996;-0.29541015625;0.7822265625;0.45068359375;-12.0;-20.75;13.5625
2.0;0.4195556640625;-0.3043212890625;-0.67236328125;0.52850341796875;10.403481871856261;12.075595912958702;4.235814227467463;-0.22265625;0.76611328125;0.45166015625;-2.625;-25.25;20.125
2.0;0.41943359375;-0.3121337890625;-0.66943359375;0.52777099609375;10.341999053720004;12.111120445012878;4.231301199006861;-0.14892578125;0.6982421875;0.4228515625;29.9375;-16.5;24.8125
2.0;0.419677734375;-0.318115234375;-0.66748046875;0.52642822265625;10.302213195731659;12.140017567010487;4.224728097978673;-0.08740234375;0.7587890625;0.3369140625;32.9375;-15.5625;17.75
2.0;0.42047119140625;-0.32183837890625;-0.66693115234375;0.52423095703125;10.290983012170509;12.160781996531135;4.215134090989816;-0.130859375;0.7265625;0.41162109375;32.75;-12.6875;11.0625
2.0;0.4232177734375;-0.32464599609375;-0.6654052734375;0.522216796875;10.295321365687817;12.1876977076184;4.216344773431865;-0.21533203125;0.7490234375;0.4541015625;27.5;-10.3125;2.25
2.0;0.42578125;-0.32928466796875;-0.66357421875;0.51953125;10.288154579825251;12.222182537220405;4.212813484316455;-0.244140625;0.701171875;0.5009765625;36.0625;2.625;2.625
2.0;0.42462158203125;-0.330810546875;-0.665771484375;0.51678466796875;10.291312888135447;12.221966161133404;4.189871890918724;-0.0673828125;0.67626953125;0.431640625;41.75;0.125;-4.875
2.0;0.42242431640625;-0.3267822265625;-0.66949462890625;0.5162353515625;10.319346047557518;12.191108782521566;4.175418656266411;-0.11279296875;0.9560546875;0.48876953125;6.8125;-15.1875;-18.875
2.0;0.42083740234375;-0.32464599609375;-0.6708984375;0.51715087890625;10.323144755041213;12.172774802365689;4.17278701015354;-0.1845703125;0.85791015625;0.47412109375;-24.0625;-4.6875;-21.4375
2.0;0.421142578125;-0.3255615234375;-0.67144775390625;0.51556396484375;10.328853359786502;12.17813624373241;4.164649400138434;-0.1650390625;0.724609375;0.51025390625;-8.875;1.625;-4.3125
2.0;0.41961669921875;-0.3270263671875;-0.671630859375;0.515625;10.308599803358913;12.17720123906188;4.157749049568986;-0.18212890625;0.9287109375;0.4755859375;8.0625;-3.5;-10.3125
2.0;0.418701171875;-0.32904052734375;-0.6710205078125;0.51593017578125;10.284906142496428;12.182100457299752;4.155268037536858;-0.12060546875;0.83740234375;0.4521484375;2.6875;-6.9375;0.3125
2.0;0.4188232421875;-0.328125;-0.67193603515625;0.5152587890625;10.298470077351729;12.177980805930305;4.151486135441008;-0.029296875;0.77099609375;0.39501953125;6.4375;-2.3125;-0.875
2.0;0.419921875;-0.32708740234375;-0.67340087890625;0.5130615234375;10.329204822259;12.177872390253382;4.1432333729545725;-0.15087890625;0.751953125;0.4404296875;0.6875;1.875;-10.25
2.0;0.4210205078125;-0.32818603515625;-0.674072265625;0.51055908203125;10.34429962876451;12.18781087641415;4.1333180963952145;-0.20654296875;0.69580078125;0.3876953125;4.0625;-0.25;-15.9375
2.0;0.4208984375;-0.32861328125;-0.67535400390625;0.5086669921875;10.354472954723995;12.188416862151728;4.121142299154676;-0.15625;0.88623046875;0.41259765625;10.75;-3.4375;-16.1875
2.0;0.419677734375;-0.3294677734375;-0.6761474609375;0.50811767578125;10.345623591121532;12.185800120833628;4.111734421501205;-0.23291015625;0.82958984375;0.3798828125;1.6875;-9.125;-9.25
2.0;0.41937255859375;-0.33221435546875;-0.67645263671875;0.5062255859375;10.335590751403014;12.196531607964811;4.098824540014351;-0.13671875;0.7568359375;0.42919921875;3.0;-7.375;-3.875
2.0;0.42010498046875;-0.33477783203125;-0.6759033203125;0.50457763671875;10.330036769607203;12.212226463529646;4.0928837897985;-0.17529296875;0.8115234375;0.3818359375;12.625;-12.5;-3.5
2.0;0.42242431640625;-0.33624267578125;-0.674560546875;0.50347900390625;10.337442347409537;12.230947511743912;4.0977527186125;-0.1455078125;0.77783203125;0.3310546875;14.5;-5.3125;-3.5625
2.0;0.42779541015625;-0.33697509765625;-0.6719970703125;0.50189208984375;10.369158942457503;12.26205661939172;4.114868847887868;-0.13330078125;0.7724609375;0.34912109375;16.25;7.4375;-5.875
2.0;0.4351806640625;-0.3397216796875;-0.667724609375;0.4993896484375;10.399547212487963;12.31363935368226;4.137389262237274;-0.2177734375;0.84521484375;0.333984375;23.875;21.25;-7.9375
2.0;0.4407958984375;-0.34259033203125;-0.66424560546875;0.4970703125;10.418288518874878;12.356987649309954;4.152800249083037;-0.2294921875;0.9033203125;0.28662109375;39.0;24.5625;-6.0625
2.0;0.4464111328125;-0.348388671875;-0.65924072265625;0.49468994140625;10.411697739333299;12.41472056855124;4.168486803590427;-0.24365234375;0.8828125;0.35595703125;38.6875;16.9375;-2.4375
2.0;0.45245361328125;-0.35467529296875;-0.6544189453125;0.49114990234375;10.411037704618067;12.477074008940717;4.179969053726452;-0.205078125;0.85791015625;0.31494140625;52.1875;13.3125;6.9375
2.0;0.45672607421875;-0.356201171875;-0.6519775390625;0.48931884765625;10.429780793780788;12.507521048344454;4.192171515890024;-0.1923828125;0.91162109375;0.26123046875;54.5;10.1875;1.25
2.0;0.4591064453125;-0.35498046875;-0.65087890625;0.48944091796875;10.448728011321569;12.514893503703284;4.205592813015492;-0.2939453125;1.0263671875;0.30517578125;23.1875;12.8125;-3.875
2.0;0.46087646484375;-0.3553466796875;-0.64874267578125;0.4903564453125;10.44472563608135;12.526918398692375;4.220638670675231;-0.3017578125;0.91943359375;0.26025390625;-0.6875;13.0;-1.3125
2.0;0.46563720703125;-0.35595703125;-0.64617919921875;0.48883056640625;10.470001084644075;12.556075651469854;4.237587004340991;-0.2001953125;0.76708984375;0.23388671875;5.9375;12.6875;5.9375
2.0;0.47271728515625;-0.3577880859375;-0.64141845703125;0.48687744140625;10.49535840770216;12.60480447063432;4.265715115362469;-0.27294921875;0.78857421875;0.29638671875;26.875;18.9375;-3.0625
2.0;0.4764404296875;-0.357177734375;-0.6390380859375;0.48687744140625;10.513688648917245;12.623201623936165;4.286417117915132;-0.3212890625;0.93408203125;0.1787109375;33.375;26.125;0.5625
2.0;0.477783203125;-0.35406494140625;-0.6387939453125;0.48822021484375;10.534746591118614;12.61633800099547;4.301455123132761;-0.3125;1.0;0.20654296875;5.875;19.4375;-0.8125
2.0;0.47833251953125;-0.3519287109375;-0.638916015625;0.48895263671875;10.549121270873256;12.609815293026836;4.30902237335067;-0.3212890625;0.87841796875;0.22265625;-14.3125;14.1875;-1.3125
2.0;0.48077392578125;-0.35296630859375;-0.63800048828125;0.487060546875;10.56425900093783;12.628196649484604;4.311672808054246;-0.30078125;0.751953125;0.31103515625;-4.375;9.0;0.5
2.0;0.4808349609375;-0.35302734375;-0.63800048828125;0.48699951171875;10.564557116103515;12.62872436473875;4.311547310735026;-0.30029296875;0.88623046875;0.26953125;17.375;3.5;-3.9375
2.0;0.4801025390625;-0.35211181640625;-0.63836669921875;0.48779296875;10.563243791771956;12.6206041225028;4.312277740097393;-0.2919921875;0.95263671875;0.2734375;0.0;0.25;0.75
2.0;0.48089599609375;-0.35205078125;-0.6380615234375;0.487548828125;10.568754983265897;12.624646970131122;4.315097666325676;-0.2529296875;0.84619140625;0.29345703125;-6.625;0.625;1.25
2.0;0.48150634765625;-0.35174560546875;-0.63787841796875;0.48736572265625;10.574943086052293;12.626785645651523;4.317591140305321;-0.26611328125;0.873046875;0.2626953125;2.625;2.9375;-1.3125
2.0;0.4814453125;-0.3511962890625;-0.63787841796875;0.48785400390625;10.575574806717848;12.623911157757826;4.319987773122535;-0.2841796875;0.8994140625;0.25048828125;-0.75;2.25;-1.125
2.0;0.4814453125;-0.3504638671875;-0.63824462890625;0.4879150390625;10.581653477688187;12.62040122253307;4.3202526810415325;-0.2626953125;0.88232421875;0.26513671875;-4.625;1.9375;0.3125
2.0;0.481689453125;-0.35009765625;-0.63848876953125;0.48760986328125;10.588323504912283;12.619983574212766;4.3198405483862485;-0.279296875;0.85791015625;0.27099609375;-3.8125;0.5625;-1.1875
2.0;0.4815673828125;-0.349609375;-0.63885498046875;0.487548828125;10.592670562236663;12.61702885982842;4.318887161562046;-0.28759765625;0.88525390625;0.248046875;-2.375;-0.5;-1.8125
2.0;0.48223876953125;-0.349609375;-0.6390380859375;0.48663330078125;10.602668830153988;12.620644697128121;4.317364526260226;-0.2666015625;0.8623046875;0.24560546875;-4.375;-0.875;-1.875
2.0;0.48394775390625;-0.35040283203125;-0.638427734375;0.4852294921875;10.613328506910404;12.633815398768848;4.318805325202502;-0.26123046875;0.8330078125;0.244140625;2.6875;-0.6875;-4.5625
2.0;0.484375;-0.35028076171875;-0.638671875;0.48455810546875;10.621524962179155;12.635520488813023;4.317341945978213;-0.2646484375;0.90673828125;0.22021484375;8.5625;2.0;-5.0625
2.0;0.48394775390625;-0.34991455078125;-0.63946533203125;0.48419189453125;10.626516521492398;12.631128219446818;4.31272950735681;-0.27099609375;0.90869140625;0.24462890625;-0.4375;-0.625;-4.8125
2.0;0.48321533203125;-0.3502197265625;-0.64031982421875;0.4835205078125;10.626982515341528;12.628125802704155;4.30474328495946;-0.275390625;0.84765625;0.27978515625;-1.875;-3.625;-2.875
2.0;0.48236083984375;-0.350830078125;-0.64093017578125;0.483154296875;10.62192534784876;12.625803975797995;4.297654668778969;-0.26171875;0.85107421875;0.298828125;1.125;-6.75;-2.1875
2.0;0.48211669921875;-0.3516845703125;-0.64111328125;0.4825439453125;10.618729409718732;12.628209330111941;4.292725222204116;-0.23779296875;0.85791015625;0.2958984375;1.125;-6.4375;-1.25
2.0;0.48193359375;-0.35247802734375;-0.64117431640625;0.4820556640625;10.615182486902766;12.630783571232689;4.288918943959198;-0.25244140625;0.86767578125;0.2822265625;4.625;-4.4375;-1.0
2.0;0.482666015625;-0.353515625;-0.640625;0.4813232421875;10.614695019742335;12.639730372452192;4.288848024313144;-0.24072265625;0.8779296875;0.29345703125;4.8125;-3.3125;-1.0625
2.0;0.48333740234375;-0.354248046875;-0.64013671875;0.480712890625;10.615460099741167;12.647082385105865;4.289333755339314;-0.24951171875;0.86767578125;0.27783203125;9.25;0.375;-0.6875
2.0;0.48370361328125;-0.3548583984375;-0.6397705078125;0.48040771484375;10.613893844485965;12.652004715113172;4.289645015282364;-0.26904296875;0.88037109375;0.2734375;7.625;0.5625;0.0
2.0;0.48382568359375;-0.35552978515625;-0.6395263671875;0.4801025390625;10.610880450482034;12.655870238991907;4.288659347846473;-0.2529296875;0.85693359375;0.26953125;5.375;0.3125;0.5
2.0;0.48382568359375;-0.35552978515625;-0.6395263671875;0.4801025390625;10.610880450482034;12.655870238991907;4.288659347846473;-0.24755859375;0.8779296875;0.265625;4.0625;-1.0;-0.1875
2.0;0.48382568359375;-0.35589599609375;-0.63934326171875;0.4801025390625;10.607683365865233;12.657574264313432;4.288620195138909;-0.255859375;0.87109375;0.2744140625;0.9375;-0.75;0.4375
2.0;0.48455810546875;-0.3565673828125;-0.638671875;0.47967529296875;10.607493699918235;12.665159936676726;4.290634854234824;-0.2392578125;0.8359375;0.2724609375;3.0;0.125;0.5625
2.0;0.4849853515625;-0.35699462890625;-0.63824462890625;0.47955322265625;10.606259265450923;12.66956138462545;4.292267361869616;-0.24658203125;0.86083984375;0.2578125;7.0;2.0625;-0.0625
2.0;0.48504638671875;-0.357177734375;-0.6380615234375;0.4796142578125;10.604333294557874;12.670792417010649;4.292950119127144;-0.2666015625;0.88671875;0.24658203125;2.625;1.1875;1.0
2.0;0.4852294921875;-0.35760498046875;-0.6378173828125;0.4794921875;10.602301494932906;12.673760325117943;4.293181836912989;-0.26611328125;0.84375;0.23876953125;0.25;-0.375;1.625
2.0;0.48468017578125;-0.357666015625;-0.63775634765625;0.47998046875;10.595503509295158;12.67123081990625;4.29314194636125;-0.2587890625;0.8623046875;0.240234375;1.875;-0.4375;1.25
2.0;0.48406982421875;-0.35711669921875;-0.6383056640625;0.4803466796875;10.59550455177183;12.664956296517817;4.29151936265425;-0.23681640625;0.87158203125;0.24267578125;-3.75;-0.875;1.625
2.0;0.4835205078125;-0.35693359375;-0.63873291015625;0.48046875;10.594315719788138;12.66088500179961;4.289055122384943;-0.25341796875;0.84716796875;0.259765625;-5.4375;-1.5;-0.25
2.0;0.48297119140625;-0.3565673828125;-0.63922119140625;0.4805908203125;10.594606213324314;12.656054883409725;4.286721947776821;-0.24755859375;0.86572265625;0.26220703125;-3.1875;-2.125;-1.0
2.0;0.482177734375;-0.356201171875;-0.6397705078125;0.48101806640625;10.591860615515767;12.649584329990212;4.284390332450609;-0.25927734375;0.859375;0.27099609375;-3.75;-2.0;-0.625
2.0;0.480712890625;-0.35528564453125;-0.6407470703125;0.48175048828125;10.588607794521506;12.63711034736754;4.280505547456424;-0.2568359375;0.8779296875;0.25732421875;-6.5625;-2.6875;0.3125
2.0;0.4793701171875;-0.35455322265625;-0.641845703125;0.4822998046875;10.586304152006427;12.625633467600565;4.2756343529714105;-0.25830078125;0.873046875;0.291015625;-10.25;-3.625;0.125
2.0;0.47869873046875;-0.3548583984375;-0.64215087890625;0.48223876953125;10.581568689862445;12.623388507280294;4.271751880684631;-0.25390625;0.83349609375;0.27978515625;-8.9375;-4.875;0.25
2.0;0.478759765625;-0.35565185546875;-0.642333984375;0.48138427734375;10.582086675474756;12.62717488038008;4.267082059301016;-0.2529296875;0.8837890625;0.2578125;1.625;-3.0625;-0.9375
2.0;0.47906494140625;-0.3558349609375;-0.64239501953125;0.48089599609375;10.585738805046699;12.629580872621172;4.265893041879564;-0.2568359375;0.853515625;0.25048828125;0.6875;-1.625;-1.125
2.0;0.47900390625;-0.35614013671875;-0.64263916015625;0.4803466796875;10.587337447577646;12.630624296006872;4.262521759672909;-0.26904296875;0.85595703125;0.26171875;2.1875;-1.0625;-1.1875
2.0;0.47882080078125;-0.35650634765625;-0.64306640625;0.47967529296875;10.589144422711943;12.631099555465552;4.25762515384504;-0.26708984375;0.8505859375;0.26513671875;1.8125;-3.1875;-0.9375
2.0;0.4788818359375;-0.3570556640625;-0.643310546875;0.4788818359375;10.591234873888626;12.633809206623846;4.253390710122157;-0.26025390625;0.84375;0.28125;3.1875;-4.25;-1.8125
2.0;0.4793701171875;-0.357666015625;-0.6431884765625;0.4781494140625;10.593843911578492;12.639231907617276;4.251838208935754;-0.25927734375;0.84130859375;0.2734375;4.625;-3.5;-1.75
2.0;0.4801025390625;-0.35833740234375;-0.64288330078125;0.47735595703125;10.59722089685368;12.646389545563494;4.251374811773655;-0.265625;0.86376953125;0.27392578125;6.0625;-1.125;-1.3125
2.0;0.48095703125;-0.3592529296875;-0.642333984375;0.47650146484375;10.599139760377298;12.655612715716167;4.251505252085102;-0.2626953125;0.85205078125;0.2568359375;6.875;-0.125;-1.125
2.0;0.48126220703125;-0.3599853515625;-0.64208984375;0.4759521484375;10.598299714228464;12.660794574458993;4.2501872425852625;-0.271484375;0.884765625;0.2529296875;8.125;-0.1875;-0.6875
2.0;0.48150634765625;-0.36053466796875;-0.641845703125;0.4755859375;10.597275409555118;12.664834808570676;4.249606749422868;-0.26171875;0.87744140625;0.25537109375;4.9375;-1.3125;-0.0625
2.0;0.4818115234375;-0.36114501953125;-0.6414794921875;0.47528076171875;10.595402933491672;12.669541580554402;4.24972333871568;-0.2646484375;0.86474609375;0.255859375;4.0;-1.0;0.8125
2.0;0.4818115234375;-0.36163330078125;-0.6409912109375;0.4755859375;10.588491206043853;12.671991114564344;4.251498625944036;-0.26025390625;0.861328125;0.2529296875;2.0;0.3125;1.3125
2.0;0.48126220703125;-0.361572265625;-0.64111328125;0.47607421875;10.583161036353346;12.668546159259662;4.2510482052309255;-0.255859375;0.87841796875;0.2587890625;-0.375;0.3125;2.375
2.0;0.48126220703125;-0.36199951171875;-0.64093017578125;0.47601318359375;10.579925812351167;12.670567201663683;4.250696200709912;-0.244140625;0.83984375;0.275390625;-2.0;-0.8125;2.0
2.0;0.48150634765625;-0.362548828125;-0.640380859375;0.47601318359375;10.57564043673738;12.674838623980847;4.252347486584114;-0.24560546875;0.84716796875;0.265625;3.125;-0.0625;1.125
2.0;0.48101806640625;-0.36248779296875;-0.64044189453125;0.47650146484375;10.570459205666959;12.671796701053836;4.252301993773767;-0.25390625;0.9013671875;0.25146484375;2.8125;0.6875;1.875
2.0;0.48040771484375;-0.36260986328125;-0.64068603515625;0.47674560546875;10.565380930475174;12.668808657002565;4.2501197511343625;-0.24951171875;0.869140625;0.25830078125;-3.3125;-0.9375;2.0625
2.0;0.47998046875;-0.36297607421875;-0.64068603515625;0.47686767578125;10.55956455714685;12.668217148499169;4.248512925853179;-0.25439453125;0.861328125;0.2724609375;-1.25;-2.4375;1.75
2.0;0.47955322265625;-0.36309814453125;-0.6407470703125;0.47711181640625;10.554925828675433;12.666438566525057;4.247540653507352;-0.24560546875;0.8828125;0.25244140625;-0.875;-2.3125;1.8125
2.0;0.47845458984375;-0.36370849609375;-0.64111328125;0.47723388671875;10.544683967973194;12.663136364818351;4.242142683745151;-0.26220703125;0.8681640625;0.267578125;-1.5625;-3.0;1.625
2.0;0.4781494140625;-0.36444091796875;-0.6409912109375;0.4771728515625;10.537732043789548;12.66486245371997;4.240067201020001;-0.2529296875;0.86279296875;0.265625;0.5625;-3.625;2.8125
2.0;0.4774169921875;-0.3648681640625;-0.6409912109375;0.4775390625;10.528204365747733;12.6629327602022;4.238202130148405;-0.25048828125;0.876953125;0.25341796875;1.5625;-3.3125;2.6875
2.0;0.47625732421875;-0.36480712890625;-0.64154052734375;0.47808837890625;10.52032583375196;12.655943382073227;4.2346216462072555;-0.2314453125;0.8974609375;0.255859375;-2.1875;-2.75;2.1875
2.0;0.475341796875;-0.36480712890625;-0.64202880859375;0.47833251953125;10.51506767453996;12.650778732039281;4.2309158857017355;-0.23388671875;0.86328125;0.2685546875;-5.75;-3.9375;2.0625
2.0;0.47454833984375;-0.364990234375;-0.6424560546875;0.4783935546875;10.510143321395592;12.64716246392028;4.226868763815898;-0.24072265625;0.85791015625;0.27294921875;-3.625;-4.0;1.25
2.0;0.47381591796875;-0.365478515625;-0.64276123046875;0.47833251953125;10.503774283239501;12.64533740783967;4.222473906147837;-0.23583984375;0.84765625;0.2705078125;-1.875;-4.3125;0.9375
2.0;0.4732666015625;-0.36572265625;-0.64300537109375;0.47833251953125;10.499613352485602;12.643449949069428;4.2195026956643344;-0.23486328125;0.86474609375;0.267578125;-0.625;-4.875;1.3125
2.0;0.47296142578125;-0.36602783203125;-0.6431884765625;0.4781494140625;10.497384061489898;12.643146954208001;4.2167809128709886;-0.23388671875;0.8515625;0.26953125;-0.6875;-3.3125;0.625
2.0;0.47308349609375;-0.36639404296875;-0.64312744140625;0.47784423828125;10.497201544635931;12.645505778896869;4.215696532982244;-0.24169921875;0.84326171875;0.2705078125;1.0;-2.5625;0.6875
2.0;0.47308349609375;-0.3668212890625;-0.64300537109375;0.4776611328125;10.494920298227836;12.64758437159477;4.214734532504918;-0.2529296875;0.8544921875;0.26513671875;2.875;-1.25;0.625
2.0;0.47314453125;-0.3673095703125;-0.64288330078125;0.47735595703125;10.493313209803114;12.650302969140483;4.213449920519877;-0.24365234375;0.865234375;0.263671875;1.875;-1.375;1.0625
2.0;0.4736328125;-0.367919921875;-0.642578125;0.47686767578125;10.493916332929999;12.655808396063328;4.213277963858937;-0.23876953125;0.85400390625;0.25927734375;3.125;-1.625;0.375
2.0;0.47412109375;-0.368408203125;-0.6422119140625;0.47650146484375;10.494412752569628;12.660877019210147;4.2139413890590625;-0.244140625;0.88427734375;0.25732421875;4.8125;-0.4375;-0.5
2.0;0.47406005859375;-0.368408203125;-0.6422119140625;0.47650146484375;10.494036343252477;12.660662926037567;4.2137573486494935;-0.24853515625;0.890625;0.25146484375;3.75;0.4375;-0.0625
2.0;0.47467041015625;-0.36859130859375;-0.64190673828125;0.47625732421875;10.496862870288835;12.66477124250634;4.215543349045714;-0.23095703125;0.8623046875;0.2626953125;0.75;0.6875;-0.1875
2.0;0.47540283203125;-0.368896484375;-0.6414794921875;0.47589111328125;10.499872159158961;12.670298216100292;4.217508074134142;-0.24169921875;0.85986328125;0.2646484375;4.0625;2.0;-0.875
2.0;0.4759521484375;-0.369384765625;-0.6409912109375;0.4755859375;10.499927546218384;12.675835119906559;4.218981803139312;-0.24951171875;0.87158203125;0.26220703125;5.0;2.125;-0.5625
2.0;0.4766845703125;-0.3697509765625;-0.64044189453125;0.4752197265625;10.502059592936192;12.6819280077309;4.221263129045425;-0.23681640625;0.87744140625;0.2666015625;5.75;1.875;-0.1875
2.0;0.477294921875;-0.37005615234375;-0.64007568359375;0.47491455078125;10.504167369175265;12.686729472128668;4.222845205716144;-0.2412109375;0.87890625;0.25634765625;5.375;2.375;-0.75
2.0;0.47784423828125;-0.37042236328125;-0.6396484375;0.474609375;10.50525732867786;12.691696176819704;4.224341226739652;-0.2470703125;0.87255859375;0.25830078125;4.5625;1.6875;-0.4375
2.0;0.478515625;-0.37078857421875;-0.63916015625;0.474365234375;10.506504050079393;12.697159879310238;4.226616102015135;-0.236328125;0.85302734375;0.2509765625;4.8125;1.6875;-0.3125
2.0;0.47900390625;-0.3709716796875;-0.6387939453125;0.4742431640625;10.50760242176852;12.700797843015556;4.228645590418163;-0.2470703125;0.861328125;0.2509765625;4.75;2.125;0.25
2.0;0.4794921875;-0.3712158203125;-0.638427734375;0.4739990234375;10.508998938460937;12.704864040924386;4.230173006700171;-0.23974609375;0.85791015625;0.25439453125;3.75;2.375;0.0625
2.0;0.47943115234375;-0.37158203125;-0.63818359375;0.47406005859375;10.504880386231585;12.70643048495232;4.230330653587369;-0.25732421875;0.8720703125;0.251953125;3.8125;1.375;0.5625
2.0;0.4793701171875;-0.37225341796875;-0.6378173828125;0.47418212890625;10.49788286315422;12.70921262173078;4.2305182024244825;-0.24267578125;0.87109375;0.255859375;2.0625;-0.375;2.0
2.0;0.47906494140625;-0.3724365234375;-0.63763427734375;0.47454833984375;10.49195103575437;12.708570547847282;4.231034518821103;-0.22998046875;0.890625;0.24853515625;2.5625;-0.6875;2.125
2.0;0.47845458984375;-0.3721923828125;-0.6376953125;0.47528076171875;10.485812930661288;12.704063273587302;4.231753976031499;-0.23095703125;0.90087890625;0.24853515625;-1.1875;0.1875;2.0
2.0;0.47796630859375;-0.3719482421875;-0.63775634765625;0.47589111328125;10.481137237585472;12.700219432196603;4.23246169221923;-0.22998046875;0.87451171875;0.2626953125;-3.75;0.3125;2.25
2.0;0.47796630859375;-0.37200927734375;-0.63751220703125;0.4761962890625;10.478027179164753;12.700561401073205;4.234162673200431;-0.2275390625;0.85546875;0.27587890625;-2.25;0.5;1.625
2.0;0.47808837890625;-0.37261962890625;-0.6368408203125;0.47650146484375;10.47034521521671;12.704355393606528;4.236663298452794;-0.2333984375;0.845703125;0.26953125;1.625;1.75;2.125
2.0;0.47796630859375;-0.37310791015625;-0.63629150390625;0.4769287109375;10.461737375900647;12.706300423423123;4.238616078366596;-0.2138671875;0.87646484375;0.26708984375;4.1875;1.75;2.625
2.0;0.47747802734375;-0.373291015625;-0.6358642578125;0.4779052734375;10.450206220555065;12.704562938194325;4.241361698518108;-0.212890625;0.8994140625;0.2685546875;2.25;1.625;2.8125
2.0;0.47674560546875;-0.3734130859375;-0.63555908203125;0.4788818359375;10.438059149255741;12.701408849019765;4.2430680816941955;-0.20947265625;0.8857421875;0.27978515625;-0.5625;1.75;4.25
2.0;0.47686767578125;-0.37396240234375;-0.63470458984375;0.47943115234375;10.428663126746443;12.705064822953043;4.247078833476298;-0.18505859375;0.85791015625;0.2939453125;-0.5;1.75;3.375
2.0;0.4775390625;-0.375;-0.6331787109375;0.47998046875;10.416755222695322;12.714179735623198;4.254111871694093;-0.19384765625;0.87548828125;0.30029296875;6.0;4.0;3.0
2.0;0.47857666015625;-0.37591552734375;-0.63153076171875;0.48046875;10.40774501357029;12.724653765615948;4.262695337021861;-0.17431640625;0.8896484375;0.294921875;10.3125;6.5625;3.625
2.0;0.48040771484375;-0.3759765625;-0.6302490234375;0.48028564453125;10.414586954738878;12.735438282301958;4.271966887586958;-0.1552734375;0.91162109375;0.29345703125;11.0;9.1875;1.0
2.0;0.48260498046875;-0.37640380859375;-0.62847900390625;0.47998046875;10.419911442420618;12.750369486220274;4.282948837361669;-0.1953125;0.89501953125;0.3037109375;12.4375;11.375;-3.375
2.0;0.483642578125;-0.375732421875;-0.6278076171875;0.4803466796875;10.425956637846655;12.753195916752917;4.290903150883414;-0.2041015625;0.94580078125;0.279296875;13.875;12.125;-2.5
2.0;0.48394775390625;-0.374755859375;-0.62713623046875;0.481689453125;10.423959922760393;12.750559183683347;4.3002954081497755;-0.1650390625;0.9697265625;0.3232421875;5.0;10.8125;-7.0
2.0;0.486328125;-0.3720703125;-0.6273193359375;0.48114013671875;10.460394660827035;12.751156113395123;4.310522871396229;-0.14306640625;0.8857421875;0.30517578125;-0.5625;11.375;-2.75
2.0;0.4849853515625;-0.37066650390625;-0.6260986328125;0.4852294921875;10.43336405292252;12.737541792043677;4.326233683982126;-0.26513671875;0.8740234375;0.29638671875;2.1875;14.75;-12.9375
2.0;0.48590087890625;-0.369873046875;-0.62322998046875;0.48846435546875;10.414261092450404;12.740350317575581;4.350653770570714;-0.0224609375;0.787109375;0.29443359375;-12.5;15.75;4.625
2.0;0.48883056640625;-0.36968994140625;-0.62005615234375;0.4898681640625;10.412214944278876;12.756723062438756;4.37526544443647;-0.15234375;0.90869140625;0.33203125;2.4375;23.3125;9.8125
2.0;0.4915771484375;-0.37054443359375;-0.6158447265625;0.49163818359375;10.39538991977855;12.777900380566246;4.401935789547989;-0.2099609375;0.7802734375;0.2861328125;15.6875;23.875;7.625
2.0;0.48590087890625;-0.3663330078125;-0.61651611328125;0.49957275390625;10.348081246312379;12.726530702331024;4.41567337900709;-0.1123046875;1.11376953125;0.255859375;12.5625;25.4375;3.0625
2.0;0.48651123046875;-0.36248779296875;-0.61614990234375;0.50225830078125;10.361543488202294;12.712492032529878;4.434906017048242;0.08642578125;0.60791015625;0.2353515625;-50.3125;11.875;10.5625
2.0;0.47991943359375;-0.35626220703125;-0.61907958984375;0.5093994140625;10.337119481501805;12.64674234665704;4.440007943875214;-0.2724609375;1.05126953125;0.22021484375;-23.875;18.5625;-0.9375
2.0;0.46185302734375;-0.33697509765625;-0.63189697265625;0.52325439453125;10.335897723549435;12.457644517273547;4.424189160275445;0.005859375;1.126953125;0.24169921875;-73.6875;5.0;-5.625
2.0;0.45263671875;-0.3189697265625;-0.6412353515625;0.53125;10.397984163466408;12.325524004912062;4.423772942787535;0.158203125;0.83056640625;0.33154296875;-185.25;-12.625;-10.5625
2.0;0.44561767578125;-0.31341552734375;-0.64251708984375;0.53887939453125;10.35823128580719;12.264272013197974;4.434887924781677;-0.64013671875;0.56201171875;0.43798828125;-129.25;8.875;-21.25
2.0;0.443603515625;-0.30950927734375;-0.6439208984375;0.54107666015625;10.367179315977685;12.23637559987864;4.438426676344815;0.037109375;0.6259765625;0.39501953125;-57.125;9.125;9.9375
2.0;0.44573974609375;-0.30926513671875;-0.64190673828125;0.5418701171875;10.37145283212089;12.247490417324743;4.454638394213672;-0.19091796875;0.80517578125;0.53662109375;-19.25;8.5;-4.3125
2.0;0.44891357421875;-0.308349609375;-0.63909912109375;0.5430908203125;10.382028634228405;12.261675649411831;4.4791827937037;-0.2109375;0.79541015625;0.3193359375;4.0625;14.125;4.5
2.0;0.4488525390625;-0.30316162109375;-0.63873291015625;0.54644775390625;10.400929947995198;12.23963924996881;4.500552309192275;-0.21240234375;0.9501953125;0.21630859375;-5.8125;21.5;2.375
2.0;0.45025634765625;-0.29705810546875;-0.6387939453125;0.548583984375;10.443759087656913;12.221320879426358;4.521814399496572;-0.20166015625;0.81494140625;0.2666015625;-34.3125;21.4375;-1.0
2.0;0.4532470703125;-0.292724609375;-0.6383056640625;0.549072265625;10.490145863498638;12.219261285069319;4.540884490588362;-0.25146484375;0.7578125;0.2578125;-29.875;24.9375;-8.375
2.0;0.4556884765625;-0.2886962890625;-0.638916015625;0.5484619140625;10.54031864502302;12.215213614859758;4.550229861679199;-0.375;0.8251953125;0.2548828125;-15.5625;20.125;-5.0625
2.0;0.45855712890625;-0.28607177734375;-0.6396484375;0.5465087890625;10.590048678521132;12.219391751893376;4.553503125421099;-0.34130859375;0.712890625;0.22412109375;-13.75;13.3125;-11.1875
2.0;0.46026611328125;-0.28515625;-0.6407470703125;0.5443115234375;10.622459056337814;12.223971346004081;4.548483619949068;-0.41259765625;0.74560546875;0.271484375;-2.0625;6.625;-10.125
2.0;0.45904541015625;-0.28369140625;-0.64312744140625;0.54327392578125;10.63924810724357;12.20989377037091;4.535165957300291;-0.4052734375;0.81884765625;0.33544921875;2.4375;-2.5625;-8.25
2.0;0.4573974609375;-0.2822265625;-0.64556884765625;0.5426025390625;10.651568235814064;12.193312916906565;4.521570154369425;-0.376953125;0.80224609375;0.37939453125;-10.625;-11.3125;-6.1875
2.0;0.45635986328125;-0.28155517578125;-0.6466064453125;0.54248046875;10.654188098492826;12.184510298695228;4.515470139546492;-0.3564453125;0.7685546875;0.42138671875;-10.125;-11.1875;-5.0625
2.0;0.454833984375;-0.2801513671875;-0.6473388671875;0.54364013671875;10.65154761665812;12.170104809137081;4.514600938757181;-0.3408203125;0.80126953125;0.42138671875;-5.5625;-6.4375;0.875
2.0;0.45220947265625;-0.27685546875;-0.6488037109375;0.5457763671875;10.653489701360165;12.14168747423413;4.514255271264441;-0.33349609375;0.81201171875;0.41552734375;-13.75;-3.0625;4.375
2.0;0.45050048828125;-0.2730712890625;-0.65045166015625;0.54718017578125;10.669133763045505;12.115968927477224;4.514061280002339;-0.29443359375;0.7451171875;0.447265625;-24.5;-0.125;1.8125
2.0;0.44915771484375;-0.26776123046875;-0.6524658203125;0.54852294921875;10.69996357883339;12.08580270400197;4.515614194100215;-0.2939453125;0.744140625;0.423828125;-23.875;2.9375;-4.5625
2.0;0.44891357421875;-0.2625732421875;-0.6536865234375;0.54974365234375;10.734975525227217;12.062654854677396;4.522482574483728;-0.3251953125;0.736328125;0.421875;-28.9375;6.9375;-8.875
2.0;0.45001220703125;-0.25738525390625;-0.654541015625;0.55029296875;10.780792167420087;12.04688529172768;4.532082710589491;-0.3349609375;0.748046875;0.39453125;-26.3125;11.4375;-8.3125
2.0;0.45147705078125;-0.253173828125;-0.65472412109375;0.55084228515625;10.819560625568693;12.037620457100056;4.543720994796542;-0.3740234375;0.74755859375;0.36962890625;-21.25;14.875;-9.625
2.0;0.45379638671875;-0.24932861328125;-0.65484619140625;0.550537109375;10.865088976035064;12.034544321683944;4.554529758950488;-0.3583984375;0.75341796875;0.33740234375;-17.9375;14.875;-7.1875
2.0;0.45684814453125;-0.2467041015625;-0.65496826171875;0.54901123046875;10.912106474417822;12.040369028164168;4.561488582272433;-0.3876953125;0.712890625;0.30859375;-11.875;14.375;-8.4375
2.0;0.46063232421875;-0.246337890625;-0.6552734375;0.545654296875;10.956366945499735;12.05888424023635;4.560370915799393;-0.4072265625;0.70849609375;0.302734375;-1.875;10.8125;-10.0625
2.0;0.46405029296875;-0.24591064453125;-0.65606689453125;0.5419921875;11.001918790306481;12.074863386310101;4.555503194363338;-0.42138671875;0.7626953125;0.275390625;10.5;2.9375;-13.4375
2.0;0.46630859375;-0.24462890625;-0.6572265625;0.5391845703125;11.043574192087084;12.081008323127499;4.550062309779194;-0.41845703125;0.76220703125;0.24462890625;7.875;-0.625;-16.125
2.0;0.46820068359375;-0.24261474609375;-0.65863037109375;0.5367431640625;11.087391626664438;12.082009887594655;4.544918432474234;-0.39892578125;0.78564453125;0.287109375;0.0625;0.125;-17.1875
2.0;0.467529296875;-0.23895263671875;-0.6607666015625;0.536376953125;11.119357473305183;12.061882063146982;4.538633304410993;-0.41259765625;0.86181640625;0.28076171875;-8.0;0.5625;-19.375
2.0;0.462890625;-0.23260498046875;-0.6649169921875;0.53802490234375;11.14253327687042;12.007865747912627;4.523140146174416;-0.40966796875;0.8505859375;0.30712890625;-27.125;-2.75;-15.0625
2.0;0.4561767578125;-0.22723388671875;-0.66961669921875;0.54022216796875;11.143396005004615;11.946063126552009;4.499739811718253;-0.4013671875;0.76318359375;0.40380859375;-50.1875;-9.625;-13.6875
2.0;0.449462890625;-0.22381591796875;-0.673828125;0.54205322265625;11.129006858323025;11.892696907564996;4.474481813974535;-0.3955078125;0.81494140625;0.5068359375;-52.5625;-19.125;-10.25
2.0;0.44354248046875;-0.22021484375;-0.6778564453125;0.5433349609375;11.122565106080302;11.843313354930764;4.450695173251864;-0.3798828125;0.89111328125;0.55712890625;-44.3125;-22.5;-7.8125
2.0;0.4405517578125;-0.22003173828125;-0.6800537109375;0.5430908203125;11.111443953955892;11.824704128824623;4.432877111600415;-0.41650390625;0.80126953125;0.64404296875;-34.1875;-19.125;-7.0
2.0;0.4429931640625;-0.22503662109375;-0.67938232421875;0.5399169921875;11.103495042582558;11.857811030690144;4.4249476224889985;-0.369140625;0.66455078125;0.681640625;1.0625;-13.0;-1.125
2.0;0.44781494140625;-0.2313232421875;-0.67755126953125;0.53558349609375;11.104239597395496;11.909733640157075;4.422643106065578;-0.330078125;0.72900390625;0.58447265625;42.4375;-5.5;-1.0625
2.0;0.45306396484375;-0.23834228515625;-0.67486572265625;0.531494140625;11.098713239738577;11.967925175950938;4.424824044713756;-0.3701171875;0.7431640625;0.482421875;53.75;-2.1875;0.4375
2.0;0.456787109375;-0.24420166015625;-0.67242431640625;0.5286865234375;11.086173855773731;12.01352017501648;4.427559938379907;-0.36572265625;0.77099609375;0.41357421875;54.75;-1.75;4.5
2.0;0.45904541015625;-0.2491455078125;-0.6705322265625;0.52685546875;11.067624429160558;12.047139217660002;4.428378526893687;-0.35009765625;0.78466796875;0.37939453125;40.75;-2.875;7.25
2.0;0.45989990234375;-0.25323486328125;-0.6690673828125;0.52593994140625;11.043046510809322;12.069677376762698;4.427659446720894;-0.35302734375;0.77685546875;0.3642578125;29.1875;-6.125;9.25
2.0;0.45953369140625;-0.2562255859375;-0.66802978515625;0.5262451171875;11.013799743481293;12.0806300827988;4.427340933239822;-0.34033203125;0.787109375;0.3681640625;19.5;-8.125;10.875
2.0;0.4591064453125;-0.258056640625;-0.6671142578125;0.52685546875;10.991582156446341;12.086675926470413;4.429059737803179;-0.31103515625;0.81201171875;0.38525390625;7.875;-7.8125;10.9375
2.0;0.459228515625;-0.25885009765625;-0.6658935546875;0.5279541015625;10.977076565492212;12.091587042990518;4.436704200782759;-0.31396484375;0.8154296875;0.3955078125;2.75;-4.25;9.25
2.0;0.4588623046875;-0.25836181640625;-0.66534423828125;0.5291748046875;10.970398924789171;12.088219608872667;4.442627407251055;-0.3154296875;0.83056640625;0.38232421875;-1.125;2.1875;8.5
2.0;0.45867919921875;-0.2574462890625;-0.66534423828125;0.52978515625;10.972888037118226;12.083543017092653;4.445512307457361;-0.31396484375;0.7958984375;0.4150390625;-6.1875;3.4375;4.9375
2.0;0.457763671875;-0.25567626953125;-0.6663818359375;0.53009033203125;10.98180957860004;12.070653562266003;4.442466793511802;-0.322265625;0.79052734375;0.412109375;-6.375;2.6875;0.25
2.0;0.4569091796875;-0.25408935546875;-0.66790771484375;0.5296630859375;10.994955577129236;12.058315959519184;4.434915232043513;-0.3271484375;0.76171875;0.4326171875;-10.875;-0.6875;-4.5
2.0;0.456787109375;-0.251708984375;-0.669677734375;0.5286865234375;11.022170011115328;12.046356004863684;4.427752958796329;-0.3154296875;0.75244140625;0.44482421875;-8.3125;-2.3125;-9.1875
2.0;0.45770263671875;-0.2481689453125;-0.67144775390625;0.52734375;11.066488847081198;12.03516781820692;4.423916617415899;-0.3134765625;0.76806640625;0.43994140625;-8.5625;1.1875;-15.625
2.0;0.4576416015625;-0.2432861328125;-0.67376708984375;0.5267333984375;11.112362910570102;12.012863788233583;4.419324127536285;-0.34619140625;0.77685546875;0.412109375;-11.5;6.75;-20.25
2.0;0.4566650390625;-0.23773193359375;-0.67681884765625;0.52618408203125;11.15906461318767;11.982288224801925;4.410060630836802;-0.35791015625;0.76318359375;0.419921875;-21.375;6.625;-21.375
2.0;0.45538330078125;-0.23358154296875;-0.67999267578125;0.5250244140625;11.196573019274874;11.95551775532412;4.395176253387407;-0.36962890625;0.7265625;0.4638671875;-25.25;3.8125;-22.375
2.0;0.4544677734375;-0.23046875;-0.68292236328125;0.52337646484375;11.23028843561855;11.934953584238695;4.379090663267993;-0.3740234375;0.73974609375;0.5029296875;-17.9375;-1.375;-21.875
2.0;0.45489501953125;-0.2286376953125;-0.68475341796875;0.52142333984375;11.261628401558175;11.927698649882299;4.368517696205489;-0.38525390625;0.732421875;0.4921875;-11.9375;-4.3125;-20.1875
2.0;0.455810546875;-0.2259521484375;-0.68609619140625;0.52008056640625;11.298073739322437;11.920074560810153;4.36448248467122;-0.37451171875;0.71826171875;0.43359375;-3.5;-1.0625;-17.4375
2.0;0.456298828125;-0.22296142578125;-0.68817138671875;0.5181884765625;11.338725554998863;11.908139133090753;4.354604805645947;-0.36474609375;0.7490234375;0.44580078125;-7.0625;6.3125;-17.6875
2.0;0.456298828125;-0.22003173828125;-0.69049072265625;0.51629638671875;11.376287442279867;11.89356536438372;4.3420887467914495;-0.4013671875;0.75;0.45361328125;-8.5625;1.8125;-21.0625
2.0;0.45599365234375;-0.2177734375;-0.69305419921875;0.51409912109375;11.40887705061138;11.879577516423227;4.3256588176403;-0.42578125;0.71923828125;0.466796875;-9.0;-1.1875;-19.25
2.0;0.4549560546875;-0.2156982421875;-0.69635009765625;0.511474609375;11.439095007680304;11.861389098320734;4.302188321501309;-0.4228515625;0.7158203125;0.4814453125;-5.9375;-4.6875;-19.625
2.0;0.45404052734375;-0.2142333984375;-0.69952392578125;0.508544921875;11.46661108956742;11.84639317310199;4.277659943572584;-0.42919921875;0.69384765625;0.48974609375;-6.125;-10.5625;-21.1875
2.0;0.45330810546875;-0.2147216796875;-0.70233154296875;0.505126953125;11.482289754690264;11.84057605696773;4.251176058614144;-0.455078125;0.677734375;0.49169921875;-2.25;-12.75;-19.1875
2.0;0.45294189453125;-0.2158203125;-0.70489501953125;0.50140380859375;11.49684612480108;11.839429033982906;4.224988261085178;-0.4541015625;0.67724609375;0.484375;7.5;-17.3125;-15.5
2.0;0.45263671875;-0.21728515625;-0.70709228515625;0.49786376953125;11.507347795027371;11.840677403843623;4.200727060882517;-0.45703125;0.68212890625;0.46240234375;10.8125;-18.3125;-15.1875
2.0;0.4525146484375;-0.21844482421875;-0.70916748046875;0.4945068359375;11.520109757682274;11.841700656912701;4.178481184434161;-0.46435546875;0.712890625;0.455078125;10.8125;-18.125;-13.0
2.0;0.452392578125;-0.21954345703125;-0.71112060546875;0.491455078125;11.531446538303651;11.8424991857386;4.157887042948531;-0.466796875;0.71875;0.4404296875;8.9375;-16.4375;-12.8125
2.0;0.45208740234375;-0.2208251953125;-0.71258544921875;0.48895263671875;11.536326691143225;11.844080563775416;4.140537584093694;-0.46875;0.7060546875;0.44091796875;8.4375;-15.625;-11.375
2.0;0.45166015625;-0.22216796875;-0.71356201171875;0.4873046875;11.534396388722723;11.845972506216548;4.127864836196566;-0.45166015625;0.71923828125;0.4482421875;7.75;-13.875;-8.125
2.0;0.451416015625;-0.223876953125;-0.71392822265625;0.48626708984375;11.526524842898413;11.8511735592637;4.120090184145405;-0.4501953125;0.7060546875;0.447265625;6.6875;-12.375;-3.0625
2.0;0.45111083984375;-0.225341796875;-0.7138671875;0.48590087890625;11.515603584340571;11.855841401407522;4.116570425542538;-0.42822265625;0.70556640625;0.41796875;6.25;-10.1875;1.25
2.0;0.45068359375;-0.2252197265625;-0.71417236328125;0.4859619140625;11.513913094159399;11.852673568440942;4.114388182416307;-0.400390625;0.734375;0.43212890625;4.125;-6.6875;2.125
2.0;0.45086669921875;-0.225341796875;-0.71405029296875;0.48583984375;11.514665042130595;11.854358428031148;4.114865497522313;-0.42724609375;0.6884765625;0.43310546875;-3.25;-4.0;1.75
2.0;0.450927734375;-0.22509765625;-0.71405029296875;0.4859619140625;11.516199146205043;11.853588993504701;4.115747344534065;-0.4306640625;0.73388671875;0.42919921875;-1.0;-1.625;1.0
2.0;0.45062255859375;-0.22418212890625;-0.7144775390625;0.48602294921875;11.521383592649013;11.847648186928808;4.114250873914358;-0.4140625;0.7119140625;0.4287109375;-2.8125;-0.4375;0.8125
2.0;0.44940185546875;-0.22296142578125;-0.7156982421875;0.48590087890625;11.525191775077401;11.834649819425355;4.106394428038556;-0.421875;0.6875;0.44140625;-5.875;-1.25;-1.125
2.0;0.44927978515625;-0.22332763671875;-0.7158203125;0.48565673828125;11.52323971879368;11.835375953648391;4.1042641957195585;-0.423828125;0.63525390625;0.48193359375;-6.0;-5.125;-2.0625
2.0;0.44873046875;-0.2235107421875;-0.71575927734375;0.48614501953125;11.515470513044827;11.833505530447457;4.104466233002016;-0.427734375;0.6904296875;0.46435546875;2.0625;-3.375;1.6875
2.0;0.44805908203125;-0.22381591796875;-0.71551513671875;0.48699951171875;11.503663632422391;11.831767196105876;4.106268913267263;-0.4326171875;0.69482421875;0.46923828125;-1.3125;-2.75;5.75
2.0;0.44677734375;-0.22271728515625;-0.7158203125;0.48828125;11.496815458801963;11.820318140575194;4.107009689385053;-0.40869140625;0.71630859375;0.4697265625;-2.6875;-2.4375;6.25
2.0;0.44512939453125;-0.22125244140625;-0.71636962890625;0.4896240234375;11.490336902138196;11.805252200826228;4.106275006978309;-0.42724609375;0.7080078125;0.490234375;-10.75;-2.0;4.75
2.0;0.4439697265625;-0.22125244140625;-0.71636962890625;0.49072265625;11.476656356912024;11.799450117833025;4.106877240448078;-0.42431640625;0.6611328125;0.5263671875;-10.5;-1.8125;5.0
2.0;0.44305419921875;-0.2216796875;-0.71600341796875;0.4918212890625;11.46080205085331;11.79729871728741;4.109270179775455;-0.392578125;0.671875;0.51513671875;-2.9375;-2.25;6.875
2.0;0.44189453125;-0.22174072265625;-0.7158203125;0.49310302734375;11.44536293459376;11.792082344725843;4.111250791677462;-0.3642578125;0.705078125;0.50048828125;-1.9375;-1.0625;6.375
2.0;0.44061279296875;-0.22222900390625;-0.7156982421875;0.49420166015625;11.427056235791147;11.787953911918823;4.111533901747951;-0.357421875;0.703125;0.49853515625;-4.6875;-1.3125;5.9375
2.0;0.43951416015625;-0.222900390625;-0.7156982421875;0.494873046875;11.411140541965612;11.785319182349149;4.110113559171154;-0.349609375;0.71875;0.49462890625;-4.0625;-2.9375;5.375
2.0;0.4383544921875;-0.22357177734375;-0.71563720703125;0.49566650390625;11.394047623892792;11.782500501655575;4.109220939990526;-0.353515625;0.712890625;0.49169921875;-1.9375;-4.3125;4.1875
2.0;0.4371337890625;-0.22406005859375;-0.7154541015625;0.496826171875;11.375713393936023;11.778749204161928;4.110189199885476;-0.34375;0.72021484375;0.4873046875;-2.5;-4.125;4.3125
2.0;0.435546875;-0.22479248046875;-0.71551513671875;0.49786376953125;11.35421463248716;11.773852793086416;4.108433009133642;-0.357421875;0.71826171875;0.486328125;-4.5;-3.8125;6.5625
2.0;0.43359375;-0.22528076171875;-0.715576171875;0.499267578125;11.3300863139585;11.766231762331083;4.1072504634067375;-0.36572265625;0.703125;0.490234375;-4.125;-6.9375;7.625
2.0;0.431396484375;-0.22540283203125;-0.71588134765625;0.5006103515625;11.307756919532673;11.755667075592465;4.104583261334456;-0.3525390625;0.7216796875;0.50732421875;-6.4375;-6.8125;7.9375
2.0;0.42926025390625;-0.2252197265625;-0.7164306640625;0.50177001953125;11.289478136625222;11.74373509053686;4.1007984207962895;-0.35302734375;0.7099609375;0.521484375;-8.25;-6.875;6.625
2.0;0.42803955078125;-0.22576904296875;-0.71649169921875;0.50244140625;11.273709289126641;11.740064518185715;4.099029300873419;-0.3583984375;0.6884765625;0.53515625;-7.75;-7.0;5.875
2.0;0.4273681640625;-0.22662353515625;-0.71630859375;0.5028076171875;11.260596686977212;11.740715161222429;4.098346425539194;-0.35107421875;0.69580078125;0.52392578125;-1.4375;-4.875;5.3125
2.0;0.4266357421875;-0.22711181640625;-0.71636962890625;0.503173828125;11.25020751374674;11.739077882235039;4.096898896641426;-0.35302734375;0.70166015625;0.5107421875;1.875;-3.5625;4.5
2.0;0.42559814453125;-0.227783203125;-0.71636962890625;0.50372314453125;11.235314045340854;11.73690152696836;4.095331869009842;-0.37451171875;0.71875;0.5166015625;-0.75;-4.4375;4.0625
2.0;0.42486572265625;-0.22900390625;-0.716064453125;0.5042724609375;11.217919208100486;11.738831998868251;4.0952661915088076;-0.37158203125;0.728515625;0.52978515625;-0.8125;-5.125;5.3125
2.0;0.42437744140625;-0.23077392578125;-0.71539306640625;0.50482177734375;11.19748477367538;11.744783599359025;4.096747200610395;-0.36328125;0.7373046875;0.52978515625;2.25;-4.75;6.75
2.0;0.424072265625;-0.23297119140625;-0.714599609375;0.5052490234375;11.175578621395381;11.753492291945015;4.098290643662057;-0.3505859375;0.732421875;0.51904296875;5.8125;-4.4375;8.5
2.0;0.4239501953125;-0.23516845703125;-0.71380615234375;0.50537109375;11.156506613659731;11.763225443345007;4.099178186345779;-0.33154296875;0.7197265625;0.501953125;7.875;-4.25;8.9375
2.0;0.42388916015625;-0.237060546875;-0.71319580078125;0.5054931640625;11.140439733641166;11.771545660778349;4.09981382785574;-0.333984375;0.71240234375;0.4814453125;8.9375;-4.875;7.75
2.0;0.42364501953125;-0.23828125;-0.712890625;0.50555419921875;11.128937077928002;11.775879725377951;4.09922853916359;-0.33203125;0.7294921875;0.4755859375;6.4375;-4.25;6.0
2.0;0.423095703125;-0.23907470703125;-0.71295166015625;0.5054931640625;11.119823736758685;11.776559585942733;4.096372925079913;-0.33544921875;0.7421875;0.49072265625;3.5;-3.625;3.625
2.0;0.423095703125;-0.24029541015625;-0.71270751953125;0.50531005859375;11.111397963213419;11.78194271324046;4.0953157443131865;-0.34423828125;0.73681640625;0.52490234375;2.75;-4.25;2.0625
2.0;0.4232177734375;-0.24114990234375;-0.71246337890625;0.505126953125;11.10647721775339;11.786449233588794;4.09499312678146;-0.32763671875;0.73828125;0.5078125;5.6875;-2.4375;2.0
2.0;0.4228515625;-0.24188232421875;-0.71240234375;0.505126953125;11.098510189014705;11.7878941566517;4.093406169306297;-0.3447265625;0.73828125;0.4951171875;4.25;-2.125;1.5
2.0;0.42254638671875;-0.24273681640625;-0.71234130859375;0.505126953125;11.09007876142098;11.79002792432617;4.0918523716175494;-0.33203125;0.71826171875;0.50537109375;3.125;-2.875;2.4375
2.0;0.42218017578125;-0.24359130859375;-0.71221923828125;0.505126953125;11.081102889467106;11.792095313953896;4.090363673512308;-0.328125;0.72314453125;0.50390625;3.125;-3.0625;2.375
2.0;0.42193603515625;-0.24444580078125;-0.7120361328125;0.5052490234375;11.072210142808023;11.794670483461541;4.0898971424103765;-0.3271484375;0.72509765625;0.5205078125;4.0625;-2.6875;2.5
2.0;0.421875;-0.24542236328125;-0.711669921875;0.5052490234375;11.063946499272438;11.799047016008632;4.090056566922167;-0.31103515625;0.7197265625;0.51220703125;4.0625;-1.6875;2.6875
2.0;0.42193603515625;-0.246337890625;-0.71142578125;0.50518798828125;11.05753873091951;11.803399259489158;4.089919131066763;-0.3095703125;0.7255859375;0.4931640625;4.375;-1.1875;2.125
2.0;0.421630859375;-0.24737548828125;-0.711181640625;0.5052490234375;11.047090683462937;11.806645860486213;4.089073739954951;-0.326171875;0.74658203125;0.5;4.4375;-1.6875;2.0
2.0;0.42120361328125;-0.24853515625;-0.7108154296875;0.5054931640625;11.033710005862861;11.810000005635768;4.08889101202875;-0.32421875;0.7412109375;0.50537109375;3.8125;-2.9375;3.3125
2.0;0.42083740234375;-0.24993896484375;-0.7103271484375;0.505859375;11.018091048307351;11.814681985984455;4.089508539334643;-0.3173828125;0.74169921875;0.50537109375;3.9375;-3.25;4.875
2.0;0.420654296875;-0.25140380859375;-0.709716796875;0.506103515625;11.003662002780963;11.82076234851073;4.090567366027082;-0.3046875;0.7431640625;0.509765625;5.3125;-2.6875;5.4375
2.0;0.4200439453125;-0.2523193359375;-0.70947265625;0.5064697265625;10.990411576714813;11.822028618757065;4.090111171051375;-0.306640625;0.75634765625;0.4912109375;5.0;-2.5;4.875
2.0;0.4195556640625;-0.2535400390625;-0.70916748046875;0.50665283203125;10.976616456922773;11.825263637449286;4.089194910996753;-0.30908203125;0.7353515625;0.49658203125;2.0;-3.5625;4.875
2.0;0.4195556640625;-0.254638671875;-0.70880126953125;0.50665283203125;10.967889491373466;11.83030106034996;4.0893168778315765;-0.29736328125;0.7353515625;0.505859375;4.375;-3.3125;4.1875
2.0;0.42010498046875;-0.2557373046875;-0.70819091796875;0.50653076171875;10.96304549212635;11.83825133056938;4.0914274540866895;-0.30078125;0.7275390625;0.49951171875;5.9375;-1.625;3.0625
2.0;0.4207763671875;-0.25689697265625;-0.70758056640625;0.50628662109375;10.95922536484817;11.847031637753112;4.093347629149984;-0.3095703125;0.7392578125;0.486328125;7.4375;0.5625;2.625
2.0;0.42120361328125;-0.2574462890625;-0.707275390625;0.5059814453125;10.959112575905236;11.851876464555954;4.09392473685409;-0.3095703125;0.76220703125;0.48681640625;7.375;0.8125;2.0
2.0;0.4217529296875;-0.25823974609375;-0.70697021484375;0.505615234375;10.958396673895749;11.8581525461685;4.094324844614279;-0.3134765625;0.7431640625;0.49365234375;5.375;0.5625;0.3125
2.0;0.42279052734375;-0.259033203125;-0.7064208984375;0.50506591796875;10.961436872371886;11.867188628758441;4.096340022090194;-0.32177734375;0.73974609375;0.48876953125;6.8125;0.3125;0.625
2.0;0.42376708984375;-0.25933837890625;-0.70611572265625;0.5045166015625;10.968116946744587;11.87353972842336;4.097845351211147;-0.3154296875;0.74072265625;0.46630859375;7.6875;2.0625;-0.1875
2.0;0.42474365234375;-0.259033203125;-0.7059326171875;0.504150390625;10.978506950480764;11.877115468777147;4.100292415995406;-0.326171875;0.75537109375;0.466796875;5.0;2.375;-1.5625
2.0;0.425537109375;-0.25836181640625;-0.7059326171875;0.50384521484375;10.99037389122156;11.878081207659754;4.102197370902049;-0.337890625;0.7626953125;0.4775390625;2.375;3.8125;-2.5625
2.0;0.426513671875;-0.258056640625;-0.70574951171875;0.50335693359375;11.00139487992527;11.881816552282139;4.104215733524933;-0.34033203125;0.71826171875;0.4716796875;1.125;4.125;-2.3125
2.0;0.42724609375;-0.25762939453125;-0.705810546875;0.50299072265625;11.01153689000054;11.883347383073948;4.1052110748081105;-0.345703125;0.74560546875;0.45947265625;2.3125;3.375;-2.3125
2.0;0.42718505859375;-0.25689697265625;-0.70654296875;0.5023193359375;11.02157904291932;11.87920296748956;4.100659451936862;-0.33203125;0.75634765625;0.4833984375;1.4375;3.3125;-3.5
2.0;0.427734375;-0.25738525390625;-0.7069091796875;0.50103759765625;11.029367551879766;11.883589502644732;4.095548681143023;-0.345703125;0.7099609375;0.48291015625;-1.0;-1.4375;-4.75
2.0;0.42779541015625;-0.25860595703125;-0.70733642578125;0.499755859375;11.028697399928133;11.888589715013756;4.087962770252942;-0.35107421875;0.73095703125;0.4775390625;6.9375;-2.6875;-4.0625
2.0;0.42803955078125;-0.25994873046875;-0.70770263671875;0.49835205078125;11.028934859582291;11.895054206831865;4.080536671010369;-0.32763671875;0.75390625;0.5009765625;9.0625;-5.5;-3.5
2.0;0.42816162109375;-0.260498046875;-0.70794677734375;0.4976806640625;11.029917029057973;11.897633058828138;4.076846377446008;-0.33251953125;0.75048828125;0.451171875;7.8125;-6.625;-3.6875
2.0;0.42816162109375;-0.260986328125;-0.7081298828125;0.49713134765625;11.029726432162317;11.899548771862065;4.073562981375937;-0.3369140625;0.74853515625;0.447265625;2.9375;-3.5625;-1.75
2.0;0.42767333984375;-0.26104736328125;-0.7088623046875;0.49652099609375;11.030808846342364;11.89655950861505;4.067083575279982;-0.3251953125;0.7626953125;0.458984375;1.9375;-2.625;-1.875
2.0;0.4267578125;-0.2615966796875;-0.7093505859375;0.4962158203125;11.023293607047417;11.894050999551094;4.0608706392873035;-0.3525390625;0.7333984375;0.478515625;0.1875;-5.75;-2.0625
2.0;0.42626953125;-0.2625732421875;-0.70941162109375;0.49609375;11.013729341634981;11.895731327021023;4.05766107257908;-0.34228515625;0.74560546875;0.48974609375;0.75;-7.0;1.0
2.0;0.4263916015625;-0.263427734375;-0.7093505859375;0.49566650390625;11.01057813653934;11.899999214983682;4.055663010582538;-0.3125;0.75;0.46826171875;2.9375;-4.6875;1.875
2.0;0.42724609375;-0.2637939453125;-0.708984375;0.49517822265625;11.015592323603647;11.906205878720824;4.057249698499019;-0.31103515625;0.755859375;0.46240234375;4.0625;-2.3125;-0.6875
2.0;0.42791748046875;-0.2635498046875;-0.7088623046875;0.49493408203125;11.022963518895692;11.908509346632956;4.059011791863627;-0.3125;0.7744140625;0.45703125;4.375;2.8125;-2.3125
2.0;0.4287109375;-0.26318359375;-0.70880126953125;0.49456787109375;11.0328260117383;11.910809223923495;4.060590617443537;-0.31982421875;0.77978515625;0.47509765625;1.0625;3.75;-3.4375
2.0;0.42926025390625;-0.26300048828125;-0.70855712890625;0.49444580078125;11.037998276030416;11.913077300078415;4.0628536577404475;-0.3388671875;0.75439453125;0.45703125;1.25;3.1875;-3.125
2.0;0.4296875;-0.262939453125;-0.7081298828125;0.4947509765625;11.038775760493483;11.915336945002785;4.0668840083170235;-0.333984375;0.75537109375;0.4580078125;0.8125;2.75;-0.75
2.0;0.42962646484375;-0.2628173828125;-0.7080078125;0.49505615234375;11.037337375969319;11.91464120527435;4.068434508504331;-0.32958984375;0.7734375;0.46484375;0.0625;3.3125;0.9375
2.0;0.42987060546875;-0.26275634765625;-0.7078857421875;0.49505615234375;11.03916783693889;11.915699218413007;4.0696671169119885;-0.3173828125;0.7724609375;0.46875;-1.5625;1.5;0.125
2.0;0.43017578125;-0.262939453125;-0.7076416015625;0.49505615234375;11.039388747312469;11.918226058171768;4.071248539232891;-0.326171875;0.7587890625;0.4736328125;0.875;1.6875;-0.125
2.0;0.43023681640625;-0.26324462890625;-0.707275390625;0.49530029296875;11.035492973674522;11.920316256537394;4.0733446430747975;-0.322265625;0.74853515625;0.46484375;1.9375;1.4375;0.25
2.0;0.43017578125;-0.26312255859375;-0.707275390625;0.4954833984375;11.034978068768273;11.919419194594829;4.073983525807821;-0.3115234375;0.76416015625;0.474609375;1.75;1.5;1.375
2.0;0.43096923828125;-0.262939453125;-0.70697021484375;0.495361328125;11.041658541699128;11.9228045050829;4.077181726916012;-0.30517578125;0.7431640625;0.4775390625;-0.0625;1.4375;-0.625
2.0;0.43194580078125;-0.262451171875;-0.70648193359375;0.49542236328125;11.050378165940705;11.926091335798047;4.082640490372671;-0.330078125;0.78369140625;0.47705078125;2.0625;4.5625;-1.75
2.0;0.43328857421875;-0.26202392578125;-0.70587158203125;0.495361328125;11.061504934654726;11.931512904630008;4.089106330024506;-0.32421875;0.73388671875;0.4677734375;2.3125;7.0625;-1.25
2.0;0.43450927734375;-0.2615966796875;-0.7052001953125;0.49542236328125;11.070992080600345;11.936508408203023;4.095914696619755;-0.33837890625;0.76318359375;0.4736328125;3.5;8.3125;-1.4375
2.0;0.43524169921875;-0.26153564453125;-0.704833984375;0.495361328125;11.075872534023485;11.940231494478716;4.099275441437723;-0.3505859375;0.7431640625;0.46044921875;3.0625;7.25;0.4375
2.0;0.43621826171875;-0.26141357421875;-0.7044677734375;0.4951171875;11.083811298261502;11.944903442274132;4.1027555461824425;-0.33935546875;0.74609375;0.466796875;3.5;4.125;0.0625
2.0;0.4375;-0.26171875;-0.7039794921875;0.49444580078125;11.092726207225969;11.953171373079254;4.1055349764266404;-0.33447265625;0.7373046875;0.46142578125;4.375;4.875;-1.3125
2.0;0.43878173828125;-0.26171875;-0.7034912109375;0.4940185546875;11.102513163484202;11.960054183167676;4.109580930532351;-0.34619140625;0.740234375;0.4423828125;7.125;3.9375;-1.875
2.0;0.43994140625;-0.26190185546875;-0.70294189453125;0.49371337890625;11.10934376665546;11.967159194749689;4.1137374109211216;-0.3486328125;0.74072265625;0.4423828125;5.5;5.1875;-1.3125
2.0;0.44097900390625;-0.262451171875;-0.70263671875;0.492919921875;11.115898673527163;11.975005321539806;4.114405306601791;-0.341796875;0.7548828125;0.45068359375;5.5;4.9375;-0.75
2.0;0.441650390625;-0.26348876953125;-0.70208740234375;0.4925537109375;11.113602760662506;11.983364009260322;4.11588595938789;-0.35546875;0.75;0.43701171875;7.3125;1.6875;-1.375
2.0;0.44189453125;-0.26470947265625;-0.70166015625;0.49224853515625;11.107084140734417;11.990291446875515;4.1156379372838465;-0.34326171875;0.767578125;0.4365234375;7.0625;0.1875;1.75
2.0;0.4423828125;-0.2652587890625;-0.70159912109375;0.49163818359375;11.109546557957426;11.99507984565209;4.114428581717886;-0.32568359375;0.78515625;0.4443359375;6.4375;-1.3125;1.125
2.0;0.4427490234375;-0.26556396484375;-0.70166015625;0.4910888671875;11.112912717183946;11.998093182203675;4.1129170032246405;-0.34912109375;0.78271484375;0.41943359375;3.25;-1.25;-1.625
2.0;0.44293212890625;-0.2659912109375;-0.70172119140625;0.49053955078125;11.114183038540776;12.000834455767174;4.110720157896237;-0.3525390625;0.7763671875;0.43212890625;2.5625;-1.25;-1.8125
2.0;0.4432373046875;-0.266357421875;-0.7017822265625;0.489990234375;11.116709703093749;12.003829156351111;4.108956472001991;-0.3427734375;0.759765625;0.42919921875;3.0;-1.75;-1.5625
2.0;0.44293212890625;-0.26641845703125;-0.7022705078125;0.48956298828125;11.117702190496829;12.001976214712089;4.104577802034924;-0.341796875;0.763671875;0.4189453125;2.5625;-1.3125;-2.125
2.0;0.4417724609375;-0.2664794921875;-0.7030029296875;0.48956298828125;11.111225370352225;11.995583863713808;4.098292566472184;-0.34716796875;0.767578125;0.42529296875;-1.625;-3.875;-2.0625
2.0;0.44085693359375;-0.2669677734375;-0.703369140625;0.489501953125;11.102772715525232;11.99281563782678;4.093390590381036;-0.34033203125;0.76611328125;0.439453125;-4.25;-6.875;-0.3125
2.0;0.440185546875;-0.267333984375;-0.70343017578125;0.48992919921875;11.093466839218198;11.990838799552314;4.092281409667741;-0.34375;0.78564453125;0.43115234375;-2.5;-6.6875;1.0625
2.0;0.4395751953125;-0.267578125;-0.703125;0.49072265625;11.082611174606283;11.989268819621113;4.094225671748934;-0.3291015625;0.79150390625;0.43896484375;-2.8125;-3.0;2.125
2.0;0.43853759765625;-0.266845703125;-0.7030029296875;0.4921875;11.072702496075642;11.98118684868956;4.097857212533837;-0.32958984375;0.79931640625;0.4326171875;-3.875;-1.1875;4.375
2.0;0.43792724609375;-0.266357421875;-0.7021484375;0.49420166015625;11.059257598250234;11.977044988497621;4.107212376304439;-0.35546875;0.75;0.4599609375;-8.375;0.0625;7.3125
2.0;0.43792724609375;-0.26544189453125;-0.701416015625;0.49578857421875;11.055593093066337;11.973887466985712;4.1168580041332445;-0.32861328125;0.73876953125;0.4560546875;-6.4375;4.5625;10.625
2.0;0.4376220703125;-0.2646484375;-0.70123291015625;0.4967041015625;11.053919263751101;11.96925191926937;4.120957167050772;-0.34423828125;0.73486328125;0.462890625;-4.875;6.5625;7.5
2.0;0.43731689453125;-0.26611328125;-0.70111083984375;0.49639892578125;11.042664219401095;11.974052172509248;4.1176225652477045;-0.361328125;0.71142578125;0.5009765625;-1.625;3.0625;5.4375
2.0;0.43817138671875;-0.27044677734375;-0.6995849609375;0.495361328125;11.01915641604327;11.998506308682112;4.116726444439496;-0.35595703125;0.7080078125;0.52587890625;12.1875;-4.4375;6.0625
2.0;0.43902587890625;-0.27581787109375;-0.697509765625;0.49462890625;10.9852247643747;12.027797745160587;4.117548698834614;-0.32861328125;0.72998046875;0.46923828125;27.5;-6.25;10.875
2.0;0.43841552734375;-0.28070068359375;-0.69586181640625;0.4947509765625;10.941440717423344;12.047371180328565;4.11603655080488;-0.302734375;0.72607421875;0.41845703125;29.375;-7.5625;15.25
2.0;0.43768310546875;-0.28369140625;-0.69500732421875;0.49493408203125;10.91204409705848;12.057397358046272;4.113806905907342;-0.23779296875;0.71728515625;0.42822265625;21.8125;-9.75;15.25
2.0;0.4390869140625;-0.28387451171875;-0.695068359375;0.493408203125;10.928541286637413;12.065225594588805;4.111955048992108;-0.26611328125;0.79443359375;0.4453125;11.25;-7.1875;9.25
2.0;0.44097900390625;-0.2841796875;-0.6954345703125;0.49114990234375;10.95219740783337;12.075438272839017;4.107628868457606;-0.38525390625;0.83544921875;0.41943359375;6.125;-0.25;-5.1875
2.0;0.44293212890625;-0.28594970703125;-0.69488525390625;0.4891357421875;10.962193779133685;12.093379369674627;4.105867810203504;-0.39208984375;0.78271484375;0.4345703125;12.0625;0.0;-7.9375
2.0;0.44512939453125;-0.28778076171875;-0.69390869140625;0.48736572265625;10.970953077809911;12.11338125850786;4.107242028320071;-0.31494140625;0.7509765625;0.42578125;19.9375;1.125;-4.5
2.0;0.4466552734375;-0.2890625;-0.69329833984375;0.48614501953125;10.977081621597621;12.12710515290648;4.107975525691501;-0.33349609375;0.8046875;0.39404296875;18.0;2.0;-2.9375
2.0;0.447509765625;-0.28985595703125;-0.69287109375;0.4854736328125;10.979683597673969;12.135292343160078;4.108654503353993;-0.3349609375;0.7841796875;0.3779296875;11.75;1.0;-1.5
2.0;0.44793701171875;-0.29083251953125;-0.692626953125;0.48480224609375;10.978643689473586;12.141969854043145;4.10713495649415;-0.3212890625;0.79150390625;0.400390625;7.375;0.875;-0.9375
2.0;0.44818115234375;-0.29229736328125;-0.692138671875;0.484375;10.970947638152614;12.150046031251414;4.106171825563339;-0.33447265625;0.80517578125;0.40234375;6.4375;-1.9375;0.4375
2.0;0.44927978515625;-0.2938232421875;-0.69158935546875;0.48321533203125;10.972354393273864;12.16275206156454;4.105305581138209;-0.2919921875;0.80810546875;0.408203125;8.1875;-1.6875;0.9375
2.0;0.4501953125;-0.29510498046875;-0.69122314453125;0.48211669921875;10.974439059913696;12.173290764809591;4.103766313174924;-0.30029296875;0.79638671875;0.37646484375;11.5;-0.6875;-2.1875
2.0;0.45135498046875;-0.29681396484375;-0.6905517578125;0.48095703125;10.974642567169273;12.187227813907967;4.103289205352318;-0.31640625;0.80029296875;0.38671875;10.3125;-1.125;-1.75
2.0;0.4521484375;-0.2977294921875;-0.69024658203125;0.48004150390625;10.977673897547568;12.195595282474393;4.102318597179739;-0.3076171875;0.81396484375;0.3642578125;11.875;-0.5625;-1.5625
2.0;0.45281982421875;-0.2984619140625;-0.68988037109375;0.47955322265625;10.97864621151006;12.202445588156944;4.102961021741567;-0.31640625;0.8095703125;0.36962890625;6.875;-0.4375;-2.1875
2.0;0.45379638671875;-0.299560546875;-0.68914794921875;0.47894287109375;10.978722217077696;12.212979521390421;4.1049464918017415;-0.31884765625;0.81201171875;0.37939453125;5.8125;0.4375;-0.75
2.0;0.454833984375;-0.30029296875;-0.6883544921875;0.478759765625;10.97919839331694;12.222046397549576;4.109347099745784;-0.31396484375;0.82275390625;0.36865234375;8.125;1.3125;0.125
2.0;0.45587158203125;-0.30047607421875;-0.68743896484375;0.47882080078125;10.981824665962174;12.22923132760124;4.115841599901929;-0.30712890625;0.822265625;0.3603515625;5.625;3.625;0.1875
2.0;0.45660400390625;-0.30047607421875;-0.68670654296875;0.47918701171875;10.982517525653348;12.233651600499265;4.12205341670493;-0.318359375;0.81103515625;0.35546875;3.1875;5.5;1.0625
2.0;0.45697021484375;-0.300048828125;-0.68634033203125;0.47967529296875;10.984162079882791;12.233949480613022;4.12682938977254;-0.30908203125;0.81787109375;0.36279296875;0.75;5.4375;1.0625
2.0;0.45703125;-0.299560546875;-0.68621826171875;0.48016357421875;10.98493153321565;12.232157407282527;4.129859879999972;-0.3125;0.8037109375;0.36669921875;-2.0;4.4375;0.8125
2.0;0.45782470703125;-0.29974365234375;-0.6856689453125;0.47998046875;10.988292995990557;12.237690123744029;4.133413690695692;-0.30224609375;0.7939453125;0.38525390625;-2.4375;3.125;-0.25
2.0;0.45904541015625;-0.29986572265625;-0.68511962890625;0.4796142578125;10.995862709639027;12.244897020127498;4.137717406946327;-0.302734375;0.8271484375;0.3896484375;4.4375;4.5625;-1.625
2.0;0.46051025390625;-0.2994384765625;-0.6845703125;0.47918701171875;11.00922546706582;12.251246411503821;4.143364446848558;-0.302734375;0.8193359375;0.375;5.0625;5.75;-3.375
2.0;0.46173095703125;-0.29852294921875;-0.68414306640625;0.47918701171875;11.022387151645821;12.254028819714607;4.150006351620158;-0.32373046875;0.8076171875;0.36669921875;3.75;7.5;-3.9375
2.0;0.4632568359375;-0.297607421875;-0.6834716796875;0.479248046875;11.036466985843411;12.258638544300014;4.158719800892252;-0.32421875;0.78466796875;0.373046875;0.9375;8.3125;-3.0
2.0;0.4642333984375;-0.29632568359375;-0.68304443359375;0.479736328125;11.04788329738197;12.25856953412872;4.16684825400691;-0.34228515625;0.798828125;0.34814453125;0.25;9.3125;-2.125
2.0;0.46484375;-0.29486083984375;-0.682861328125;0.480224609375;11.058953166506196;12.255757530856998;4.173208830379052;-0.3408203125;0.80029296875;0.3681640625;-2.875;9.0625;-1.5625
2.0;0.4656982421875;-0.29388427734375;-0.68243408203125;0.48065185546875;11.067764571021495;12.256377289929947;4.180319199504575;-0.34375;0.79150390625;0.38427734375;-4.0625;7.6875;-1.5625
2.0;0.46673583984375;-0.29302978515625;-0.68182373046875;0.4810791015625;11.076351892688061;12.258680276117298;4.1885125392954095;-0.33544921875;0.78759765625;0.37060546875;-1.5625;7.6875;-0.75
2.0;0.4674072265625;-0.29193115234375;-0.68133544921875;0.481689453125;11.083663773020243;12.258124753108966;4.196110851127737;-0.33935546875;0.81640625;0.361328125;-1.8125;8.3125;-0.8125
2.0;0.46807861328125;-0.2906494140625;-0.68072509765625;0.48272705078125;11.089532557771909;12.256700901506562;4.205894679924733;-0.34765625;0.8037109375;0.3544921875;-4.0;7.3125;0.3125
2.0;0.468505859375;-0.2890625;-0.68048095703125;0.483642578125;11.097777822687371;12.252385719774685;4.2135661761272925;-0.3369140625;0.78955078125;0.36181640625;-5.3125;9.25;1.375
2.0;0.468994140625;-0.28759765625;-0.6802978515625;0.4842529296875;11.107445084829251;12.248992419395854;4.219976625867061;-0.3486328125;0.7900390625;0.3740234375;-6.6875;8.125;0.25
2.0;0.4697265625;-0.28631591796875;-0.6800537109375;0.484619140625;11.118551197179528;12.247716363862114;4.226272804068036;-0.34375;0.775390625;0.3681640625;-5.25;7.0;-1.25
2.0;0.470703125;-0.2855224609375;-0.6796875;0.48468017578125;11.129052639024342;12.2498629125202;4.232042714553503;-0.3447265625;0.8076171875;0.3837890625;-3.3125;7.9375;-2.625
2.0;0.47149658203125;-0.2843017578125;-0.67950439453125;0.48492431640625;11.140961953354173;12.249048036690345;4.237795519161226;-0.34521484375;0.79052734375;0.3642578125;-0.25;6.6875;-2.1875
2.0;0.47186279296875;-0.283447265625;-0.67950439453125;0.48504638671875;11.14874905125934;12.247428440074621;4.240583451958869;-0.3583984375;0.791015625;0.35888671875;-3.6875;6.875;-2.0
2.0;0.47235107421875;-0.28271484375;-0.67950439453125;0.4849853515625;11.157454331674062;12.246967359592844;4.242949783436117;-0.35546875;0.798828125;0.3671875;-2.9375;3.25;-2.0
2.0;0.47283935546875;-0.2813720703125;-0.67938232421875;0.4854736328125;11.167139287488268;12.244029839566748;4.248532608568375;-0.3466796875;0.78955078125;0.34912109375;-2.6875;3.4375;-2.875
2.0;0.473876953125;-0.28045654296875;-0.67901611328125;0.48553466796875;11.178897984834576;12.246057963693433;4.2546927555859;-0.34228515625;0.77685546875;0.38671875;-3.6875;7.25;-2.5
2.0;0.4744873046875;-0.279296875;-0.67889404296875;0.48577880859375;11.189405953806833;12.244590453994768;4.259565479057013;-0.349609375;0.802734375;0.37158203125;-0.375;7.8125;-2.875
2.0;0.4747314453125;-0.27813720703125;-0.67877197265625;0.486328125;11.195916096125684;12.241242114255353;4.264335000989215;-0.35693359375;0.814453125;0.36865234375;-4.1875;6.0;-3.125
2.0;0.47454833984375;-0.277099609375;-0.67877197265625;0.487060546875;11.198193420994517;12.235980089636751;4.267745470703625;-0.36767578125;0.78369140625;0.37158203125;-4.9375;4.875;-0.125
2.0;0.474609375;-0.2769775390625;-0.67840576171875;0.4876708984375;11.194999627525222;12.236035960582273;4.27159091102227;-0.36865234375;0.76220703125;0.3935546875;-4.75;3.375;2.0
2.0;0.47467041015625;-0.27685546875;-0.67828369140625;0.48785400390625;11.194896772795788;12.235972807855255;4.273048878876946;-0.34912109375;0.7724609375;0.390625;0.1875;3.0625;3.1875
2.0;0.47509765625;-0.27679443359375;-0.67816162109375;0.487548828125;11.199383741929166;12.238275412227047;4.273909316834163;-0.34375;0.78955078125;0.3798828125;-0.0625;1.375;0.125
2.0;0.4759521484375;-0.277099609375;-0.67779541015625;0.48712158203125;11.203857225504747;12.244412255595106;4.276097149214429;-0.35595703125;0.7919921875;0.3740234375;1.875;1.8125;-1.5625
2.0;0.47637939453125;-0.27734375;-0.67755126953125;0.4869384765625;11.205080483440824;12.247928606047582;4.277399800864086;-0.3583984375;0.7958984375;0.35693359375;4.4375;2.3125;-0.9375
2.0;0.4761962890625;-0.27728271484375;-0.6776123046875;0.48699951171875;11.204217622296836;12.246726151974634;4.276890734538783;-0.35888671875;0.79736328125;0.35107421875;1.625;0.6875;-0.25
2.0;0.47589111328125;-0.27667236328125;-0.677978515625;0.48712158203125;11.207104142604503;12.24218749170806;4.275818924637676;-0.35009765625;0.794921875;0.359375;-1.8125;-0.75;0.0
2.0;0.47607421875;-0.276123046875;-0.677978515625;0.4873046875;11.211209305575103;12.240810648321137;4.277800480762765;-0.3564453125;0.783203125;0.3828125;-3.3125;-0.0625;-1.4375
2.0;0.47613525390625;-0.275634765625;-0.67803955078125;0.48748779296875;11.214283248293786;12.238968816961965;4.279075964191122;-0.36279296875;0.7841796875;0.373046875;-2.0;2.0625;-0.6875
2.0;0.47613525390625;-0.275634765625;-0.67803955078125;0.48748779296875;11.214283248293786;12.238968816961965;4.279075964191122;-0.36572265625;0.794921875;0.37109375;-2.3125;1.5625;-0.25
2.0;0.4761962890625;-0.275146484375;-0.677978515625;0.48773193359375;11.21667898477874;12.237412038577057;4.281036184645297;-0.3525390625;0.7939453125;0.37646484375;0.0;0.6875;-0.3125
2.0;0.47735595703125;-0.27545166015625;-0.6768798828125;0.48785400390625;11.217883747028594;12.246202870466847;4.288893911078919;-0.35595703125;0.77880859375;0.37353515625;3.4375;3.6875;1.25
2.0;0.47821044921875;-0.2752685546875;-0.6766357421875;0.487548828125;11.225538947427523;12.250179739123997;4.291745955113201;-0.36083984375;0.8017578125;0.36865234375;2.4375;2.9375;1.3125
2.0;0.480712890625;-0.27484130859375;-0.67559814453125;0.48681640625;11.245300402040368;12.262976757117226;4.301789389077142;-0.43310546875;0.81103515625;0.36376953125;1.9375;1.9375;1.4375
2.0;0.47991943359375;-0.2769775390625;-0.67413330078125;0.48846435546875;11.211317267505416;12.268917690119316;4.30737348274532;-0.48583984375;0.80078125;0.3095703125;5.3125;7.6875;2.25
2.0;0.48248291015625;-0.2757568359375;-0.67352294921875;0.48736572265625;11.240441011750669;12.278609002031514;4.315933772815038;-0.15185546875;0.83544921875;0.29638671875;-1.25;1.0625;4.375
2.0;0.484375;-0.2716064453125;-0.6748046875;0.48602294921875;11.293678194505206;12.27056559141485;4.318535720920902;-0.53857421875;0.79248046875;0.23486328125;-0.8125;5.0625;0.75
2.0;0.4852294921875;-0.26788330078125;-0.67620849609375;0.4853515625;11.333985648795556;12.258372650251513;4.318901933729505;-0.671875;0.7236328125;0.43212890625;-3.25;6.75;-3.5625
2.0;0.48590087890625;-0.26458740234375;-0.6773681640625;0.48486328125;11.368322175866734;12.2473131501209;4.319566725742554;-0.619140625;0.70166015625;0.494140625;-2.4375;5.9375;-1.5
2.0;0.486328125;-0.262939453125;-0.67767333984375;0.48486328125;11.38391000623295;12.242653102134756;4.322076852311827;-0.60693359375;0.68115234375;0.51708984375;0.3125;5.875;0.75
2.0;0.48724365234375;-0.26373291015625;-0.6763916015625;0.48529052734375;11.377658690865506;12.25237315555953;4.33038864115224;-0.4638671875;0.705078125;0.49365234375;3.8125;6.6875;0.9375
2.0;0.48773193359375;-0.264404296875;-0.67578125;0.48529052734375;11.373973748702793;12.258470704205049;4.333405827179759;-0.30322265625;0.79443359375;0.3701171875;6.5;7.75;1.1875
2.0;0.48883056640625;-0.2655029296875;-0.67474365234375;0.48504638671875;11.371013427208247;12.270136977060428;4.338633692773646;-0.3603515625;0.77978515625;0.3779296875;5.8125;2.625;1.875
2.0;0.49053955078125;-0.26715087890625;-0.6732177734375;0.48455810546875;11.367653024263875;12.28795946846966;4.346132592988667;-0.3564453125;0.7861328125;0.36572265625;9.8125;4.4375;1.75
2.0;0.4918212890625;-0.2681884765625;-0.672119140625;0.4842529296875;11.366319510597537;12.300439510787102;4.3520615409541135;-0.3583984375;0.8251953125;0.337890625;12.5625;5.5625;2.0
2.0;0.49298095703125;-0.2691650390625;-0.67083740234375;0.4842529296875;11.362386626267435;12.31233797444862;4.359419629062017;-0.36865234375;0.80712890625;0.341796875;9.3125;4.75;1.8125
2.0;0.494384765625;-0.270263671875;-0.66949462890625;0.48406982421875;11.359823174658652;12.32608320886948;4.367008567049721;-0.35546875;0.78662109375;0.3486328125;9.0625;5.8125;3.1875
2.0;0.49530029296875;-0.27056884765625;-0.66876220703125;0.48394775390625;11.361585502029126;12.333273720497424;4.372004488335623;-0.3349609375;0.8193359375;0.30615234375;7.8125;6.0;0.875
2.0;0.496337890625;-0.27130126953125;-0.6678466796875;0.4837646484375;11.360706695974718;12.343004892852505;4.377269153377252;-0.37060546875;0.8076171875;0.33251953125;4.0;4.625;0.0625
2.0;0.49609375;-0.271484375;-0.66796875;0.48382568359375;11.357912177796134;12.342121845646107;4.375910747030276;-0.37890625;0.79833984375;0.3134765625;6.0;3.0;2.125
2.0;0.495849609375;-0.27239990234375;-0.66796875;0.48345947265625;11.351829692100932;12.34464044470354;4.372533527679647;-0.37109375;0.7734375;0.34912109375;0.8125;-1.1875;1.0
2.0;0.49615478515625;-0.2734375;-0.6678466796875;0.48272705078125;11.349858252393853;12.350727733374221;4.370025066824242;-0.35107421875;0.7822265625;0.3515625;4.6875;-3.125;0.625
2.0;0.4967041015625;-0.27398681640625;-0.66741943359375;0.48248291015625;11.349213487330994;12.356439404793727;4.371848685751644;-0.37255859375;0.8125;0.3173828125;5.5625;-2.75;-0.9375
2.0;0.49658203125;-0.27349853515625;-0.6676025390625;0.48260498046875;11.35192391959391;12.353612300188605;4.371879704850671;-0.357421875;0.83154296875;0.2900390625;1.5;0.5625;-1.125
2.0;0.49554443359375;-0.2733154296875;-0.66845703125;0.4825439453125;11.34998843540458;12.346225446466734;4.365231751673912;-0.3798828125;0.8154296875;0.3056640625;-5.25;-0.375;-1.5
2.0;0.49346923828125;-0.273681640625;-0.66986083984375;0.48260498046875;11.338686217569132;12.334506284529112;4.352632342019665;-0.39599609375;0.79541015625;0.32958984375;-5.3125;-7.1875;-0.4375
2.0;0.4903564453125;-0.2738037109375;-0.6717529296875;0.4830322265625;11.322161636479215;12.315771917846819;4.336402471738014;-0.376953125;0.79345703125;0.32421875;-7.6875;-13.1875;0.8125
2.0;0.48760986328125;-0.27435302734375;-0.67303466796875;0.48370361328125;11.30138891582904;12.301513699092215;4.323988887294446;-0.36572265625;0.77783203125;0.34912109375;-12.0625;-17.125;1.625
2.0;0.485107421875;-0.27392578125;-0.67437744140625;0.48455810546875;11.28827177095709;12.284631151542966;4.314239915032328;-0.33154296875;0.79541015625;0.34716796875;-9.75;-13.625;2.5
2.0;0.48260498046875;-0.27337646484375;-0.67578125;0.4854736328125;11.275763679870307;12.26710593308978;4.304682196985778;-0.35107421875;0.8076171875;0.35107421875;-14.0;-10.625;1.0625
2.0;0.48089599609375;-0.27301025390625;-0.6766357421875;0.48614501953125;11.26654604643057;12.25544443874827;4.2987382914726675;-0.33349609375;0.7900390625;0.3740234375;-13.0;-9.375;0.0625
2.0;0.47998046875;-0.2730712890625;-0.6768798828125;0.4866943359375;11.258035539684968;12.250436422715582;4.296661190497282;-0.34619140625;0.79638671875;0.392578125;-8.0625;-5.8125;0.6875
2.0;0.479248046875;-0.27313232421875;-0.6768798828125;0.48736572265625;11.249277280171052;12.246734988406022;4.296532566905042;-0.345703125;0.79638671875;0.3720703125;-4.375;-3.0;1.6875
2.0;0.47894287109375;-0.2734375;-0.6766357421875;0.48785400390625;11.241718730403823;12.246563903319805;4.297727092708154;-0.3369140625;0.8076171875;0.3662109375;-4.125;-1.5;1.9375
2.0;0.478515625;-0.2735595703125;-0.67626953125;0.48870849609375;11.232337985827282;12.245132604069198;4.30051440977837;-0.3505859375;0.81591796875;0.3505859375;-2.5625;-0.6875;2.9375
2.0;0.47821044921875;-0.2733154296875;-0.6759033203125;0.48968505859375;11.225703564701764;12.242787994052511;4.304625457380021;-0.34033203125;0.83154296875;0.3515625;-4.875;0.25;3.0625
2.0;0.47772216796875;-0.27313232421875;-0.67584228515625;0.4903564453125;11.220076882412846;12.23943392681029;4.305864863053924;-0.33984375;0.8310546875;0.3525390625;-6.0;1.875;2.5625
2.0;0.476318359375;-0.27288818359375;-0.6761474609375;0.49139404296875;11.20821234586792;12.230584986787223;4.3041615875250185;-0.359375;0.857421875;0.35302734375;-7.0;-0.75;1.375
2.0;0.474609375;-0.2725830078125;-0.67657470703125;0.49267578125;11.193861307794348;12.219603675455069;4.301969445276349;-0.3515625;0.85107421875;0.369140625;-10.3125;-4.0;2.8125
2.0;0.47265625;-0.27197265625;-0.67724609375;0.493896484375;11.181235336419851;12.206007712789985;4.2983499106201934;-0.3310546875;0.84326171875;0.37255859375;-11.8125;-4.5625;2.75
2.0;0.47161865234375;-0.2718505859375;-0.67767333984375;0.49444580078125;11.173778770706756;12.199400237901342;4.295534984338414;-0.3232421875;0.8330078125;0.4033203125;-12.4375;-4.625;1.375
2.0;0.4716796875;-0.271484375;-0.67828369140625;0.49371337890625;11.182615739611498;12.197643385755923;4.291394842401635;-0.32177734375;0.85791015625;0.3828125;-7.625;-2.875;-1.4375
2.0;0.471435546875;-0.26995849609375;-0.67950439453125;0.4930419921875;11.19936381175679;12.188848566127627;4.285794691643323;-0.31982421875;0.8681640625;0.3525390625;-4.5;-1.75;-9.375
2.0;0.4705810546875;-0.267578125;-0.68115234375;0.492919921875;11.21660408720285;12.172650164703672;4.279683137261914;-0.3447265625;0.87548828125;0.34765625;-11.6875;-1.75;-12.8125
2.0;0.46832275390625;-0.26446533203125;-0.6837158203125;0.49322509765625;11.230364584107535;12.144986366418271;4.268096726674762;-0.3525390625;0.8681640625;0.345703125;-19.1875;-2.4375;-12.875
2.0;0.4649658203125;-0.26043701171875;-0.68719482421875;0.4937744140625;11.244664971616446;12.106678188376895;4.251556627238552;-0.3330078125;0.82373046875;0.36669921875;-26.4375;-6.4375;-13.6875
2.0;0.46136474609375;-0.25665283203125;-0.6900634765625;0.49505615234375;11.249657532583715;12.069021038617342;4.23880154394231;-0.33984375;0.74755859375;0.39697265625;-31.875;-10.0625;-14.0625
2.0;0.457763671875;-0.25299072265625;-0.69281005859375;0.4964599609375;11.252479031001425;12.031967569869666;4.226760125255903;-0.30810546875;0.7783203125;0.42529296875;-32.75;-7.3125;-11.375
2.0;0.45611572265625;-0.25494384765625;-0.69305419921875;0.49664306640625;11.22709763886333;12.031243939566513;4.219005459462551;-0.31201171875;0.6328125;0.43896484375;-27.9375;-7.4375;-5.875
2.0;0.45733642578125;-0.26153564453125;-0.6905517578125;0.4954833984375;11.186892320417751;12.067897642005214;4.219849525097537;-0.23583984375;0.61865234375;0.44921875;7.8125;-7.875;4.5
2.0;0.46099853515625;-0.270263671875;-0.686767578125;0.49273681640625;11.152206235474747;12.127350730189681;4.2243200587853105;-0.2509765625;0.64599609375;0.39794921875;39.1875;-6.5625;15.4375
2.0;0.4658203125;-0.279296875;-0.6826171875;0.4888916015625;11.127659603656554;12.194853378796626;4.229142668073771;-0.3369140625;0.69189453125;0.38818359375;59.375;-4.75;19.0
2.0;0.46923828125;-0.28521728515625;-0.68011474609375;0.48577880859375;11.117029957352846;12.240231872341472;4.230073720295622;-0.3505859375;0.73876953125;0.3388671875;64.375;-2.875;14.375
2.0;0.469970703125;-0.2877197265625;-0.67913818359375;0.48492431640625;11.105677132736547;12.255710080848774;4.229506865479532;-0.35693359375;0.771484375;0.3388671875;43.5625;-3.0625;6.875
2.0;0.46905517578125;-0.28594970703125;-0.67987060546875;0.48583984375;11.109566100568648;12.242636553056707;4.229589754965949;-0.341796875;0.76416015625;0.3798828125;17.125;-2.8125;5.875
2.0;0.4678955078125;-0.283447265625;-0.68060302734375;0.4873046875;11.114123216020165;12.225338006366995;4.2318497758321065;-0.36572265625;0.69287109375;0.4140625;-7.8125;1.5;2.3125
2.0;0.4678955078125;-0.28240966796875;-0.6805419921875;0.488037109375;11.117345753566696;12.220952378163805;4.2360751849208444;-0.37451171875;0.6123046875;0.43310546875;-9.9375;2.9375;5.6875
2.0;0.46893310546875;-0.28277587890625;-0.67987060546875;0.48773193359375;11.121090306530853;12.228699183037847;4.240260246585915;-0.3857421875;0.6357421875;0.44384765625;2.3125;4.75;6.875
2.0;0.46966552734375;-0.284423828125;-0.678466796875;0.488037109375;11.108136460657237;12.240880168982176;4.246525256775192;-0.3994140625;0.65576171875;0.3876953125;10.6875;2.9375;6.8125
2.0;0.47137451171875;-0.2862548828125;-0.67645263671875;0.48809814453125;11.09956515245824;12.259652785819418;4.256991705540623;-0.36572265625;0.64404296875;0.38671875;14.8125;2.25;13.5625
2.0;0.47125244140625;-0.2877197265625;-0.67449951171875;0.4901123046875;11.07126667763749;12.266916894735132;4.268689908799427;-0.4111328125;0.7265625;0.35107421875;15.75;4.3125;14.25
2.0;0.46826171875;-0.2867431640625;-0.67401123046875;0.494140625;11.035644576685643;12.24740938205028;4.276493028990221;-0.36767578125;0.87451171875;0.337890625;-0.5;2.25;17.625
2.0;0.4644775390625;-0.2850341796875;-0.67376708984375;0.49896240234375;10.996753307856842;12.220449487872896;4.284881950701648;-0.3359375;0.8876953125;0.4111328125;-22.4375;-0.0625;17.5625
2.0;0.46368408203125;-0.2860107421875;-0.67156982421875;0.502197265625;10.960418766188848;12.22216219763111;4.3003371905226;-0.31787109375;0.8466796875;0.53271484375;-22.375;2.375;19.5
2.0;0.4658203125;-0.28924560546875;-0.6680908203125;0.50299072265625;10.935656323710251;12.250116063279949;4.317629573036578;-0.29736328125;0.90234375;0.54052734375;2.8125;9.5625;18.8125
2.0;0.4697265625;-0.294921875;-0.66326904296875;0.50244140625;10.907162214673711;12.298865526566901;4.336790721121176;-0.29248046875;0.896484375;0.48974609375;26.5625;12.5625;15.0
2.0;0.47430419921875;-0.302734375;-0.65728759765625;0.50140380859375;10.865746360343497;12.361139118679594;4.35691185055891;-0.29052734375;0.8671875;0.40673828125;43.6875;12.25;17.9375
2.0;0.47760009765625;-0.31005859375;-0.65185546875;0.5008544921875;10.81834917326565;12.414198041885976;4.37302812656128;-0.26220703125;0.8984375;0.30517578125;51.125;9.4375;22.625
2.0;0.47918701171875;-0.31573486328125;-0.6480712890625;0.50067138671875;10.775472868940586;12.449779926809857;4.381467292626494;-0.24951171875;0.9111328125;0.26123046875;41.75;4.5;23.25
2.0;0.48004150390625;-0.3193359375;-0.64581298828125;0.50054931640625;10.747775492965147;12.471292408556264;4.385661758696331;-0.2275390625;0.869140625;0.22607421875;26.375;-0.6875;18.5
2.0;0.4805908203125;-0.321533203125;-0.64447021484375;0.50030517578125;10.732095268573204;12.484700014676568;4.3875803144549685;-0.24609375;0.86669921875;0.24560546875;15.125;-2.0;11.375
2.0;0.48046875;-0.322021484375;-0.64422607421875;0.50048828125;10.725987093727701;12.486171080099314;4.387824099581704;-0.26220703125;0.86962890625;0.24560546875;7.75;-2.0625;6.0
2.0;0.480712890625;-0.32208251953125;-0.6439208984375;0.50054931640625;10.725614922290257;12.488068720890794;4.38976987014981;-0.2724609375;0.8427734375;0.27685546875;-0.625;-1.5;2.75
2.0;0.4815673828125;-0.32196044921875;-0.6435546875;0.500244140625;10.73207376307716;12.492524998965123;4.392931667271078;-0.27783203125;0.8310546875;0.30322265625;1.0625;1.6875;0.8125
2.0;0.482421875;-0.32171630859375;-0.6434326171875;0.49981689453125;10.740938414263177;12.496102302426376;4.395023732414817;-0.291015625;0.83056640625;0.302734375;3.3125;3.5;-0.9375
2.0;0.483642578125;-0.32183837890625;-0.6429443359375;0.49908447265625;10.74981872036539;12.503853097821175;4.397959353829683;-0.30078125;0.8310546875;0.31689453125;3.875;3.0;-2.1875
2.0;0.48553466796875;-0.3226318359375;-0.64190673828125;0.49810791015625;10.757342442223301;12.518318413288362;4.402977690258119;-0.30517578125;0.82763671875;0.3173828125;7.75;4.0625;-1.5
2.0;0.4871826171875;-0.323486328125;-0.64093017578125;0.49725341796875;10.76245190588583;12.531660963585816;4.407325398404603;-0.30078125;0.85888671875;0.2763671875;11.1875;4.75;-0.9375
2.0;0.48822021484375;-0.3243408203125;-0.64013671875;0.49664306640625;10.76316621559062;12.54171743529194;4.409928049314826;-0.31005859375;0.87548828125;0.2646484375;9.3125;3.1875;-0.375
2.0;0.48876953125;-0.3250732421875;-0.63946533203125;0.49652099609375;10.75949417112662;12.548289263589925;4.412351390081117;-0.30029296875;0.87841796875;0.25927734375;6.1875;1.5625;0.75
2.0;0.489013671875;-0.32574462890625;-0.6387939453125;0.4967041015625;10.752702188074629;12.55295463875434;4.414914423739867;-0.28857421875;0.8701171875;0.2509765625;2.8125;0.4375;2.3125
2.0;0.48895263671875;-0.32611083984375;-0.638427734375;0.49700927734375;10.746674911974875;12.554385432398163;4.41636374436251;-0.28125;0.86767578125;0.26123046875;1.5;0.5625;3.3125
2.0;0.48858642578125;-0.32598876953125;-0.638427734375;0.4974365234375;10.742945325261319;12.551835960477117;4.4168198307629725;-0.27392578125;0.861328125;0.2666015625;-0.9375;0.125;2.625
2.0;0.48797607421875;-0.32574462890625;-0.63848876953125;0.498046875;10.737819321201085;12.547469200454495;4.417115846063894;-0.275390625;0.849609375;0.27880859375;-3.5;-0.375;1.625
2.0;0.48736572265625;-0.3255615234375;-0.638671875;0.49853515625;10.733387591710569;12.543156658940392;4.416465961264796;-0.26806640625;0.85302734375;0.29443359375;-4.4375;-0.375;1.25
2.0;0.48681640625;-0.32550048828125;-0.63897705078125;0.49871826171875;10.730613596013757;12.539659216543892;4.414368811244107;-0.26513671875;0.853515625;0.2978515625;-4.0625;-0.875;1.0
2.0;0.48651123046875;-0.32550048828125;-0.6392822265625;0.4986572265625;10.73023613003351;12.53772167625095;4.412127821794257;-0.26806640625;0.84130859375;0.30126953125;-2.5;-2.0625;-0.0625
2.0;0.48651123046875;-0.32550048828125;-0.6392822265625;0.4986572265625;10.73023613003351;12.53772167625095;4.412127821794257;-0.27001953125;0.83984375;0.302734375;-0.5625;-1.5625;-1.125
2.0;0.48651123046875;-0.32550048828125;-0.63922119140625;0.4986572265625;10.730018988280085;12.537903452675664;4.412356274167412;-0.2705078125;0.849609375;0.29443359375;-0.125;-1.0;-0.8125
2.0;0.48651123046875;-0.32568359375;-0.63909912109375;0.49884033203125;10.727234677161848;12.538494785942138;4.413040974165497;-0.27783203125;0.85302734375;0.28955078125;-0.1875;-0.8125;0.0625
2.0;0.48626708984375;-0.32586669921875;-0.63897705078125;0.49908447265625;10.722654251429812;12.538058490876503;4.413188488467744;-0.27783203125;0.8544921875;0.287109375;-0.4375;0.0;1.125
2.0;0.486083984375;-0.3260498046875;-0.638916015625;0.49920654296875;10.719347361452948;12.537896728704801;4.412910047483525;-0.26513671875;0.857421875;0.28466796875;-1.3125;-0.5;1.125
2.0;0.48577880859375;-0.326171875;-0.638916015625;0.49945068359375;10.715275351139017;12.536679884341307;4.41253441286406;-0.265625;0.85595703125;0.283203125;-1.3125;-0.9375;0.6875
2.0;0.4853515625;-0.32623291015625;-0.63897705078125;0.499755859375;10.71078427758247;12.534522530508989;4.411873147789965;-0.27001953125;0.85595703125;0.2900390625;-1.6875;-0.875;1.0
2.0;0.48516845703125;-0.32659912109375;-0.638916015625;0.499755859375;10.706861978683696;12.53515956076973;4.4108745045038225;-0.25927734375;0.84326171875;0.298828125;-1.5625;-1.0625;0.8125
2.0;0.48504638671875;-0.326904296875;-0.63885498046875;0.49969482421875;10.704085301525003;12.535948897108504;4.409980577534355;-0.263671875;0.84716796875;0.2978515625;0.875;-1.125;0.6875
2.0;0.48486328125;-0.3271484375;-0.63885498046875;0.499755859375;10.700906432247606;12.535911845731839;4.409171676594038;-0.26708984375;0.8525390625;0.28955078125;0.375;-1.375;0.5625
2.0;0.48486328125;-0.32720947265625;-0.63885498046875;0.499755859375;10.700470934866157;12.536101918257158;4.409057715923124;-0.259765625;0.8486328125;0.28857421875;-0.1875;-1.3125;0.3125
2.0;0.48486328125;-0.3270263671875;-0.6387939453125;0.4998779296875;10.700867236689202;12.535484791174735;4.410007471009513;-0.26220703125;0.853515625;0.28466796875;0.1875;-0.1875;-0.1875
2.0;0.4847412109375;-0.3265380859375;-0.63897705078125;0.5001220703125;10.702894880464566;12.532509989104113;4.410633675988445;-0.27099609375;0.85400390625;0.28662109375;-1.75;0.875;-0.75
2.0;0.48455810546875;-0.3262939453125;-0.63916015625;0.500244140625;10.70350813254026;12.530295414568938;4.410242719026717;-0.2744140625;0.85009765625;0.29248046875;-3.6875;0.6875;-0.75
2.0;0.4844970703125;-0.3262939453125;-0.63916015625;0.500244140625;10.70314441185736;12.530067495502532;4.41006184909662;-0.2744140625;0.849609375;0.2998046875;-2.0;-0.375;-0.4375
2.0;0.4844970703125;-0.3262939453125;-0.63916015625;0.500244140625;10.70314441185736;12.530067495502532;4.41006184909662;-0.26806640625;0.8447265625;0.31005859375;-1.0;-0.8125;-0.0625
2.0;0.48468017578125;-0.32647705078125;-0.6390380859375;0.5001220703125;10.703184739940017;12.531911054529136;4.41033869013893;-0.26513671875;0.8466796875;0.3056640625;0.25;-0.5;-0.3125
2.0;0.48468017578125;-0.32647705078125;-0.63897705078125;0.5001220703125;10.702967094328775;12.532091976985388;4.410566583042803;-0.265625;0.8544921875;0.291015625;1.3125;0.5;-0.6875
2.0;0.48443603515625;-0.32635498046875;-0.63916015625;0.50030517578125;10.701998973316783;12.529916088832005;4.409957496554305;-0.27392578125;0.8583984375;0.29150390625;-0.4375;0.125;-0.625
2.0;0.48443603515625;-0.3262939453125;-0.63916015625;0.50030517578125;10.702434800561;12.529725861706392;4.410071219703648;-0.2685546875;0.84716796875;0.30126953125;-1.9375;-0.25;-0.1875
2.0;0.48443603515625;-0.3262939453125;-0.63916015625;0.5003662109375;10.702088994539023;12.529612141054187;4.410261444332123;-0.2744140625;0.8427734375;0.30322265625;-0.25;0.0;0.1875
2.0;0.484375;-0.32666015625;-0.6390380859375;0.500244140625;10.699367055700336;12.53111479560664;4.409473305860135;-0.2744140625;0.8408203125;0.30810546875;0.125;-0.625;0.1875
2.0;0.48468017578125;-0.32708740234375;-0.63885498046875;0.5;10.698866767498071;12.534582821125385;4.409503103033831;-0.2685546875;0.84228515625;0.30029296875;1.8125;-0.75;0.625
2.0;0.4849853515625;-0.32757568359375;-0.6385498046875;0.49969482421875;10.697840795429201;12.538716541919008;4.409683713535283;-0.27001953125;0.84814453125;0.29638671875;3.4375;-0.1875;0.125
2.0;0.48529052734375;-0.32794189453125;-0.6383056640625;0.49951171875;10.697210468098632;12.542060877471839;4.410244345879193;-0.275390625;0.8447265625;0.29052734375;3.875;0.0;0.5625
2.0;0.4857177734375;-0.328125;-0.63812255859375;0.499267578125;10.699175816738062;12.545223987397659;4.411093023145587;-0.27001953125;0.8505859375;0.28564453125;2.5;0.125;0.1875
2.0;0.48577880859375;-0.327880859375;-0.63818359375;0.49920654296875;10.70184525341963;12.544625862681063;4.411314520210442;-0.26904296875;0.8505859375;0.27880859375;1.9375;1.0625;-1.0625
2.0;0.48614501953125;-0.3277587890625;-0.6380615234375;0.49908447265625;10.705148066346155;12.546204141432618;4.412707439803402;-0.27392578125;0.85009765625;0.29345703125;-0.875;0.75;-1.375
2.0;0.48663330078125;-0.3275146484375;-0.63800048828125;0.49884033203125;10.71095776332523;12.54790770352453;4.414086812622587;-0.26416015625;0.85009765625;0.2978515625;1.4375;1.8125;-1.6875
2.0;0.4873046875;-0.327392578125;-0.63775634765625;0.49859619140625;10.716322947863826;12.551221138541415;4.416468713355567;-0.279296875;0.84912109375;0.30126953125;1.6875;2.3125;-2.3125
2.0;0.488525390625;-0.3280029296875;-0.63714599609375;0.49786376953125;10.721168201789403;12.560868133495244;4.418972384219402;-0.27685546875;0.8330078125;0.2998046875;3.4375;3.0625;-1.5
2.0;0.48895263671875;-0.32818603515625;-0.63690185546875;0.49755859375;10.723246562877252;12.56433443428993;4.419871442927671;-0.291015625;0.8642578125;0.27392578125;7.75;2.5;-1.0625
2.0;0.4891357421875;-0.32855224609375;-0.63671875;0.4974365234375;10.721750994276377;12.56692721183399;4.420034150660108;-0.29248046875;0.85888671875;0.2734375;2.1875;0.5625;-0.125
2.0;0.4891357421875;-0.32855224609375;-0.63665771484375;0.4974365234375;10.721530828251247;12.567109569199038;4.420262078798853;-0.2724609375;0.85595703125;0.27685546875;1.4375;-0.125;0.375
2.0;0.48895263671875;-0.32843017578125;-0.6368408203125;0.49749755859375;10.7216328926902;12.56538638462062;4.419450253913594;-0.27734375;0.85791015625;0.26806640625;-0.5;-0.3125;-0.375
2.0;0.48870849609375;-0.32830810546875;-0.63714599609375;0.4974365234375;10.722509474615082;12.56330077729022;4.41762278972912;-0.27734375;0.85107421875;0.28662109375;-1.625;-0.6875;-0.4375
2.0;0.48876953125;-0.32867431640625;-0.6370849609375;0.4971923828125;10.72143149287109;12.565303628235867;4.416587811714592;-0.2861328125;0.83740234375;0.31005859375;0.0625;-1.4375;-0.0625
2.0;0.48883056640625;-0.3289794921875;-0.63690185546875;0.49713134765625;10.719304512346879;12.56713724040167;4.416689263308916;-0.28271484375;0.8447265625;0.2900390625;2.625;-1.125;0.5625
2.0;0.48907470703125;-0.329345703125;-0.63671875;0.4969482421875;10.718520587515389;12.570072927474119;4.416844703774541;-0.2783203125;0.84716796875;0.2861328125;1.8125;-0.3125;0.875
2.0;0.48907470703125;-0.32977294921875;-0.6363525390625;0.4970703125;10.713455377193043;12.572256430152736;4.417779739337367;-0.28857421875;0.85791015625;0.283203125;2.375;-0.1875;0.9375
2.0;0.48919677734375;-0.3302001953125;-0.6361083984375;0.49700927734375;10.710596867394448;12.574875836711687;4.418057025941372;-0.27099609375;0.8564453125;0.2822265625;1.625;0.0;2.0625
2.0;0.4893798828125;-0.3306884765625;-0.6358642578125;0.496826171875;10.708360854847959;12.57814191008277;4.418022796871872;-0.275390625;0.84619140625;0.2880859375;2.6875;-0.125;1.375
2.0;0.48944091796875;-0.33135986328125;-0.6356201171875;0.49658203125;10.704450697374483;12.58163400591917;4.417086111591113;-0.28076171875;0.84130859375;0.28369140625;3.4375;-0.4375;1.6875
2.0;0.48931884765625;-0.33172607421875;-0.63568115234375;0.49639892578125;10.70239354955241;12.582475238181637;4.415233261283497;-0.2734375;0.86376953125;0.2705078125;2.6875;-1.6875;0.9375
2.0;0.48944091796875;-0.3321533203125;-0.635498046875;0.4962158203125;10.700456700226963;12.585143030424307;4.414901917964824;-0.2734375;0.85546875;0.2802734375;1.25;-2.25;0.375
2.0;0.48944091796875;-0.3321533203125;-0.635498046875;0.4962158203125;10.700456700226963;12.585143030424307;4.414901917964824;-0.26904296875;0.85888671875;0.26806640625;1.4375;-0.6875;0.375
2.0;0.48919677734375;-0.33209228515625;-0.635498046875;0.49652099609375;10.697705018990185;12.583466644306178;4.41522978844193;-0.2734375;0.865234375;0.26806640625;-0.4375;-0.125;0.4375
2.0;0.48883056640625;-0.33209228515625;-0.63568115234375;0.4967041015625;10.695162047083471;12.58121038195933;4.414020469958138;-0.26611328125;0.85791015625;0.2763671875;-2.375;-0.1875;0.5
2.0;0.48858642578125;-0.33197021484375;-0.63592529296875;0.49664306640625;10.695822972355037;12.579312824228415;4.412427370170861;-0.267578125;0.853515625;0.2822265625;-2.0;-1.3125;0.4375
2.0;0.48858642578125;-0.33197021484375;-0.63592529296875;0.49664306640625;10.695822972355037;12.579312824228415;4.412427370170861;-0.26904296875;0.8388671875;0.28515625;-1.1875;-1.3125;-0.6875
2.0;0.48858642578125;-0.33197021484375;-0.63592529296875;0.49664306640625;10.695822972355037;12.579312824228415;4.412427370170861;-0.2734375;0.8466796875;0.2880859375;-0.5625;-0.3125;-0.3125
2.0;0.48858642578125;-0.33197021484375;-0.63592529296875;0.49664306640625;10.695822972355037;12.579312824228415;4.412427370170861;-0.271484375;0.8662109375;0.27880859375;-0.8125;-0.25;0.4375
2.0;0.48858642578125;-0.33197021484375;-0.63592529296875;0.49664306640625;10.695822972355037;12.579312824228415;4.412427370170861;-0.27099609375;0.85009765625;0.28564453125;-0.9375;-0.3125;0.375
2.0;0.4884033203125;-0.3319091796875;-0.63604736328125;0.4967041015625;10.695268827198287;12.577963373256964;4.41173143920186;-0.2802734375;0.853515625;0.2783203125;-0.4375;-0.5625;0.3125
2.0;0.48828125;-0.33209228515625;-0.63604736328125;0.49676513671875;10.692896535873576;12.577960048520252;4.411208368687585;-0.27783203125;0.8515625;0.28662109375;-1.125;-0.75;0.3125
2.0;0.48809814453125;-0.33233642578125;-0.6361083984375;0.4967041015625;10.690648039498537;12.577968516992705;4.409783310685047;-0.27392578125;0.84912109375;0.28173828125;0.3125;-1.0625;0.9375
2.0;0.48797607421875;-0.3326416015625;-0.6361083984375;0.49658203125;10.68845427238848;12.578690861595476;4.408462475519187;-0.27099609375;0.8427734375;0.28173828125;0.375;-1.625;0.75
2.0;0.48773193359375;-0.3330078125;-0.63604736328125;0.49664306640625;10.683837276531799;12.578984240363997;4.40745447833642;-0.27392578125;0.85400390625;0.28466796875;0.875;-1.625;0.75
2.0;0.48773193359375;-0.3330078125;-0.63604736328125;0.49664306640625;10.683837276531799;12.578984240363997;4.40745447833642;-0.265625;0.869140625;0.28515625;0.4375;-1.5;0.875
2.0;0.48773193359375;-0.33331298828125;-0.635986328125;0.49652099609375;10.68214572328533;12.580342401586552;4.4067237040244205;-0.2607421875;0.83642578125;0.28076171875;-0.375;-0.8125;0.3125
2.0;0.48773193359375;-0.33331298828125;-0.635986328125;0.49652099609375;10.68214572328533;12.580342401586552;4.4067237040244205;-0.26416015625;0.84716796875;0.283203125;1.5;-0.75;0.0625
2.0;0.48773193359375;-0.33331298828125;-0.635986328125;0.49652099609375;10.68214572328533;12.580342401586552;4.4067237040244205;-0.2666015625;0.85791015625;0.27880859375;0.25;-0.5625;-0.4375
2.0;0.4876708984375;-0.33349609375;-0.63604736328125;0.4964599609375;10.681054877473079;12.580616604616097;4.405778769391613;-0.267578125;0.84814453125;0.28076171875;0.1875;-0.8125;-0.1875
2.0;0.48779296875;-0.3338623046875;-0.63580322265625;0.496337890625;10.678988429519034;12.58316239390608;4.405974216711724;-0.275390625;0.8515625;0.291015625;1.0625;-0.9375;0.375
2.0;0.4876708984375;-0.334228515625;-0.6358642578125;0.4962158203125;10.676586980062755;12.583893280413118;4.4043100074201105;-0.2666015625;0.86083984375;0.28125;2.375;-0.0625;0.6875
2.0;0.48760986328125;-0.33465576171875;-0.6358642578125;0.49591064453125;10.67493967541063;12.585569853767854;4.402371019429817;-0.2666015625;0.8525390625;0.283203125;1.0625;-1.9375;0.3125
2.0;0.48760986328125;-0.334716796875;-0.63580322265625;0.49591064453125;10.674284694631583;12.585940893487981;4.402480830502609;-0.267578125;0.85595703125;0.2802734375;2.0625;-2.0625;0.125
2.0;0.48760986328125;-0.334716796875;-0.63580322265625;0.49591064453125;10.674284694631583;12.585940893487981;4.402480830502609;-0.2685546875;0.86083984375;0.2744140625;0.9375;-0.75;0.25
2.0;0.48760986328125;-0.334716796875;-0.63580322265625;0.49591064453125;10.674284694631583;12.585940893487981;4.402480830502609;-0.2685546875;0.85302734375;0.27783203125;0.75;0.0625;0.375
2.0;0.48760986328125;-0.334716796875;-0.63580322265625;0.49591064453125;10.674284694631583;12.585940893487981;4.402480830502609;-0.2685546875;0.85400390625;0.27587890625;0.125;-0.3125;-0.125
2.0;0.4876708984375;-0.334716796875;-0.63580322265625;0.49591064453125;10.674646459442984;12.586166790231108;4.4026629651063445;-0.26806640625;0.85888671875;0.27978515625;0.875;-0.5625;-0.4375
2.0;0.48736572265625;-0.33465576171875;-0.6361083984375;0.49578857421875;10.675078406500887;12.584169766923118;4.40036094635284;-0.27392578125;0.8544921875;0.2724609375;-0.6875;-0.3125;-0.5
2.0;0.48760986328125;-0.3350830078125;-0.635986328125;0.4954833984375;10.674798957049784;12.587340515803666;4.399784290297038;-0.271484375;0.83935546875;0.294921875;-0.25;-1.5625;-0.625
2.0;0.48760986328125;-0.33514404296875;-0.63592529296875;0.4954833984375;10.674144235460714;12.587711705892415;4.399893986512968;-0.267578125;0.86376953125;0.2802734375;3.0625;-0.625;-0.5
2.0;0.48779296875;-0.33502197265625;-0.63580322265625;0.49554443359375;10.675300685317568;12.588259661590957;4.401313470261033;-0.26806640625;0.8662109375;0.27294921875;0.5;-0.0625;-0.4375
2.0;0.48822021484375;-0.3349609375;-0.63543701171875;0.49560546875;10.67657916298084;12.590629448351784;4.4042496675776315;-0.26806640625;0.85546875;0.2802734375;-0.0625;1.5625;-0.1875
2.0;0.48846435546875;-0.33502197265625;-0.6351318359375;0.4957275390625;10.675778564466896;12.59240047386518;4.406369299000258;-0.2734375;0.86572265625;0.27783203125;1.375;2.5;0.125
2.0;0.488525390625;-0.3348388671875;-0.635009765625;0.4959716796875;10.67559531416531;12.591959523498545;4.408106961348192;-0.26708984375;0.8623046875;0.2734375;0.1875;1.8125;0.5625
2.0;0.48834228515625;-0.33428955078125;-0.63525390625;0.49627685546875;10.677555439406818;12.588273787945738;4.408646555511611;-0.26904296875;0.86328125;0.27783203125;-1.1875;1.625;0.375
2.0;0.488037109375;-0.33380126953125;-0.63568115234375;0.49627685546875;10.680771529421023;12.584358703662476;4.4070823674838815;-0.27099609375;0.84521484375;0.27734375;-3.8125;0.5625;-0.6875
2.0;0.48785400390625;-0.33367919921875;-0.635986328125;0.49615478515625;10.682361528462344;12.58262368320602;4.4052592068025245;-0.28076171875;0.84912109375;0.29931640625;-2.4375;-0.9375;-1.125
2.0;0.4879150390625;-0.333984375;-0.63604736328125;0.49578857421875;10.68287298060486;12.584307654709573;4.403502326814611;-0.2763671875;0.84912109375;0.29248046875;-0.4375;-1.375;-1.1875
2.0;0.48797607421875;-0.33404541015625;-0.63604736328125;0.49578857421875;10.682801589730456;12.584722655285244;4.403568642513536;-0.27783203125;0.8662109375;0.28125;1.9375;-1.5625;-0.625
2.0;0.48797607421875;-0.33392333984375;-0.63616943359375;0.49560546875;10.685158252524355;12.58432810456404;4.402781600693641;-0.275390625;0.85595703125;0.2763671875;0.0;-0.9375;-0.625
2.0;0.488037109375;-0.33392333984375;-0.6361083984375;0.49560546875;10.68529789700844;12.58473664812064;4.403190144250238;-0.2705078125;0.84375;0.267578125;-0.75;-0.4375;-1.125
2.0;0.48779296875;-0.33355712890625;-0.63629150390625;0.49591064453125;10.685370374131212;12.581572111140698;4.403421928870329;-0.27490234375;0.85791015625;0.27001953125;-0.5625;-0.0625;-0.8125
2.0;0.4876708984375;-0.33306884765625;-0.636474609375;0.49609375;10.687730710663338;12.578713783382355;4.403871331072018;-0.26318359375;0.84765625;0.28369140625;-3.375;0.4375;-0.6875
2.0;0.4874267578125;-0.332763671875;-0.63671875;0.49627685546875;10.688289112006752;12.575787357734397;4.403382179359253;-0.263671875;0.84814453125;0.287109375;-2.5;1.0625;-1.5625
2.0;0.48699951171875;-0.332275390625;-0.6375732421875;0.49591064453125;10.694401811193755;12.570829353247694;4.398723158358585;-0.2529296875;0.8388671875;0.2890625;-2.125;0.1875;-1.4375
2.0;0.48712158203125;-0.33245849609375;-0.6375732421875;0.49566650390625;10.695221247812404;12.572311048596703;4.397984708580666;-0.29052734375;0.8369140625;0.318359375;-1.5;-2.875;-2.75
2.0;0.48736572265625;-0.332763671875;-0.63751220703125;0.49530029296875;10.696377072439086;12.57503705344065;4.397228669343744;-0.27978515625;0.849609375;0.29736328125;2.4375;-0.75;-0.25
2.0;0.4876708984375;-0.33343505859375;-0.63702392578125;0.49517822265625;10.69235645701276;12.579940847504105;4.398304647463032;-0.28662109375;0.8466796875;0.296875;3.75;-0.5625;-0.0625
2.0;0.48809814453125;-0.3345947265625;-0.636474609375;0.4947509765625;10.687119660396252;12.58756817046958;4.398096731079127;-0.27978515625;0.857421875;0.291015625;5.0625;0.4375;2.625
2.0;0.48846435546875;-0.33544921875;-0.63616943359375;0.49420166015625;10.685272618135054;12.593524784840977;4.396999013228793;-0.26904296875;0.85302734375;0.27587890625;7.1875;-1.0625;2.0625
2.0;0.48870849609375;-0.3363037109375;-0.63568115234375;0.4940185546875;10.679938918422485;12.598880620805716;4.397342399327136;-0.283203125;0.8544921875;0.26318359375;5.3125;-1.8125;1.1875
2.0;0.48876953125;-0.33636474609375;-0.6356201171875;0.49395751953125;10.679995378885959;12.599594026438178;4.397445761709586;-0.25830078125;0.86083984375;0.24951171875;3.1875;-1.0;1.625
2.0;0.48828125;-0.3360595703125;-0.6358642578125;0.49432373046875;10.678055918083091;12.59541693404883;4.396795426435928;-0.279296875;0.88720703125;0.2509765625;-0.8125;0.1875;-0.625
