2.0;0.23468017578125;-0.45037841796875;-0.77130126953125;0.3836669921875;9.09412524644222;12.051847655013347;2.6724475299899706;0.2353515625;1.169921875;0.6337890625;161.5625;-119.5;-76.625
2.0;0.25689697265625;-0.42010498046875;-0.78155517578125;0.38311767578125;9.456854631523115;11.944382770005967;2.740394461347901;-0.10791015625;1.7880859375;0.84765625;57.4375;19.5625;-71.0
2.0;0.2808837890625;-0.3704833984375;-0.79364013671875;0.3924560546875;9.891901051076644;11.74621393280735;2.8633602341570077;-0.7578125;1.9931640625;0.7333984375;-117.8125;144.1875;-114.1875
2.0;0.30926513671875;-0.32940673828125;-0.79315185546875;0.40838623046875;10.279908989366982;11.632153096125823;3.041932096951725;-1.087890625;0.97998046875;0.275390625;-218.0625;211.9375;-102.5625
2.0;0.3358154296875;-0.295166015625;-0.78326416015625;0.43194580078125;10.572852797204535;11.57121691514064;3.2680596945284663;-0.7109375;0.95654296875;0.4013671875;-152.1875;250.9375;-46.8125
2.0;0.347412109375;-0.26446533203125;-0.774658203125;0.45745849609375;10.723474253665103;11.481151859939036;3.4570754568181488;-0.30078125;1.32861328125;0.19140625;-128.125;260.5;17.6875
2.0;0.34442138671875;-0.248291015625;-0.76837158203125;0.4788818359375;10.694681626073542;11.402514269141129;3.5732176634474113;-0.46337890625;0.92431640625;0.48388671875;-147.25;185.5;58.375
2.0;0.32952880859375;-0.25653076171875;-0.76422119140625;0.49151611328125;10.456528088578919;11.385683582015654;3.5982158794249277;-0.6025390625;0.2138671875;0.63671875;-107.5;70.8125;89.9375
2.0;0.310302734375;-0.2872314453125;-0.76348876953125;0.4881591796875;10.115098880495326;11.454837026321414;3.5146984339590652;-0.28564453125;-0.37109375;0.732421875;-10.25;-61.875;110.0625
2.0;0.2825927734375;-0.323974609375;-0.76690673828125;0.4765625;9.716036132348037;11.527715217672698;3.3549485246349118;0.12353515625;-0.1943359375;0.5751953125;97.25;-170.875;72.75
2.0;0.2528076171875;-0.35992431640625;-0.774169921875;0.4552001953125;9.36554660958198;11.604812572562757;3.134846054891379;0.13525390625;0.1044921875;0.49462890625;103.625;-246.6875;49.0625
2.0;0.232666015625;-0.39874267578125;-0.77935791015625;0.42364501953125;9.142162128511702;11.748799827254462;2.8897561129279787;0.2890625;0.0263671875;0.39404296875;103.1875;-277.5;-3.9375
2.0;0.228515625;-0.4332275390625;-0.77947998046875;0.39056396484375;9.102220860468787;11.932419767887314;2.6900591244914365;0.16650390625;0.23876953125;0.39501953125;158.125;-261.625;-57.875
2.0;0.24053955078125;-0.44732666015625;-0.7777099609375;0.3704833984375;9.244633469423016;12.05085963559458;2.6192890999397607;0.01171875;0.91064453125;0.40673828125;185.5625;-177.9375;-93.375
2.0;0.260986328125;-0.41912841796875;-0.79010009765625;0.36328125;9.61934758524307;11.948621901873315;2.6444793580607158;-0.15478515625;1.857421875;0.65185546875;115.1875;-26.1875;-96.1875
2.0;0.2894287109375;-0.36785888671875;-0.8045654296875;0.3656005859375;10.134605942768012;11.751821720948586;2.7399943340326502;-0.4501953125;1.99267578125;0.794921875;-110.5625;113.0;-146.625
2.0;0.32220458984375;-0.32513427734375;-0.80572509765625;0.37591552734375;10.594779534717455;11.641390182347648;2.8991711314663955;-1.095703125;0.97705078125;0.3779296875;-215.25;211.0;-152.5
2.0;0.351806640625;-0.2861328125;-0.79833984375;0.39630126953125;10.956762204621398;11.566541724260436;3.1136884070372854;-0.86279296875;0.9306640625;0.32421875;-153.0625;254.125;-87.5
2.0;0.362548828125;-0.24444580078125;-0.79327392578125;0.4237060546875;11.159556725128924;11.418806969706754;3.300401750489023;-0.5732421875;1.57373046875;0.314453125;-152.5;268.4375;-18.3125
2.0;0.358642578125;-0.21844482421875;-0.78863525390625;0.4490966796875;11.168352193343372;11.292263877283256;3.429000531779475;-0.599609375;1.0439453125;0.47021484375;-219.0;195.6875;35.875
2.0;0.35101318359375;-0.2237548828125;-0.7821044921875;0.4637451171875;10.996947668752117;11.29761214229158;3.493444316438933;-0.626953125;0.158203125;0.66455078125;-168.0625;88.25;84.4375
2.0;0.33843994140625;-0.254150390625;-0.77862548828125;0.4632568359375;10.695152600496609;11.393248983877161;3.4535132743165216;-0.4306640625;-0.369140625;0.43115234375;-8.5;-18.75;110.5
2.0;0.319091796875;-0.2945556640625;-0.77923583984375;0.45196533203125;10.335730158228921;11.509750228614202;3.3253456916454356;-0.078125;-0.3798828125;0.24609375;115.3125;-130.125;87.5
2.0;0.2923583984375;-0.33489990234375;-0.781982421875;0.4368896484375;9.947455502417494;11.609297293368327;3.151594651798091;0.1484375;0.14111328125;0.0478515625;149.5625;-209.625;52.0
2.0;0.27069091796875;-0.3759765625;-0.7828369140625;0.4154052734375;9.639864148870972;11.747379591363154;2.9617113632601026;0.27294921875;0.17333984375;0.04296875;132.5;-251.8125;40.4375
2.0;0.26043701171875;-0.41650390625;-0.77838134765625;0.39105224609375;9.45702238167597;11.936425099770021;2.7960751521217326;0.39306640625;0.2119140625;0.1357421875;164.4375;-238.5625;6.0
2.0;0.25946044921875;-0.451416015625;-0.76861572265625;0.37164306640625;9.363042370239981;12.13477278620211;2.691078700414901;0.16015625;0.541015625;0.10546875;201.875;-186.5;-16.875
2.0;0.25787353515625;-0.46875;-0.76666259765625;0.35504150390625;9.358615582399128;12.23164094515708;2.598333579876555;-0.26953125;1.06982421875;0.1640625;199.8125;-116.4375;-7.4375
2.0;0.25897216796875;-0.4798583984375;-0.76617431640625;0.340087890625;9.403964078340747;12.301192668551828;2.524797848897611;-0.3984375;1.15087890625;0.36376953125;90.75;-94.875;-19.1875
2.0;0.26885986328125;-0.5001220703125;-0.75408935546875;0.33013916015625;9.431645867543539;12.456565461762382;2.513105304196675;-0.2939453125;0.6015625;0.38037109375;81.3125;-63.8125;-35.5625
2.0;0.27972412109375;-0.5150146484375;-0.7430419921875;0.3231201171875;9.475355518740582;12.584640436679294;2.521993661868731;-0.19091796875;0.9072265625;0.13916015625;153.0;-6.625;-15.3125
2.0;0.28546142578125;-0.520263671875;-0.73876953125;0.3194580078125;9.512770646528438;12.636543415193213;2.5273000524439944;-0.17041015625;1.33740234375;-0.03173828125;119.5625;14.625;-16.6875
2.0;0.28765869140625;-0.5164794921875;-0.7413330078125;0.31781005859375;9.563607496539518;12.61955273228876;2.5267779188877943;-0.03466796875;1.28369140625;0.12255859375;32.9375;10.75;-22.1875
2.0;0.29400634765625;-0.512939453125;-0.74420166015625;0.3109130859375;9.68133284794978;12.617859889255852;2.5166944151422665;0.06884765625;0.89111328125;0.375;-10.9375;11.125;-35.1875
2.0;0.31146240234375;-0.5235595703125;-0.7335205078125;0.30145263671875;9.812101264106644;12.745306700762061;2.545364620079201;-0.03466796875;0.5791015625;0.5849609375;26.125;12.1875;-61.6875
2.0;0.3282470703125;-0.53887939453125;-0.71630859375;0.2978515625;9.858332721111225;12.905616474545669;2.606277050344875;-0.23193359375;0.736328125;0.26953125;124.6875;45.1875;-52.5625
2.0;0.34356689453125;-0.5460205078125;-0.70526123046875;0.29412841796875;9.940402121041796;13.010611020238732;2.660142370738717;-0.18505859375;1.23291015625;0.11328125;149.0;63.625;-8.6875
2.0;0.35284423828125;-0.53607177734375;-0.70855712890625;0.29345703125;10.068356237951457;12.983257856819472;2.6957129699818765;-0.1474609375;1.48681640625;0.109375;86.1875;59.5;-37.375
2.0;0.36236572265625;-0.52227783203125;-0.71484375;0.29144287109375;10.233554040558529;12.933712324243679;2.7242144459987583;-0.24755859375;1.212890625;0.3232421875;-26.5;46.8125;-55.75
2.0;0.3751220703125;-0.51763916015625;-0.71209716796875;0.290283203125;10.351616233116763;12.958542886408035;2.7774117088113934;-0.302734375;0.859375;0.44970703125;-36.5625;45.3125;-68.8125
2.0;0.39117431640625;-0.52154541015625;-0.7010498046875;0.28900146484375;10.430039723676414;13.054861639328807;2.8529317525558078;-0.26904296875;0.728515625;0.40185546875;30.8125;65.375;-41.9375
2.0;0.4072265625;-0.5257568359375;-0.68914794921875;0.2877197265625;10.499575610805701;13.156754426724572;2.9318000008250324;-0.31005859375;0.92529296875;0.28173828125;87.125;80.375;-21.5
2.0;0.42327880859375;-0.52056884765625;-0.6842041015625;0.285888671875;10.635344196827752;13.201775015908755;3.0053521904159424;-0.279296875;1.10205078125;0.181640625;85.375;81.5;-25.3125
2.0;0.43145751953125;-0.5064697265625;-0.6884765625;0.2886962890625;10.755739924969067;13.15458654503618;3.0541906710673494;-0.53564453125;1.4892578125;0.14697265625;24.75;76.9375;-52.75
2.0;0.43902587890625;-0.49334716796875;-0.6922607421875;0.29095458984375;10.870845797480635;13.112449078287206;3.0981311080736216;-0.3544921875;1.07177734375;0.16845703125;-58.9375;53.875;-53.875
2.0;0.4486083984375;-0.48944091796875;-0.68939208984375;0.28973388671875;10.956742277214971;13.139052415073392;3.1437073168436713;-0.4326171875;0.82763671875;0.27978515625;-44.625;51.125;-42.3125
2.0;0.45867919921875;-0.4903564453125;-0.68231201171875;0.28924560546875;11.00134714342987;13.19952285842613;3.1998963815866768;-0.46826171875;0.80322265625;0.24169921875;20.875;49.9375;-25.0
2.0;0.46685791015625;-0.490234375;-0.67620849609375;0.2906494140625;11.026768393349144;13.244825712673522;3.254397966441564;-0.45361328125;0.95703125;0.130859375;43.4375;55.0;-9.4375
2.0;0.4744873046875;-0.490478515625;-0.6697998046875;0.29266357421875;11.039777879755054;13.290211015950046;3.3094222283612567;-0.4287109375;0.95751953125;0.1025390625;27.6875;52.25;-2.9375
2.0;0.48089599609375;-0.48773193359375;-0.666748046875;0.2938232421875;11.077192689941784;13.310694483647342;3.351668968105946;-0.38818359375;0.908203125;0.05224609375;25.25;51.375;0.875
2.0;0.48779296875;-0.4903564453125;-0.6610107421875;0.29107666015625;11.106282296830903;13.367126647413428;3.3830255333321135;-0.4560546875;0.80126953125;0.05859375;6.0625;40.0625;-6.125
2.0;0.4951171875;-0.49798583984375;-0.652587890625;0.28472900390625;11.126036609723437;13.457547656274937;3.4049306445111696;-0.44873046875;0.6435546875;0.0615234375;47.375;30.125;0.25
2.0;0.49810791015625;-0.50469970703125;-0.64581298828125;0.28314208984375;11.094907752415962;13.517144672654366;3.4209970008443213;-0.5009765625;0.859375;-0.01171875;80.8125;19.625;1.6875
2.0;0.49853515625;-0.5098876953125;-0.64166259765625;0.28253173828125;11.058743998426243;13.551923759199743;3.4242338818144176;-0.4033203125;1.14111328125;-0.20703125;40.625;9.9375;13.5625
2.0;0.50079345703125;-0.51666259765625;-0.63665771484375;0.27728271484375;11.055836175948135;13.608696139802733;3.4202332030837748;-0.3291015625;0.8017578125;-0.1787109375;22.9375;-0.8125;19.5
2.0;0.50469970703125;-0.525146484375;-0.62945556640625;0.27069091796875;11.055285747008234;13.686804941576952;3.422274192818875;-0.388671875;0.818359375;-0.11181640625;52.75;-5.5625;7.0
2.0;0.50604248046875;-0.52947998046875;-0.62664794921875;0.26629638671875;11.062275509067659;13.723136508618458;3.415064352501214;-0.40478515625;1.06005859375;-0.22705078125;67.0;-1.9375;0.625
2.0;0.505859375;-0.5306396484375;-0.6275634765625;0.26226806640625;11.088816673788127;13.729743617088861;3.3976287762810866;-0.3662109375;1.00341796875;-0.2314453125;28.6875;-10.9375;-3.9375
2.0;0.50732421875;-0.5321044921875;-0.6273193359375;0.2568359375;11.129554707752172;13.74942441610198;3.385754637496987;-0.38232421875;0.84814453125;-0.10986328125;10.0625;-18.1875;-8.3125
2.0;0.5101318359375;-0.53216552734375;-0.62701416015625;0.25177001953125;11.182447630723473;13.768571334760399;3.3834135482768826;-0.419921875;0.85791015625;-0.10693359375;22.0;-12.9375;-13.9375
2.0;0.51153564453125;-0.53076171875;-0.62811279296875;0.24920654296875;11.221376411801822;13.768828257083044;3.3810990933966703;-0.47216796875;0.87939453125;-0.14453125;15.6875;-5.6875;-18.25
2.0;0.5111083984375;-0.52783203125;-0.63104248046875;0.2490234375;11.246704693385984;13.747091578685307;3.375281861808026;-0.451171875;0.9326171875;-0.16943359375;-4.125;-5.4375;-14.875
2.0;0.5103759765625;-0.5244140625;-0.6341552734375;0.24969482421875;11.267047066440652;13.720629841895787;3.3709062846674063;-0.38916015625;0.9443359375;-0.15625;-24.3125;-8.875;-12.3125
2.0;0.50848388671875;-0.5189208984375;-0.638916015625;0.25286865234375;11.278802031093722;13.673118731733638;3.3676485019106206;-0.33544921875;0.90771484375;-0.16357421875;-31.0625;-7.5;-12.9375
2.0;0.5067138671875;-0.513671875;-0.6434326171875;0.2557373046875;11.291298235094935;13.628212595861887;3.3641975719606276;-0.36083984375;0.85302734375;-0.0927734375;-48.75;-4.5625;-5.5
2.0;0.50628662109375;-0.50897216796875;-0.6470947265625;0.25665283203125;11.320237232482555;13.595946738573074;3.3619566300845674;-0.36376953125;0.8134765625;-0.03173828125;-43.25;-3.125;-4.6875
2.0;0.50640869140625;-0.50518798828125;-0.64959716796875;0.257568359375;11.343380709284423;13.572905022946864;3.3638838288581403;-0.41845703125;0.86181640625;-0.06005859375;-33.4375;-3.5;-11.1875
2.0;0.5042724609375;-0.50311279296875;-0.65179443359375;0.26031494140625;11.329237378606917;13.546204070221727;3.3601131680144443;-0.41015625;0.81103515625;-0.04736328125;-25.5;0.4375;-8.0625
2.0;0.5008544921875;-0.5015869140625;-0.6544189453125;0.26318359375;11.304963820221005;13.515302199159663;3.3493084137128717;-0.373046875;0.89892578125;-0.02783203125;-26.375;-3.5625;6.375
2.0;0.4986572265625;-0.502197265625;-0.65509033203125;0.26458740234375;11.280379643496799;13.505318100239963;3.3416040597849985;-0.40576171875;0.80859375;-0.03271484375;-28.1875;-10.375;16.0625
2.0;0.49658203125;-0.50164794921875;-0.656005859375;0.2672119140625;11.25464658684491;13.48913862756511;3.339428005215188;-0.40869140625;0.806640625;-0.0869140625;-12.5625;-9.375;16.6875
2.0;0.493896484375;-0.5009765625;-0.65765380859375;0.2694091796875;11.231448336077193;13.46847949466976;3.331472262489993;-0.40478515625;0.8544921875;-0.05908203125;-19.5;-4.125;16.1875
2.0;0.490966796875;-0.50067138671875;-0.65948486328125;0.2708740234375;11.210639089966994;13.448753234862002;3.3191630062140156;-0.3662109375;0.89013671875;-0.04833984375;-21.3125;-8.6875;11.5
2.0;0.48760986328125;-0.5;-0.66204833984375;0.27203369140625;11.193666007373174;13.42418599956025;3.302613793048983;-0.38134765625;0.83203125;-0.0556640625;-19.8125;-13.4375;13.125
2.0;0.48406982421875;-0.49908447265625;-0.664794921875;0.27325439453125;11.176801509298667;13.397532321563073;3.285458942807774;-0.42236328125;0.85302734375;0.0;-19.9375;-16.5;13.0
2.0;0.48095703125;-0.49896240234375;-0.66632080078125;0.2752685546875;11.148339869568797;13.378443264478584;3.275144228363036;-0.44189453125;0.859375;0.0458984375;-19.375;-15.75;14.375
2.0;0.47784423828125;-0.5013427734375;-0.6661376953125;0.27679443359375;11.104309450505067;13.375113484727297;3.264592593339748;-0.427734375;0.8359375;0.0224609375;-15.9375;-10.875;20.1875
2.0;0.47607421875;-0.50360107421875;-0.6654052734375;0.27740478515625;11.074255860164278;13.379091156094152;3.258234988795686;-0.32861328125;0.83740234375;0.048828125;1.125;-10.5;22.0
2.0;0.4739990234375;-0.5050048828125;-0.66546630859375;0.2783203125;11.04720319093168;13.375803256693725;3.250654166149545;-0.35986328125;0.8916015625;0.0126953125;4.4375;-7.4375;16.375
2.0;0.47235107421875;-0.50494384765625;-0.666259765625;0.27935791015625;11.032150379572167;13.365968149631058;3.2453148497697724;-0.34423828125;0.91259765625;-0.0224609375;-4.8125;-9.1875;13.1875
2.0;0.470458984375;-0.50494384765625;-0.6669921875;0.28070068359375;11.01280017695284;13.355397687821892;3.2401401240590784;-0.3525390625;0.85302734375;0.017578125;-9.25;-6.0625;9.625
2.0;0.46893310546875;-0.50579833984375;-0.6669921875;0.2818603515625;10.99013703902937;13.351889893587016;3.2366534789554007;-0.34375;0.86376953125;0.052734375;-8.25;-5.1875;11.3125
2.0;0.467529296875;-0.50701904296875;-0.66680908203125;0.28240966796875;10.97013477547183;13.351635503562227;3.231614469040038;-0.33642578125;0.8427734375;0.044921875;-2.0625;-3.9375;13.1875
2.0;0.4664306640625;-0.50732421875;-0.66717529296875;0.2828369140625;10.9595862772645;13.347330434502226;3.2271977519191286;-0.33740234375;0.84521484375;-0.00341796875;-1.8125;-6.4375;11.875
2.0;0.4647216796875;-0.50634765625;-0.6683349609375;0.2845458984375;10.945241090752475;13.3319382294272;3.22434931110424;-0.33935546875;0.9091796875;-0.0390625;-8.6875;-6.75;6.0
2.0;0.46337890625;-0.5040283203125;-0.67041015625;0.28607177734375;10.94457503620265;13.309921990104641;3.2217582494792922;-0.34375;0.92822265625;0.02197265625;-16.5625;-3.8125;7.75
2.0;0.461181640625;-0.50323486328125;-0.67181396484375;0.28778076171875;10.926790514702583;13.292810767510918;3.216111443935863;-0.42529296875;0.88232421875;0.03076171875;-23.0625;-3.6875;7.625
2.0;0.45965576171875;-0.5015869140625;-0.67340087890625;0.28936767578125;10.919318831642167;13.274312422498117;3.2134650249267196;-0.33251953125;0.89111328125;0.06201171875;-15.375;-5.9375;9.75
2.0;0.45849609375;-0.50054931640625;-0.67388916015625;0.291748046875;10.901881779448063;13.261933004766409;3.2171872593354416;-0.341796875;0.9130859375;0.04736328125;-19.4375;-3.5625;5.3125
2.0;0.4578857421875;-0.49920654296875;-0.67401123046875;0.29473876953125;10.884202682448104;13.250583682438343;3.2266255222537623;-0.326171875;0.8798828125;0.0302734375;-16.5;1.5625;10.1875
2.0;0.4569091796875;-0.49700927734375;-0.6749267578125;0.2978515625;10.8704185040657;13.232074848615325;3.2341148899109613;-0.3212890625;0.90380859375;0.06201171875;-15.375;7.5625;10.4375
2.0;0.4561767578125;-0.494140625;-0.67633056640625;0.30059814453125;10.86604835800505;13.210726386718694;3.240925673115731;-0.3232421875;0.8505859375;0.046875;-23.3125;5.8125;9.625
2.0;0.453857421875;-0.4891357421875;-0.679931640625;0.3040771484375;10.864543332073492;13.168101323709923;3.2410863980208786;-0.32421875;0.91796875;0.0595703125;-25.5;5.1875;3.5625
2.0;0.450927734375;-0.4852294921875;-0.68304443359375;0.3077392578125;10.850258283639418;13.12900348853505;3.239423026620154;-0.35888671875;0.865234375;0.1201171875;-41.4375;-0.0625;5.0
2.0;0.44866943359375;-0.48199462890625;-0.6859130859375;0.30963134765625;10.848305867338762;13.097758379640844;3.233938458212441;-0.3310546875;0.85205078125;0.1494140625;-36.25;-1.9375;9.75
2.0;0.447265625;-0.4814453125;-0.6865234375;0.311279296875;10.832305659912905;13.08704409236466;3.2334848932645075;-0.3671875;0.75537109375;0.13037109375;-28.0;-5.875;7.9375
2.0;0.45355224609375;-0.478759765625;-0.68023681640625;0.31988525390625;10.810498017846069;13.106543729026626;3.3088687770257557;-0.255859375;0.93505859375;-0.0029296875;-0.6875;20.0;6.1875
2.0;0.454345703125;-0.46923828125;-0.68389892578125;0.32513427734375;10.843979846219671;13.0548719641314;3.333334757558831;-0.37744140625;1.015625;-0.09033203125;-27.875;41.6875;13.75
2.0;0.452392578125;-0.4619140625;-0.688232421875;0.3292236328125;10.857418847528095;13.001801885089732;3.3382549590392223;-0.48193359375;0.77294921875;0.0166015625;-66.0;20.8125;1.75
2.0;0.4483642578125;-0.45574951171875;-0.69207763671875;0.33514404296875;10.836760429323029;12.945506399275093;3.3418285385251023;-0.41064453125;0.9541015625;0.15478515625;-55.5;4.5625;-0.5625
2.0;0.4471435546875;-0.45452880859375;-0.6917724609375;0.3389892578125;10.808836888207468;12.932948611415881;3.3536821759753797;-0.29638671875;0.66552734375;0.2060546875;-52.625;2.25;15.25
2.0;0.44927978515625;-0.45172119140625;-0.6903076171875;0.34283447265625;10.809312453265175;12.929143324163972;3.3833434267940965;-0.17529296875;0.89599609375;0.12353515625;-19.875;8.625;8.0
2.0;0.45196533203125;-0.44964599609375;-0.688232421875;0.34625244140625;10.810320548750196;12.932380148811104;3.414237015061984;-0.4033203125;0.95556640625;0.05322265625;-22.1875;23.5625;11.0
2.0;0.45281982421875;-0.44677734375;-0.6878662109375;0.34954833984375;10.80965040321078;12.921363882471654;3.4341677111035684;-0.4580078125;0.8935546875;0.0908203125;-12.125;24.8125;15.6875
2.0;0.45355224609375;-0.4454345703125;-0.68701171875;0.35198974609375;10.803594194906006;12.918270858496435;3.449900558911567;-0.44482421875;0.79345703125;0.134765625;-19.25;15.3125;15.9375
2.0;0.45501708984375;-0.44403076171875;-0.685302734375;0.355224609375;10.794951701069678;12.919004122699809;3.4736932404404044;-0.34033203125;0.7890625;0.09619140625;-12.375;11.5625;11.125
2.0;0.45556640625;-0.442626953125;-0.68310546875;0.36053466796875;10.76505972630481;12.91529713021266;3.5029379806309;-0.38818359375;0.92333984375;0.0869140625;-13.1875;18.0;14.3125
2.0;0.45770263671875;-0.444580078125;-0.677734375;0.36541748046875;10.718679346316726;12.939541075020909;3.5407206267663316;-0.31689453125;0.86279296875;0.1083984375;-17.25;22.1875;22.3125
2.0;0.46124267578125;-0.44671630859375;-0.671630859375;0.36962890625;10.681767560744605;12.97204883324353;3.5827746010864505;-0.2373046875;0.9111328125;0.13671875;10.0625;30.4375;26.8125
2.0;0.4630126953125;-0.444580078125;-0.67047119140625;0.37213134765625;10.685650531262228;12.97022704752691;3.6045079085686993;-0.28271484375;0.89404296875;0.02685546875;10.9375;32.875;25.9375
2.0;0.462158203125;-0.4405517578125;-0.671875;0.3753662109375;10.687537612290026;12.943750392787026;3.614769599319875;-0.4072265625;0.90478515625;0.10498046875;-12.3125;18.125;10.625
2.0;0.46148681640625;-0.437744140625;-0.671142578125;0.3807373046875;10.66258463785077;12.925691486792717;3.6375568838041454;-0.3515625;0.94287109375;0.15673828125;-31.375;8.25;4.625
2.0;0.46209716796875;-0.43780517578125;-0.66705322265625;0.38720703125;10.610613738526158;12.930715881238172;3.6741404909849016;-0.28515625;0.8818359375;0.1474609375;-26.9375;18.125;17.5625
2.0;0.46331787109375;-0.439208984375;-0.6612548828125;0.39385986328125;10.547285111904102;12.94718028068132;3.716256475654486;-0.24072265625;0.93212890625;0.1591796875;-7.1875;29.0625;30.3125
2.0;0.46435546875;-0.43994140625;-0.65692138671875;0.39910888671875;10.50059256518977;12.957988115321633;3.749431444297254;-0.20849609375;0.93798828125;0.12255859375;1.0;33.1875;35.1875
2.0;0.46441650390625;-0.43896484375;-0.65484619140625;0.40350341796875;10.471387891838706;12.953885899593924;3.7724172763899966;-0.2353515625;0.771484375;0.13330078125;1.0625;26.375;30.5625
2.0;0.46405029296875;-0.436279296875;-0.6539306640625;0.40826416015625;10.451788672981957;12.938211845668757;3.794666176583014;-0.2373046875;0.82275390625;0.16552734375;-9.5625;18.8125;19.5
2.0;0.4627685546875;-0.43328857421875;-0.6533203125;0.4139404296875;10.423763945706618;12.915879518302708;3.8165634132118433;-0.25439453125;0.8642578125;0.1689453125;-21.375;18.8125;15.625
2.0;0.46240234375;-0.4322509765625;-0.6505126953125;0.4197998046875;10.380783168013949;12.909565031053196;3.8454658131903408;-0.2294921875;0.8447265625;0.1923828125;-26.5625;18.25;18.625
2.0;0.46234130859375;-0.43310546875;-0.646728515625;0.42474365234375;10.330295453793921;12.915065348189028;3.8718680939596455;-0.19580078125;0.89208984375;0.1640625;-15.125;23.0;24.875
2.0;0.46337890625;-0.435791015625;-0.64166259765625;0.4285888671875;10.277386824831224;12.935962095445507;3.8986198902288214;-0.19677734375;0.85986328125;0.15478515625;-1.9375;19.75;29.0625
2.0;0.46484375;-0.4385986328125;-0.6361083984375;0.432373046875;10.22454143895496;12.959974438117127;3.9275755733840376;-0.205078125;0.8876953125;0.1416015625;12.125;19.625;31.0
2.0;0.46563720703125;-0.44012451171875;-0.6324462890625;0.43536376953125;10.187286124950266;12.973049308249296;3.948208872468798;-0.17822265625;0.89697265625;0.08251953125;11.8125;21.625;30.375
2.0;0.46441650390625;-0.4407958984375;-0.63055419921875;0.438720703125;10.147237313293061;12.970582494160022;3.959723775257555;-0.240234375;0.896484375;0.1318359375;6.5625;15.375;24.9375
2.0;0.4615478515625;-0.44061279296875;-0.63037109375;0.44207763671875;10.108874406511745;12.95477578811288;3.9624621932743653;-0.21142578125;0.9140625;0.1796875;-4.25;7.0625;23.5625
2.0;0.45904541015625;-0.439453125;-0.6314697265625;0.4443359375;10.090675528683466;12.935195630470101;3.96084980705223;-0.1484375;0.83447265625;0.2158203125;-12.6875;0.0625;18.125
2.0;0.4573974609375;-0.43707275390625;-0.63287353515625;0.44635009765625;10.088125186678088;12.9138960830764;3.962649082570625;-0.12939453125;0.87109375;0.25048828125;-14.125;-1.8125;5.5
2.0;0.4569091796875;-0.4361572265625;-0.6319580078125;0.44903564453125;10.070742661246275;12.906816580419344;3.9745791690419883;-0.2119140625;0.84765625;0.20361328125;-19.75;1.375;4.625
2.0;0.45648193359375;-0.43408203125;-0.63140869140625;0.4522705078125;10.059135726403396;12.893898936043652;3.9896830006355897;-0.15087890625;0.82470703125;0.20458984375;-7.125;10.0625;10.3125
2.0;0.45562744140625;-0.43267822265625;-0.6312255859375;0.4547119140625;10.046976869835405;12.882271510153078;3.9984109131053316;-0.12890625;0.83642578125;0.185546875;-15.5625;13.8125;6.875
2.0;0.4549560546875;-0.42987060546875;-0.63104248046875;0.458251953125;10.038246554889284;12.864424501809328;4.014126488680268;-0.14208984375;0.9599609375;0.0556640625;-23.4375;5.6875;4.9375
2.0;0.453125;-0.42486572265625;-0.63238525390625;0.462890625;10.035602901218905;12.828891400314813;4.029513729305382;-0.08740234375;0.87841796875;0.21533203125;-19.75;15.3125;2.3125
2.0;0.45263671875;-0.41790771484375;-0.63525390625;0.46575927734375;10.070711097480025;12.790257482439317;4.04211427855415;-0.07080078125;0.83349609375;0.1884765625;-39.0;15.9375;-1.125
2.0;0.4517822265625;-0.4105224609375;-0.63861083984375;0.46856689453125;10.108755243655452;12.747729748907965;4.052442347258129;-0.22216796875;0.7958984375;0.2451171875;-37.9375;15.5625;-9.6875
2.0;0.45196533203125;-0.40496826171875;-0.64056396484375;0.47052001953125;10.14163684508307;12.720471560168887;4.0638345964139395;-0.2294921875;0.78759765625;0.28515625;-39.6875;14.375;-11.375
2.0;0.45361328125;-0.40234375;-0.6396484375;0.47247314453125;10.154324641595675;12.716211141583884;4.083243164503827;-0.20458984375;0.8115234375;0.24169921875;-28.5625;14.625;-10.4375
2.0;0.45477294921875;-0.40130615234375;-0.6380615234375;0.474365234375;10.151432235167215;12.717664183678078;4.100133596789532;-0.17626953125;0.90234375;0.2041015625;-11.4375;19.5625;-2.0625
2.0;0.453857421875;-0.39990234375;-0.63958740234375;0.474365234375;10.160496842716137;12.705528142934218;4.095107239156952;-0.19384765625;0.94189453125;0.2236328125;-4.5;15.0;5.3125
2.0;0.45013427734375;-0.4007568359375;-0.6416015625;0.47442626953125;10.138276812631439;12.689959113615295;4.076001076106417;-0.32275390625;0.89501953125;0.33642578125;-5.75;-4.75;3.25
2.0;0.4476318359375;-0.402587890625;-0.64263916015625;0.473876953125;10.117335104810412;12.685767936095322;4.0598727467693365;-0.15869140625;0.92236328125;0.46630859375;1.3125;-17.9375;3.1875
2.0;0.44476318359375;-0.40423583984375;-0.6414794921875;0.47674560546875;10.067145243673226;12.679689722095281;4.061588660802124;-0.24365234375;1.07958984375;0.42919921875;6.625;-16.75;6.875
2.0;0.44305419921875;-0.40625;-0.6392822265625;0.47955322265625;10.0185652205255;12.681734597437405;4.069189103959433;-0.1494140625;0.9921875;0.34716796875;-2.8125;-4.0625;21.625
2.0;0.44110107421875;-0.409423828125;-0.636474609375;0.4822998046875;9.958926574644554;12.688648495698807;4.075548225659405;-0.181640625;0.91015625;0.29638671875;2.5;0.5625;26.25
2.0;0.4390869140625;-0.412109375;-0.63458251953125;0.48443603515625;9.90903496377889;12.692255356427838;4.0776403617345744;-0.1298828125;0.89990234375;0.2333984375;3.9375;-2.1875;28.375
2.0;0.43743896484375;-0.41485595703125;-0.63238525390625;0.4864501953125;9.860640639139264;12.698335652228629;4.081196721002608;-0.134765625;0.85498046875;0.20751953125;0.5625;-5.125;24.0625
2.0;0.434814453125;-0.41668701171875;-0.63104248046875;0.48895263671875;9.812279185386915;12.694788128626069;4.0826627210734205;-0.1015625;0.88427734375;0.21630859375;2.875;-3.375;21.625
2.0;0.43212890625;-0.41778564453125;-0.63079833984375;0.49072265625;9.776667142210972;12.686975223700305;4.079517838126501;-0.091796875;0.86767578125;0.2412109375;-4.1875;-4.6875;21.0625
2.0;0.4293212890625;-0.417236328125;-0.63165283203125;0.49249267578125;9.755053449472252;12.670187219963566;4.0759145028362385;-0.08251953125;0.859375;0.2646484375;-6.4375;-6.9375;13.8125
2.0;0.4266357421875;-0.41552734375;-0.6328125;0.49481201171875;9.739728894592993;12.647947315638298;4.075927163018351;-0.1025390625;0.8701171875;0.25341796875;-16.875;-6.375;8.0625
2.0;0.42474365234375;-0.4130859375;-0.6339111328125;0.4970703125;9.734466841838861;12.62607315597005;4.079657617116958;-0.078125;0.84521484375;0.26123046875;-22.0;-1.4375;4.75
2.0;0.42169189453125;-0.40936279296875;-0.63604736328125;0.5;9.730057449801183;12.591932355102259;4.081700940962289;-0.11328125;0.88818359375;0.22509765625;-25.9375;2.4375;3.1875
2.0;0.41790771484375;-0.40496826171875;-0.638671875;0.50341796875;9.724301528572726;12.550848189429578;4.083180326376102;-0.11376953125;0.90576171875;0.25244140625;-37.5;0.8125;2.0625
2.0;0.413818359375;-0.40130615234375;-0.64111328125;0.50665283203125;9.712076817551011;12.512145854560933;4.082417444069264;-0.12890625;0.87255859375;0.25732421875;-44.0;0.0625;4.0
2.0;0.4091796875;-0.39874267578125;-0.6429443359375;0.51007080078125;9.68568246944436;12.47674771344996;4.0807624920350465;-0.12841796875;0.876953125;0.291015625;-40.25;-3.125;6.1875
2.0;0.405029296875;-0.3980712890625;-0.64385986328125;0.5128173828125;9.650461108940242;12.453241907907772;4.077562039368738;-0.10009765625;0.869140625;0.32861328125;-35.0;-6.0625;10.9375
2.0;0.40130615234375;-0.39898681640625;-0.643798828125;0.51507568359375;9.606762768518946;12.440191624536652;4.074027169402778;-0.115234375;0.865234375;0.31787109375;-24.125;-9.5;16.1875
2.0;0.39801025390625;-0.400634765625;-0.64373779296875;0.51641845703125;9.566071387089737;12.43288702694796;4.067090421678919;-0.08935546875;0.83203125;0.32421875;-12.5;-10.875;18.5625
2.0;0.39508056640625;-0.40283203125;-0.6436767578125;0.51702880859375;9.528194131642538;12.430159086111983;4.057526362714853;-0.0810546875;0.81494140625;0.32080078125;-6.3125;-13.75;16.25
2.0;0.3929443359375;-0.4053955078125;-0.64349365234375;0.516845703125;9.497169580159076;12.433175143394813;4.046929431168876;-0.0732421875;0.84765625;0.34326171875;-1.3125;-15.5;13.4375
2.0;0.392578125;-0.4091796875;-0.64227294921875;0.51568603515625;9.4718986005241;12.450767707442587;4.038384032146653;-0.08251953125;0.8212890625;0.35498046875;6.1875;-15.5;11.0625
2.0;0.39288330078125;-0.41326904296875;-0.640380859375;0.51458740234375;9.446562467651507;12.473213484834597;4.033246014035313;-0.1025390625;0.869140625;0.32763671875;17.75;-13.0;10.1875
2.0;0.39404296875;-0.4183349609375;-0.63751220703125;0.51318359375;9.418891473106289;12.504948438845485;4.030290074205484;-0.08154296875;0.85595703125;0.3076171875;22.25;-9.6875;10.75
2.0;0.39630126953125;-0.42724609375;-0.63287353515625;0.509765625;9.378585101116872;12.562308527365085;4.0207270383029625;-0.07470703125;0.85693359375;0.2666015625;27.25;-9.125;9.625
2.0;0.39794921875;-0.4306640625;-0.63104248046875;0.50787353515625;9.371542259429795;12.588062154992487;4.017171809663404;-0.03564453125;0.86865234375;0.30126953125;28.625;-6.25;5.25
2.0;0.3988037109375;-0.43310546875;-0.63043212890625;0.505859375;9.37072629522046;12.604965342781608;4.009301206068382;-0.0673828125;0.86669921875;0.29150390625;26.5;-4.75;2.875
2.0;0.4000244140625;-0.434814453125;-0.630126953125;0.50384521484375;9.37827655948074;12.619624207985751;4.002991861694558;-0.08349609375;0.8388671875;0.3408203125;21.9375;-7.8125;-0.5
2.0;0.40130615234375;-0.43524169921875;-0.630859375;0.5015869140625;9.399724948086643;12.627708769320602;3.9954868496855673;-0.03955078125;0.80029296875;0.3193359375;19.3125;-4.4375;-6.4375
2.0;0.403564453125;-0.434326171875;-0.63311767578125;0.49761962890625;9.451681912492885;12.633439678307603;3.982818910016551;-0.0146484375;0.81103515625;0.31689453125;12.6875;-2.6875;-15.625
2.0;0.4058837890625;-0.43255615234375;-0.63531494140625;0.4945068359375;9.504415130488061;12.634729317694957;3.9752342419390274;-0.12255859375;0.88134765625;0.31396484375;9.3125;-5.0625;-25.25
2.0;0.4083251953125;-0.43048095703125;-0.63702392578125;0.49212646484375;9.553885048174768;12.635153910605815;3.9726432281155084;-0.06982421875;0.88525390625;0.283203125;2.3125;1.0;-28.3125
2.0;0.41070556640625;-0.42974853515625;-0.6380615234375;0.48944091796875;9.593694406640449;12.642475041749993;3.9682323641387707;-0.009765625;0.91845703125;0.2900390625;1.1875;6.375;-29.875
2.0;0.41259765625;-0.42523193359375;-0.64056396484375;0.48846435546875;9.64981719564808;12.627741503851665;3.971336143001794;-0.001953125;1.0078125;0.232421875;2.375;3.25;-27.625
2.0;0.41180419921875;-0.425048828125;-0.64154052734375;0.488037109375;9.65170310853141;12.622757980838214;3.9649698032784553;-0.13232421875;0.88427734375;0.42529296875;-5.25;12.125;-24.1875
2.0;0.41656494140625;-0.42523193359375;-0.6416015625;0.48370361328125;9.707500975028141;12.646569135100378;3.9628498791016193;0.19140625;0.94580078125;0.2939453125;-4.625;0.4375;-23.0
2.0;0.42437744140625;-0.42401123046875;-0.64129638671875;0.4783935546875;9.796768233663148;12.678121312119718;3.970253580978156;-0.1669921875;0.94921875;0.05029296875;7.9375;3.25;-24.625
2.0;0.432861328125;-0.42413330078125;-0.640625;0.4715576171875;9.889320048596971;12.72055561920329;3.973511568437619;-0.4306640625;0.89208984375;0.02880859375;14.75;11.75;-20.6875
2.0;0.439453125;-0.42559814453125;-0.63958740234375;0.46551513671875;9.954881022072971;12.761172547621705;3.9730304625821584;-0.5166015625;0.8955078125;0.0087890625;26.1875;6.25;-18.625
2.0;0.44305419921875;-0.429443359375;-0.63787841796875;0.46087646484375;9.975213761330227;12.799557150277769;3.966124136716089;-0.4208984375;0.94482421875;-0.00537109375;23.1875;0.375;-14.625
2.0;0.44329833984375;-0.43646240234375;-0.6343994140625;0.45880126953125;9.932077319103598;12.838156248719484;3.9569037861961363;-0.1474609375;0.89013671875;0.05712890625;28.4375;-5.8125;-12.4375
2.0;0.44366455078125;-0.44281005859375;-0.630859375;0.457275390625;9.890560794066632;12.874007133234223;3.95113453755503;0.29638671875;0.935546875;0.24951171875;42.1875;-5.9375;-11.6875
2.0;0.44830322265625;-0.44671630859375;-0.6282958984375;0.45245361328125;9.915449476068941;12.918750638841514;3.94928384531996;0.27734375;0.95068359375;0.4189453125;51.0625;-1.3125;-10.125
2.0;0.452880859375;-0.4495849609375;-0.6268310546875;0.44708251953125;9.954091284153623;12.957699752824468;3.9444203703836616;-0.111328125;0.84765625;0.29443359375;52.9375;2.3125;-14.5625
2.0;0.45941162109375;-0.4530029296875;-0.624267578125;0.4404296875;10.00534517487865;13.010506349406812;3.944032674353307;-0.17333984375;0.8076171875;0.30029296875;49.625;0.625;-17.4375
2.0;0.4664306640625;-0.45599365234375;-0.61981201171875;0.436279296875;10.038831200247424;13.064298058793266;3.9603226403332386;-0.166015625;0.96533203125;0.29052734375;61.375;5.4375;-25.875
2.0;0.47296142578125;-0.4560546875;-0.61688232421875;0.43328857421875;10.085498082764799;13.10021553034455;3.9805458506284093;-0.1220703125;0.9169921875;0.173828125;53.125;19.5625;-17.4375
2.0;0.47784423828125;-0.4539794921875;-0.61639404296875;0.43084716796875;10.141350873332364;13.115585668179035;3.994479764320009;-0.16357421875;0.97802734375;0.171875;34.5;23.6875;-21.8125
2.0;0.481689453125;-0.45294189453125;-0.61456298828125;0.4302978515625;10.16686876109807;13.131398648708462;4.013066084784153;-0.2431640625;1.064453125;0.18994140625;15.8125;17.9375;-24.0625
2.0;0.484375;-0.45269775390625;-0.6112060546875;0.43231201171875;10.157721269449222;13.145522273635995;4.038922929666739;-0.193359375;0.9873046875;0.16552734375;14.8125;20.0;-10.9375
2.0;0.4874267578125;-0.45306396484375;-0.60894775390625;0.431640625;10.168416850003268;13.164917579429593;4.05297492153708;-0.0498046875;0.9375;0.15185546875;11.125;26.4375;-2.3125
2.0;0.48876953125;-0.45123291015625;-0.60931396484375;0.43157958984375;10.189600355945412;13.162497131549005;4.059961022287058;-0.09228515625;1.00048828125;0.16943359375;20.0625;15.875;-11.625
2.0;0.489013671875;-0.44976806640625;-0.609619140625;0.432373046875;10.196343578478198;13.156097601689943;4.065386863846885;-0.1455078125;0.98486328125;0.1923828125;1.4375;9.5625;-14.0
2.0;0.4901123046875;-0.45111083984375;-0.6087646484375;0.43096923828125;10.199861206537545;13.169447934978214;4.06444076848788;-0.10302734375;0.9130859375;0.251953125;2.125;8.625;-9.1875
2.0;0.49090576171875;-0.45269775390625;-0.60882568359375;0.42828369140625;10.212129019969995;13.182399802792471;4.055223934824974;-0.0986328125;0.96142578125;0.208984375;20.25;1.5625;-9.3125
2.0;0.4903564453125;-0.45172119140625;-0.61041259765625;0.42767333984375;10.225478387792581;13.173873464430558;4.04872266428599;-0.14453125;0.9970703125;0.18994140625;20.125;-6.5;-11.875
2.0;0.49072265625;-0.44952392578125;-0.610595703125;0.42926025390625;10.231855358587278;13.16432203916846;4.058912747216213;-0.13525390625;0.93994140625;0.26953125;3.9375;-2.9375;-12.25
2.0;0.49163818359375;-0.44598388671875;-0.60968017578125;0.43316650390625;10.230546577920478;13.150976106551196;4.084297041490596;-0.05126953125;0.9501953125;0.24609375;-2.625;13.75;-12.875
2.0;0.49365234375;-0.44097900390625;-0.60858154296875;0.4376220703125;10.240863934465237;13.13609955901167;4.118649765944146;0.01220703125;0.97265625;0.24951171875;-9.875;28.0625;-12.0
2.0;0.4949951171875;-0.432373046875;-0.6090087890625;0.44403076171875;10.264643817896022;13.099143878418499;4.159643033498847;0.0205078125;0.96337890625;0.212890625;-16.3125;37.375;-16.6875
2.0;0.4964599609375;-0.42266845703125;-0.61126708984375;0.4486083984375;10.316228242745447;13.057599151356406;4.191745697744454;-0.04248046875;0.86083984375;0.25830078125;-36.6875;44.4375;-17.3125
2.0;0.4954833984375;-0.4112548828125;-0.61676025390625;0.45269775390625;10.381864596144139;12.993773091330247;4.207161914199502;-0.11279296875;0.7783203125;0.314453125;-35.4375;38.75;-25.6875
2.0;0.4910888671875;-0.3985595703125;-0.6253662109375;0.45709228515625;10.446894373409263;12.904010200337382;4.20412168573976;-0.18701171875;0.873046875;0.39013671875;-51.9375;24.375;-32.4375
2.0;0.4837646484375;-0.3831787109375;-0.6383056640625;0.46014404296875;10.536333483625837;12.78458608494713;4.176976137083987;-0.1416015625;0.99658203125;0.33642578125;-80.6875;7.25;-40.4375
2.0;0.47540283203125;-0.3677978515625;-0.6507568359375;0.46392822265625;10.610989164705119;12.660779606718457;4.148680668180913;-0.13818359375;0.982421875;0.35205078125;-110.8125;-14.6875;-51.875
2.0;0.470947265625;-0.35772705078125;-0.6572265625;0.46722412109375;10.654445762099117;12.586602810090241;4.140961621367521;-0.14501953125;0.6962890625;0.3876953125;-113.125;-15.125;-44.5625
2.0;0.47503662109375;-0.3565673828125;-0.65643310546875;0.465087890625;10.697688629448107;12.603599356875215;4.151453697601158;-0.0869140625;0.55859375;0.3759765625;-59.75;4.9375;-28.5
2.0;0.48052978515625;-0.35455322265625;-0.65655517578125;0.46075439453125;10.771436949695701;12.624049579083492;4.157631332893655;-0.140625;0.71630859375;0.3037109375;18.25;19.4375;-23.3125
2.0;0.4813232421875;-0.34716796875;-0.6622314453125;0.45745849609375;10.865443704180102;12.590987074395022;4.141874354178911;-0.2705078125;0.94970703125;0.224609375;14.125;16.25;-36.25
2.0;0.4781494140625;-0.3350830078125;-0.67041015625;0.45794677734375;10.952315889997749;12.513321002665334;4.123903784880257;-0.37744140625;0.953125;0.2177734375;-34.1875;-2.6875;-46.875
2.0;0.47821044921875;-0.32708740234375;-0.67559814453125;0.4559326171875;11.035916339046118;12.473978926664987;4.111158155423443;-0.353515625;0.7216796875;0.3193359375;-68.375;-2.3125;-41.625
2.0;0.48016357421875;-0.32220458984375;-0.67852783203125;0.4530029296875;11.108146713788095;12.460314260413703;4.104368523901572;-0.39501953125;0.74169921875;0.27685546875;-34.9375;0.6875;-37.1875
2.0;0.4810791015625;-0.31787109375;-0.6805419921875;0.45208740234375;11.155401400810083;12.444278205809194;4.1033639382393545;-0.419921875;0.87646484375;0.2158203125;-18.8125;2.5;-32.4375
2.0;0.48162841796875;-0.3123779296875;-0.68402099609375;0.45001220703125;11.219513648173681;12.4199260993681;4.0933291888731524;-0.40283203125;0.86474609375;0.18701171875;-24.5625;3.0625;-19.9375
2.0;0.48126220703125;-0.3074951171875;-0.688232421875;0.4473876953125;11.278702404968914;12.392324672549751;4.074444140675075;-0.521484375;0.8115234375;0.208984375;-27.5;-4.0;-23.5
2.0;0.48114013671875;-0.302978515625;-0.69171142578125;0.44525146484375;11.33168055094096;12.368277138805908;4.059925212504094;-0.52392578125;0.74365234375;0.228515625;-24.9375;-11.75;-22.625
2.0;0.4832763671875;-0.29974365234375;-0.69384765625;0.4417724609375;11.394174003853063;12.363346325492223;4.0513369377528115;-0.48095703125;0.72900390625;0.22265625;-23.125;-8.0625;-21.3125
2.0;0.48553466796875;-0.29620361328125;-0.696044921875;0.43829345703125;11.4597090406549;12.357516252624837;4.043229025509037;-0.5224609375;0.73876953125;0.169921875;-10.0625;-3.0;-22.0
2.0;0.4842529296875;-0.29156494140625;-0.699951171875;0.4365234375;11.504683193869306;12.325953383587951;4.023839429132855;-0.66064453125;0.828125;0.119140625;-16.1875;-7.1875;-18.3125
2.0;0.48162841796875;-0.28778076171875;-0.704345703125;0.4349365234375;11.53476098528083;12.289966953092193;3.9972783269081082;-0.630859375;0.81689453125;0.20166015625;-32.375;-17.4375;-15.125
2.0;0.4786376953125;-0.2847900390625;-0.709228515625;0.43218994140625;11.564306120455825;12.254896092784888;3.962251976586662;-0.5712890625;0.72216796875;0.21630859375;-31.125;-24.125;-11.9375
2.0;0.47686767578125;-0.2823486328125;-0.7138671875;0.42803955078125;11.6049695771144;12.228730026557383;3.9262983958348365;-0.513671875;0.642578125;0.2275390625;-23.9375;-29.25;-16.75
2.0;0.47613525390625;-0.279052734375;-0.71820068359375;0.42376708984375;11.657890320665853;12.204328006731101;3.895197130935117;-0.52685546875;0.65185546875;0.2666015625;-13.1875;-26.6875;-22.4375
2.0;0.4749755859375;-0.275390625;-0.72235107421875;0.42041015625;11.704270073263691;12.176118396151951;3.866717751388861;-0.56787109375;0.68017578125;0.2607421875;-14.8125;-21.125;-25.25
2.0;0.47369384765625;-0.27203369140625;-0.72613525390625;0.4176025390625;11.743251286581465;12.148863100187851;3.840621219074142;-0.5888671875;0.72314453125;0.32470703125;-17.375;-18.6875;-22.125
2.0;0.47174072265625;-0.26953125;-0.72918701171875;0.416015625;11.762808151304778;12.123138454381687;3.8185741661673993;-0.58056640625;0.7275390625;0.30712890625;-18.9375;-18.1875;-19.1875
2.0;0.4705810546875;-0.2677001953125;-0.73126220703125;0.4149169921875;11.778044401549252;12.105769344750154;3.8041208065160004;-0.5244140625;0.76025390625;0.33056640625;-19.25;-17.4375;-13.625
2.0;0.46893310546875;-0.2652587890625;-0.73370361328125;0.41412353515625;11.792910237374153;12.08258656915351;3.7882157634449447;-0.49755859375;0.81103515625;0.33056640625;-16.125;-11.25;-11.9375
2.0;0.46673583984375;-0.264892578125;-0.7359619140625;0.41278076171875;11.79237779252485;12.066147615861059;3.7671588247520496;-0.54052734375;0.7734375;0.33251953125;-20.4375;-14.0625;-9.125
2.0;0.46502685546875;-0.26763916015625;-0.73797607421875;0.4093017578125;11.785651500747939;12.066207356203991;3.7378150784717743;-0.49462890625;0.681640625;0.38037109375;-6.3125;-18.8125;-4.3125
2.0;0.46331787109375;-0.27203369140625;-0.73968505859375;0.4051513671875;11.771109129785456;12.074235198637428;3.7056699036727574;-0.50390625;0.69580078125;0.4267578125;16.4375;-25.125;-4.6875
2.0;0.46185302734375;-0.27667236328125;-0.74127197265625;0.40087890625;11.757264535564056;12.084741935792449;3.674156089883304;-0.435546875;0.705078125;0.37646484375;22.6875;-29.3125;-6.5625
2.0;0.45965576171875;-0.27862548828125;-0.74322509765625;0.3984375;11.74646928856342;12.079340927727495;3.648154962531074;-0.42236328125;0.74755859375;0.34033203125;21.625;-29.125;-8.5
2.0;0.4556884765625;-0.27606201171875;-0.746826171875;0.39801025390625;11.744379121984267;12.042471774496848;3.6215344931372515;-0.50927734375;0.830078125;0.38720703125;3.125;-25.6875;-5.1875
2.0;0.4508056640625;-0.2735595703125;-0.75067138671875;0.39813232421875;11.731953221451567;12.001148523634416;3.5930932752183224;-0.5380859375;0.70654296875;0.41015625;-23.75;-24.0;-4.1875
2.0;0.44775390625;-0.27294921875;-0.75390625;0.395751953125;11.732892928221082;11.978258406278215;3.56176253320604;-0.4609375;0.611328125;0.47265625;-21.9375;-24.375;-1.875
2.0;0.44580078125;-0.2747802734375;-0.7559814453125;0.392822265625;11.726632609062744;11.973489867195182;3.5344636311309747;-0.4892578125;0.62646484375;0.48095703125;-2.5;-23.625;-8.25
2.0;0.44500732421875;-0.27734375;-0.7572021484375;0.3895263671875;11.724772892044724;11.979117101286032;3.512221484728226;-0.505859375;0.6318359375;0.43701171875;11.375;-24.875;-2.625
2.0;0.443115234375;-0.28106689453125;-0.75811767578125;0.38720703125;11.701315783756169;11.985642129283892;3.490592419204933;-0.541015625;0.697265625;0.396484375;14.75;-21.8125;-2.75
2.0;0.43951416015625;-0.28460693359375;-0.75933837890625;0.38629150390625;11.658993888237186;11.983212802595474;3.46802517839036;-0.5322265625;0.78759765625;0.40576171875;13.4375;-26.375;4.0
2.0;0.43389892578125;-0.2886962890625;-0.76129150390625;0.3858642578125;11.596496099721202;11.973143810035058;3.437931426397893;-0.53369140625;0.7607421875;0.35888671875;3.0;-33.75;13.1875
2.0;0.42803955078125;-0.29473876953125;-0.76336669921875;0.38360595703125;11.530188180982378;11.971478075790182;3.3980582844147227;-0.40234375;0.7021484375;0.41162109375;3.125;-39.375;13.5625
2.0;0.4234619140625;-0.2984619140625;-0.76568603515625;0.38116455078125;11.489571343815717;11.964709505334513;3.362548499012722;-0.31298828125;0.76953125;0.35302734375;10.3125;-47.375;4.0
2.0;0.41986083984375;-0.29962158203125;-0.76751708984375;0.38055419921875;11.461210085788325;11.951395029715592;3.341324476140071;-0.35498046875;0.81103515625;0.33642578125;0.0625;-39.5625;-3.4375
2.0;0.41424560546875;-0.2967529296875;-0.771484375;0.3809814453125;11.439686854477314;11.9071383170549;3.313457277409298;-0.42724609375;0.80322265625;0.365234375;-10.8125;-27.3125;2.25
2.0;0.40728759765625;-0.293701171875;-0.77593994140625;0.3818359375;11.40641923040007;11.855901299998779;3.281892224429749;-0.50537109375;0.72705078125;0.48095703125;-31.125;-30.375;2.3125
2.0;0.400390625;-0.2913818359375;-0.7801513671875;0.38232421875;11.369802911867886;11.80927355167758;3.249778351109435;-0.4365234375;0.71630859375;0.52294921875;-35.125;-33.5;1.75
2.0;0.39361572265625;-0.2880859375;-0.784912109375;0.38214111328125;11.343511980528454;11.757976365470657;3.2142716551801542;-0.39013671875;0.697265625;0.54443359375;-29.5;-33.0;0.0625
2.0;0.3880615234375;-0.28338623046875;-0.78973388671875;0.38140869140625;11.337442626245265;11.705096166441246;3.1808460221449297;-0.34521484375;0.65283203125;0.52685546875;-33.375;-32.4375;-7.625
2.0;0.3817138671875;-0.27685546875;-0.7950439453125;0.3814697265625;11.33125783018585;11.639852110797415;3.1478784184254724;-0.37841796875;0.7021484375;0.52978515625;-38.5;-26.25;-14.875
2.0;0.37506103515625;-0.27337646484375;-0.79901123046875;0.38238525390625;11.297123577679105;11.590639887457813;3.1210917858753966;-0.408203125;0.6240234375;0.58203125;-46.625;-26.0;-11.9375
2.0;0.3690185546875;-0.27410888671875;-0.8011474609375;0.38323974609375;11.240617187222;11.567588279697386;3.1003933366908263;-0.365234375;0.568359375;0.6279296875;-29.5625;-27.3125;1.5
2.0;0.3636474609375;-0.27728271484375;-0.80242919921875;0.3834228515625;11.177472206960307;11.560525663232792;3.0806175099476536;-0.2841796875;0.6005859375;0.61083984375;-8.375;-27.625;8.4375
2.0;0.360107421875;-0.28375244140625;-0.80242919921875;0.3819580078125;11.117185630562135;11.578495371879658;3.061356476754288;-0.25341796875;0.5966796875;0.61328125;6.9375;-28.5625;10.625
2.0;0.3575439453125;-0.291015625;-0.802001953125;0.37982177734375;11.06362572097218;11.604714417016732;3.042670703566829;-0.2578125;0.625;0.52392578125;26.5;-29.9375;9.5625
2.0;0.35418701171875;-0.2957763671875;-0.8026123046875;0.3780517578125;11.017555477076995;11.614422583413312;3.021244054429716;-0.26708984375;0.693359375;0.50048828125;30.8125;-28.75;6.9375
2.0;0.3505859375;-0.2996826171875;-0.8035888671875;0.37628173828125;10.97491265563239;11.618734288874034;2.9984323810624374;-0.2900390625;0.66064453125;0.5341796875;18.3125;-28.5;4.875
2.0;0.3466796875;-0.3040771484375;-0.80462646484375;0.37408447265625;10.929245109944295;11.624503269432807;2.9724725272472488;-0.31787109375;0.6884765625;0.6044921875;15.8125;-28.5625;4.0625
2.0;0.34307861328125;-0.3077392578125;-0.80596923828125;0.37152099609375;10.892630428454625;11.627494523997843;2.945207839776258;-0.2890625;0.7119140625;0.64501953125;19.5625;-30.0;2.0
2.0;0.34063720703125;-0.31097412109375;-0.80706787109375;0.36871337890625;10.86931098628273;11.633019238326915;2.921022586370236;-0.28173828125;0.6982421875;0.66552734375;19.125;-28.0;-2.1875
2.0;0.34124755859375;-0.31549072265625;-0.8065185546875;0.36541748046875;10.865552727908502;11.658204665805078;2.9072789570231965;-0.26025390625;0.64111328125;0.6455078125;21.3125;-21.125;-5.1875
2.0;0.34368896484375;-0.3189697265625;-0.80572509765625;0.36187744140625;10.88431100550835;11.685027914503495;2.8988142282085616;-0.2724609375;0.6845703125;0.6123046875;35.0625;-8.75;-7.4375
2.0;0.3465576171875;-0.322021484375;-0.80450439453125;0.359130859375;10.904543215768596;11.71200297266438;2.8966563072391436;-0.34619140625;0.73095703125;0.57958984375;31.75;-1.375;-10.5
2.0;0.349609375;-0.32568359375;-0.8028564453125;0.35662841796875;10.921154169929045;11.743329002077102;2.897136766321187;-0.34375;0.7275390625;0.5478515625;28.9375;3.3125;-7.4375
2.0;0.35223388671875;-0.3304443359375;-0.8006591796875;0.3544921875;10.925449153485538;11.779622200405843;2.8991164247271364;-0.33837890625;0.74267578125;0.53076171875;31.5625;4.6875;-5.4375
2.0;0.3543701171875;-0.33660888671875;-0.79779052734375;0.35302734375;10.913335462330151;11.822174327355023;2.9038161219029313;-0.33251953125;0.75341796875;0.49072265625;34.4375;1.75;0.1875
2.0;0.355224609375;-0.3426513671875;-0.7952880859375;0.35198974609375;10.889292262865624;11.859010402534658;2.905514708971044;-0.302734375;0.79443359375;0.455078125;36.8125;-0.5625;6.0625
2.0;0.35528564453125;-0.346923828125;-0.79388427734375;0.35101318359375;10.869599526028097;11.882498715810165;2.902887503911288;-0.271484375;0.82861328125;0.43359375;30.6875;-4.9375;7.0
2.0;0.35491943359375;-0.34796142578125;-0.7939453125;0.35028076171875;10.864936928109998;11.886217188371086;2.897784083465734;-0.2802734375;0.82763671875;0.41455078125;18.0625;-8.0;4.0625
2.0;0.35321044921875;-0.3455810546875;-0.7960205078125;0.34954833984375;10.870681403762319;11.865216578525642;2.884995700488628;-0.2919921875;0.833984375;0.43115234375;-0.1875;-6.25;-3.125
2.0;0.3509521484375;-0.34259033203125;-0.798828125;0.34832763671875;10.878606467657725;11.838072710631266;2.8666625745982026;-0.310546875;0.76611328125;0.4970703125;-16.5;-8.5;-8.8125
2.0;0.34844970703125;-0.34051513671875;-0.8013916015625;0.3470458984375;10.879170373999763;11.814952161206248;2.8474941352291117;-0.31201171875;0.697265625;0.5341796875;-17.25;-11.625;-11.1875
2.0;0.345947265625;-0.338623046875;-0.80364990234375;0.34613037109375;10.876117146593252;11.793314787319542;2.830730665746134;-0.283203125;0.68212890625;0.5556640625;-11.1875;-12.9375;-10.1875
2.0;0.34381103515625;-0.3372802734375;-0.8055419921875;0.34527587890625;10.872184703607372;11.776206157034121;2.816063976803758;-0.27880859375;0.6845703125;0.5380859375;-12.375;-12.375;-7.5
2.0;0.34185791015625;-0.33551025390625;-0.807373046875;0.3446044921875;10.870919694288984;11.757815595853518;2.803154663010439;-0.2880859375;0.71923828125;0.5458984375;-9.375;-11.1875;-6.6875
2.0;0.3397216796875;-0.333251953125;-0.809326171875;0.34429931640625;10.868763153078273;11.736184211295193;2.79126875699107;-0.32373046875;0.736328125;0.56591796875;-11.4375;-9.875;-5.5625
2.0;0.33837890625;-0.33319091796875;-0.81024169921875;0.343505859375;10.862845373277715;11.729864805861341;2.7813166707519184;-0.333984375;0.71875;0.6005859375;-12.75;-9.3125;-3.375
2.0;0.33758544921875;-0.3345947265625;-0.81060791015625;0.3421630859375;10.85602687264249;11.733528347677096;2.771294527598305;-0.314453125;0.71337890625;0.5869140625;1.125;-8.4375;-2.25
2.0;0.3370361328125;-0.3367919921875;-0.81036376953125;0.341064453125;10.845118612054002;11.743058319976653;2.7643928911221582;-0.3037109375;0.71044921875;0.5625;9.875;-8.75;-1.9375
2.0;0.3365478515625;-0.33831787109375;-0.810302734375;0.3402099609375;10.83725966345456;11.749117211991853;2.758569939790676;-0.2705078125;0.70458984375;0.5205078125;13.25;-7.5;-0.25
2.0;0.3363037109375;-0.3388671875;-0.810546875;0.33929443359375;10.837387401171943;11.75066460814037;2.7527990969005485;-0.25048828125;0.7138671875;0.49658203125;7.5625;-5.5;-2.25
2.0;0.33636474609375;-0.33941650390625;-0.81060791015625;0.33856201171875;10.838953207393068;11.753502781652713;2.7492342590644774;-0.2744140625;0.7158203125;0.50830078125;3.75;-3.5625;-4.125
2.0;0.3367919921875;-0.3404541015625;-0.8101806640625;0.33807373046875;10.839219924955326;11.76082871569936;2.7489378462181517;-0.28515625;0.73193359375;0.5166015625;4.25;-1.9375;-3.1875
2.0;0.33758544921875;-0.34149169921875;-0.80963134765625;0.3375244140625;10.842807830141597;11.769572951191396;2.749759103444967;-0.27685546875;0.73681640625;0.51171875;7.5;0.8125;-1.5625
2.0;0.33880615234375;-0.3424072265625;-0.808837890625;0.3372802734375;10.84877102280602;11.77952572435207;2.753929737210842;-0.2724609375;0.75048828125;0.521484375;8.3125;2.875;-2.75
2.0;0.340087890625;-0.34326171875;-0.8079833984375;0.337158203125;10.854826204591244;11.789498493409384;2.759038504183687;-0.2802734375;0.75634765625;0.4970703125;7.4375;5.375;-1.75
2.0;0.34161376953125;-0.34423828125;-0.806884765625;0.33734130859375;10.860333546480412;11.80126017558062;2.7668532815026583;-0.28466796875;0.76123046875;0.5048828125;7.625;6.625;-1.1875
2.0;0.34295654296875;-0.3455810546875;-0.8055419921875;0.3377685546875;10.860663678276996;11.814708431520021;2.7757343832491594;-0.30224609375;0.75927734375;0.4931640625;8.25;7.375;1.5
2.0;0.34405517578125;-0.34674072265625;-0.80438232421875;0.3382568359375;10.859716876984121;11.826082396668388;2.7837568838982873;-0.2958984375;0.76953125;0.482421875;8.9375;6.8125;3.625
2.0;0.344970703125;-0.34759521484375;-0.80322265625;0.339111328125;10.856816723203218;11.83537155568149;2.7930370435551293;-0.29931640625;0.77392578125;0.48291015625;7.1875;5.875;3.875
2.0;0.345703125;-0.34820556640625;-0.80224609375;0.340087890625;10.853185058556448;11.84244808088006;2.8019322809047558;-0.30029296875;0.7607421875;0.4716796875;4.5;6.0625;5.6875
2.0;0.34613037109375;-0.34857177734375;-0.80145263671875;0.3411865234375;10.847824473426535;11.846958889784403;2.810086782480883;-0.2919921875;0.76025390625;0.4716796875;3.0;6.0;5.375
2.0;0.3460693359375;-0.3489990234375;-0.80072021484375;0.34246826171875;10.837087881293423;11.850036077302837;2.817407506677181;-0.29736328125;0.7666015625;0.47509765625;0.4375;4.625;6.0
2.0;0.3458251953125;-0.349609375;-0.800048828125;0.3436279296875;10.824550114646616;11.853271103355528;2.823363063547236;-0.2841796875;0.75341796875;0.4755859375;0.1875;3.0625;7.4375
2.0;0.345703125;-0.35009765625;-0.799560546875;0.344482421875;10.815582518899502;11.855961585559486;2.8278696569900164;-0.2705078125;0.7568359375;0.48046875;0.5;2.1875;6.75
2.0;0.34521484375;-0.3502197265625;-0.79931640625;0.345458984375;10.805170929536779;11.855199348612143;2.831366983916093;-0.28271484375;0.77001953125;0.48291015625;0.5;1.375;5.1875
2.0;0.3448486328125;-0.35052490234375;-0.7989501953125;0.3463134765625;10.795305216343376;11.85601445707858;2.834918454296923;-0.28173828125;0.759765625;0.4912109375;-1.75;0.5;5.375
2.0;0.3443603515625;-0.3505859375;-0.79876708984375;0.34716796875;10.78597459418404;11.854872245267892;2.837740769529419;-0.27001953125;0.77001953125;0.490234375;-0.75;0.875;4.625
2.0;0.343505859375;-0.35028076171875;-0.79901123046875;0.34771728515625;10.777783101384191;11.850027887124021;2.8371723996439333;-0.27783203125;0.775390625;0.486328125;-2.875;0.125;3.8125
2.0;0.342529296875;-0.34991455078125;-0.7996826171875;0.34759521484375;10.773094026121571;11.843759882225072;2.832125615744845;-0.27001953125;0.76025390625;0.4912109375;-5.0625;-2.0625;2.125
2.0;0.341552734375;-0.3486328125;-0.80096435546875;0.34674072265625;10.778102902329726;11.832169465261531;2.8226808839209108;-0.2548828125;0.76806640625;0.4873046875;-5.5;-4.125;-3.0
2.0;0.34124755859375;-0.3475341796875;-0.802001953125;0.34576416015625;10.788068413878191;11.824068233849745;2.8151975046934674;-0.2607421875;0.74755859375;0.5087890625;-7.9375;-4.875;-8.4375
2.0;0.34149169921875;-0.3468017578125;-0.802734375;0.34454345703125;10.801606609029033;11.8201587214853;2.8088505597026603;-0.263671875;0.7470703125;0.515625;-4.5625;-2.125;-9.4375
2.0;0.34210205078125;-0.34576416015625;-0.8035888671875;0.34307861328125;10.821335029829918;11.815719532393002;2.802289189410058;-0.26904296875;0.7626953125;0.501953125;-2.3125;-0.25;-10.6875
2.0;0.34234619140625;-0.34429931640625;-0.8046875;0.34173583984375;10.839880990231617;11.807537129455943;2.7947322620418182;-0.30419921875;0.76416015625;0.49755859375;-2.875;0.0;-11.75
2.0;0.34228515625;-0.34368896484375;-0.805419921875;0.34063720703125;10.849457922447376;11.803159738900849;2.7879247770628512;-0.322265625;0.7255859375;0.515625;-4.375;-1.5;-9.75
2.0;0.3424072265625;-0.3438720703125;-0.8057861328125;0.33941650390625;10.856539788986733;11.803939445172366;2.7817059191761313;-0.31591796875;0.71240234375;0.52587890625;0.3125;-2.5625;-6.375
2.0;0.3426513671875;-0.3448486328125;-0.8057861328125;0.3382568359375;10.859641598577253;11.809610452703723;2.7767242057102863;-0.3154296875;0.70556640625;0.52685546875;5.5625;-2.75;-4.4375
2.0;0.3428955078125;-0.34619140625;-0.8055419921875;0.337158203125;10.860192281175832;11.817578898165506;2.7725129941596514;-0.3212890625;0.72412109375;0.51904296875;9.0625;-3.6875;-2.4375
2.0;0.34332275390625;-0.34796142578125;-0.8050537109375;0.336181640625;10.859069613805794;11.82860658245906;2.7698359334047966;-0.32958984375;0.7353515625;0.5126953125;10.6875;-3.6875;-0.6875
2.0;0.3438720703125;-0.35003662109375;-0.80419921875;0.33544921875;10.855608324740771;11.842262622162488;2.769466479366938;-0.33056640625;0.73876953125;0.4970703125;12.1875;-3.375;1.0625
2.0;0.3446044921875;-0.3519287109375;-0.8033447265625;0.334716796875;10.85467410408867;11.855628097826495;2.7697274214605425;-0.3173828125;0.74755859375;0.47607421875;13.25;-2.3125;2.0
2.0;0.34515380859375;-0.353515625;-0.80267333984375;0.3341064453125;10.853372034550233;11.866517683121925;2.769642634612418;-0.31787109375;0.75732421875;0.4677734375;11.875;-1.25;1.375
2.0;0.34539794921875;-0.35491943359375;-0.8021240234375;0.333740234375;10.849279321905774;11.875230824226632;2.7694950737262536;-0.3125;0.76171875;0.46875;9.9375;-1.1875;1.1875
2.0;0.34539794921875;-0.355712890625;-0.8018798828125;0.33343505859375;10.846432760500642;11.879624835095465;2.768381915227442;-0.29736328125;0.76953125;0.46484375;7.1875;-1.375;0.875
2.0;0.34539794921875;-0.35601806640625;-0.8017578125;0.3333740234375;10.844993475327836;11.881364747474516;2.7682816188639334;-0.2890625;0.77490234375;0.4697265625;3.4375;-1.5625;-0.25
2.0;0.345458984375;-0.35638427734375;-0.8016357421875;0.33319091796875;10.844416841571526;11.88361831717531;2.767786509318276;-0.2841796875;0.76611328125;0.47509765625;1.3125;-0.25;-0.625
2.0;0.3455810546875;-0.35687255859375;-0.8013916015625;0.3331298828125;10.842876527648823;11.886870610848126;2.7682835761854774;-0.28857421875;0.7734375;0.47802734375;1.6875;-0.3125;-1.0625
2.0;0.3455810546875;-0.357421875;-0.8011474609375;0.333251953125;10.838963419071286;11.889936758610903;2.769190698963795;-0.296875;0.7802734375;0.48095703125;2.4375;0.1875;0.25
2.0;0.345458984375;-0.358154296875;-0.80084228515625;0.3333740234375;10.832974162239424;11.893640610279693;2.769800219017406;-0.28955078125;0.77734375;0.47607421875;1.9375;0.0625;1.25
2.0;0.34527587890625;-0.35882568359375;-0.800537109375;0.33343505859375;10.827143494377061;11.896937563061028;2.769993845569954;-0.287109375;0.775390625;0.48681640625;3.375;-0.5625;1.9375
2.0;0.344970703125;-0.35955810546875;-0.80023193359375;0.33367919921875;10.818939586468996;11.900045733445745;2.770592679028309;-0.28515625;0.77197265625;0.47607421875;2.9375;-1.0625;1.625
2.0;0.34442138671875;-0.35986328125;-0.80023193359375;0.333984375;10.811002658591853;11.899648480776248;2.7701333233010526;-0.28076171875;0.7734375;0.466796875;1.875;-1.5;2.5625
2.0;0.34381103515625;-0.35980224609375;-0.80035400390625;0.33428955078125;10.804664150700921;11.897110996475401;2.7693735179271934;-0.28564453125;0.763671875;0.46240234375;-1.125;-2.5;2.75
2.0;0.34326171875;-0.35931396484375;-0.80072021484375;0.3345947265625;10.80141104746513;11.892151855534493;2.768366014372087;-0.28857421875;0.74267578125;0.46484375;-2.4375;-2.375;2.3125
2.0;0.34259033203125;-0.35772705078125;-0.8016357421875;0.33477783203125;10.80433795519399;11.880476367383219;2.7655762494914735;-0.29345703125;0.75390625;0.46142578125;-5.625;-2.125;1.0625
2.0;0.342041015625;-0.3565673828125;-0.8023681640625;0.3348388671875;10.806445755413058;11.871634403915028;2.7628618865521615;-0.3115234375;0.71533203125;0.470703125;-9.75;-2.25;-0.75
2.0;0.34136962890625;-0.35528564453125;-0.80316162109375;0.33489990234375;10.808234638487566;11.861728567522317;2.7596873610109256;-0.29443359375;0.7158203125;0.46826171875;-7.3125;-2.0;-1.3125
2.0;0.34014892578125;-0.35394287109375;-0.80419921875;0.335205078125;10.804625371301285;11.849150962350027;2.7553420523530905;-0.283203125;0.7138671875;0.46875;-8.5625;-2.3125;-2.0625
2.0;0.33819580078125;-0.3525390625;-0.80535888671875;0.3358154296875;10.79357948857411;11.83372134062425;2.749936517013016;-0.26513671875;0.681640625;0.46826171875;-9.8125;-3.875;-0.6875
2.0;0.33587646484375;-0.3502197265625;-0.80718994140625;0.33624267578125;10.785984005345405;11.811386279250222;2.7413303221456404;-0.25048828125;0.69287109375;0.490234375;-11.875;-5.6875;0.625
2.0;0.33404541015625;-0.3482666015625;-0.8087158203125;0.3363037109375;10.782132767231786;11.79314681041483;2.7331694425263886;-0.2900390625;0.73876953125;0.552734375;-16.3125;-7.875;-1.25
2.0;0.33367919921875;-0.35009765625;-0.80810546875;0.33636474609375;10.768290879617917;11.802003102636808;2.7330934495551826;-0.32861328125;0.74609375;0.6142578125;-9.8125;-6.625;-0.4375
2.0;0.3349609375;-0.35394287109375;-0.80596923828125;0.3360595703125;10.758050819123477;11.828991892467362;2.7391920273909163;-0.29052734375;0.78857421875;0.59326171875;12.4375;-2.3125;4.875
2.0;0.33612060546875;-0.3564453125;-0.8045654296875;0.335693359375;10.75498554308233;11.847589643761367;2.743365681458807;-0.2626953125;0.802734375;0.494140625;22.875;2.75;5.3125
2.0;0.33642578125;-0.35736083984375;-0.80401611328125;0.33575439453125;10.751730833295936;11.854046732318192;2.745508976254126;-0.2841796875;0.78125;0.46142578125;14.5;1.9375;2.625
2.0;0.33636474609375;-0.35760498046875;-0.80389404296875;0.335693359375;10.750112698184351;11.855346059206543;2.7452579875016068;-0.28125;0.73876953125;0.46630859375;5.25;0.4375;2.5
2.0;0.3363037109375;-0.35797119140625;-0.8038330078125;0.33551025390625;10.748587049045852;11.857082346407541;2.744223032540139;-0.28515625;0.7197265625;0.4853515625;2.5;-0.8125;1.4375
2.0;0.33673095703125;-0.35858154296875;-0.80364990234375;0.3349609375;10.751766480524173;11.86183331432584;2.743174052391105;-0.2802734375;0.720703125;0.4921875;3.4375;-1.0625;0.75
2.0;0.33795166015625;-0.35894775390625;-0.80328369140625;0.33428955078125;10.763404631384068;11.868324333225075;2.7445469568376315;-0.27685546875;0.7431640625;0.48779296875;5.5;0.4375;-2.0
2.0;0.33929443359375;-0.3592529296875;-0.8028564453125;0.3336181640625;10.77631960033413;11.875071973977835;2.746497251259172;-0.2841796875;0.75830078125;0.47265625;5.25;3.625;-4.5
2.0;0.34075927734375;-0.35980224609375;-0.80224609375;0.3330078125;10.788400416640918;11.883747847549525;2.7494591665155896;-0.291015625;0.76708984375;0.47900390625;5.75;4.875;-4.4375
2.0;0.34210205078125;-0.36090087890625;-0.80133056640625;0.33258056640625;10.795133548781005;11.895299073831529;2.753419029482623;-0.306640625;0.76416015625;0.4814453125;7.5625;5.0625;-2.75
2.0;0.34320068359375;-0.3619384765625;-0.800537109375;0.33233642578125;10.799236497087634;11.905434180859135;2.7571751986773623;-0.30078125;0.78076171875;0.47412109375;9.375;4.6875;-0.8125
2.0;0.34393310546875;-0.36297607421875;-0.79962158203125;0.33251953125;10.797715081254644;11.914640378081376;2.7620793361688687;-0.30322265625;0.77587890625;0.46484375;7.9375;3.3125;0.625
2.0;0.34423828125;-0.36370849609375;-0.79901123046875;0.3328857421875;10.793566607030119;11.920288285273482;2.765852530984282;-0.30029296875;0.77783203125;0.4501953125;6.0;2.625;3.125
2.0;0.34442138671875;-0.36407470703125;-0.79852294921875;0.3333740234375;10.789809121789679;11.92354624536758;2.769680770708738;-0.29833984375;0.7841796875;0.45166015625;2.875;1.5;3.6875
2.0;0.3443603515625;-0.3638916015625;-0.79840087890625;0.333984375;10.786708244050425;11.92254897382311;2.7726342973350038;-0.298828125;0.78369140625;0.4521484375;0.25;1.3125;3.625
2.0;0.34429931640625;-0.363525390625;-0.79840087890625;0.33453369140625;10.785081413819679;11.920426756273384;2.7750915463850694;-0.29833984375;0.7734375;0.462890625;-2.6875;1.0625;3.0625
2.0;0.3441162109375;-0.36334228515625;-0.79833984375;0.3349609375;10.782067578349261;11.919018677379272;2.7767114931982277;-0.30712890625;0.7724609375;0.4677734375;-3.4375;0.875;2.75
2.0;0.3441162109375;-0.36328125;-0.79827880859375;0.335205078125;10.780953153066891;11.918776879898786;2.7779917430240344;-0.29541015625;0.765625;0.47119140625;-1.9375;0.375;2.375
2.0;0.3441162109375;-0.3631591796875;-0.7982177734375;0.33563232421875;10.779140683307073;11.918151613232762;2.780112519684002;-0.2958984375;0.77490234375;0.46630859375;-1.25;0.25;1.25
2.0;0.343994140625;-0.36273193359375;-0.79827880859375;0.33587646484375;10.77912476846526;11.915601615631637;2.780920880448492;-0.283203125;0.77685546875;0.45458984375;-2.75;1.0625;1.25
2.0;0.34375;-0.36187744140625;-0.7987060546875;0.336181640625;10.780487228896545;11.909719645731743;2.780873311199452;-0.28271484375;0.7861328125;0.4560546875;-4.375;0.5625;-0.4375
2.0;0.343505859375;-0.36114501953125;-0.79901123046875;0.33636474609375;10.781729061446693;11.904807706135369;2.780557266192644;-0.29150390625;0.76318359375;0.47607421875;-5.6875;0.3125;-0.625
2.0;0.34307861328125;-0.3603515625;-0.799560546875;0.33636474609375;10.783078319841817;11.898508277376052;2.7782479570815775;-0.287109375;0.76513671875;0.4765625;-4.9375;-0.0625;-0.6875
2.0;0.34259033203125;-0.35980224609375;-0.800048828125;0.3363037109375;10.782863211283857;11.893324821593678;2.7755118513923502;-0.2958984375;0.75390625;0.4814453125;-4.9375;-1.5625;-1.25
2.0;0.34222412109375;-0.35943603515625;-0.80047607421875;0.3360595703125;10.783625156045385;11.8895820850417;2.7723872174459236;-0.2890625;0.75341796875;0.486328125;-3.75;-2.25;-1.0625
2.0;0.3419189453125;-0.35931396484375;-0.80072021484375;0.33587646484375;10.783027984407143;11.887583046420009;2.7700759980218486;-0.29736328125;0.751953125;0.48876953125;-2.0;-2.3125;-1.25
2.0;0.34161376953125;-0.35931396484375;-0.80096435546875;0.335693359375;10.781772932289323;11.88612169067355;2.7676905545730826;-0.30126953125;0.7490234375;0.48388671875;-0.6875;-2.3125;-0.1875
2.0;0.341552734375;-0.35943603515625;-0.80108642578125;0.33526611328125;10.783124567600227;11.886391027089125;2.765212961776938;-0.2900390625;0.7421875;0.48828125;0.1875;-2.3125;-0.375
2.0;0.3414306640625;-0.35943603515625;-0.80133056640625;0.3349609375;10.7840807802061;11.885519567564497;2.7628250447473564;-0.294921875;0.74560546875;0.482421875;1.75;-1.8125;-0.9375
2.0;0.34124755859375;-0.35943603515625;-0.801513671875;0.33453369140625;10.785132129013647;11.88472815196135;2.759892501446538;-0.2998046875;0.74365234375;0.48486328125;0.875;-2.0;-0.9375
2.0;0.34130859375;-0.3594970703125;-0.80169677734375;0.33404541015625;10.788243890462109;11.884928164526093;2.7573669301653414;-0.29248046875;0.74267578125;0.49365234375;1.4375;-1.6875;-1.4375
2.0;0.34136962890625;-0.35955810546875;-0.80181884765625;0.33367919921875;10.790606819544648;11.885232031298752;2.755550974037249;-0.29736328125;0.74169921875;0.48828125;1.8125;-1.5625;-1.8125
2.0;0.34161376953125;-0.35955810546875;-0.8018798828125;0.33331298828125;10.794763391185233;11.885959211242902;2.754478771266298;-0.29345703125;0.74267578125;0.484375;1.8125;-0.6875;-1.5625
2.0;0.34185791015625;-0.35943603515625;-0.80194091796875;0.3328857421875;10.799913321481995;11.886183736026275;2.7532104749612314;-0.291015625;0.751953125;0.47802734375;1.125;0.125;-2.1875
2.0;0.34197998046875;-0.35943603515625;-0.80206298828125;0.33251953125;10.803115741703408;11.88638728226757;2.751609336818838;-0.29443359375;0.759765625;0.47509765625;0.375;0.1875;-2.75
2.0;0.34228515625;-0.3594970703125;-0.80206298828125;0.33209228515625;10.80773079569227;11.887768187052703;2.750582797207234;-0.2919921875;0.7529296875;0.48291015625;0.9375;-0.25;-2.1875
2.0;0.342529296875;-0.3597412109375;-0.802001953125;0.33172607421875;10.810446801120968;11.889927798050492;2.749710688154816;-0.2900390625;0.75390625;0.47265625;1.5625;0.25;-2.1875
2.0;0.3427734375;-0.36016845703125;-0.8018798828125;0.3314208984375;10.81177562149954;11.893038058268306;2.749172000533912;-0.30126953125;0.76220703125;0.47216796875;1.8125;-0.3125;-1.5625
2.0;0.34295654296875;-0.36065673828125;-0.80157470703125;0.331298828125;10.811037492527822;11.896675296651605;2.749740419866739;-0.2939453125;0.76220703125;0.474609375;3.0625;-0.25;-0.6875
2.0;0.34307861328125;-0.36102294921875;-0.8013916015625;0.331298828125;10.809894972737416;11.899171059055057;2.750396203128227;-0.28955078125;0.76416015625;0.47265625;3.1875;0.25;0.3125
2.0;0.34332275390625;-0.36138916015625;-0.8011474609375;0.3311767578125;10.810387252750672;11.90226244216015;2.7510447716778357;-0.2900390625;0.76025390625;0.47021484375;1.8125;0.25;0.375
2.0;0.3436279296875;-0.3616943359375;-0.8009033203125;0.33111572265625;10.811373461020276;11.905220462571311;2.7521788751099208;-0.291015625;0.77685546875;0.470703125;2.0;0.8125;-0.375
2.0;0.34375;-0.36181640625;-0.80078125;0.33123779296875;10.81091858996326;11.906387682661604;2.7533460952002162;-0.294921875;0.77001953125;0.46826171875;1.8125;0.8125;0.1875
2.0;0.34368896484375;-0.36187744140625;-0.80078125;0.33123779296875;10.810081493275703;11.906484559264683;2.7531294711224827;-0.2939453125;0.7607421875;0.47412109375;1.0625;0.625;0.875
2.0;0.3436279296875;-0.3616943359375;-0.80084228515625;0.33135986328125;10.809936165017366;11.905253645045146;2.75342527948105;-0.28662109375;0.7685546875;0.47021484375;0.25;0.4375;0.625
2.0;0.34356689453125;-0.361572265625;-0.80084228515625;0.33160400390625;10.80871124581208;11.904397736023027;2.754393469854342;-0.29736328125;0.76220703125;0.4765625;-1.125;-0.125;0.3125
2.0;0.3433837890625;-0.36151123046875;-0.80078125;0.33184814453125;10.806068846828682;11.903646462056548;2.7551373791882368;-0.29541015625;0.76318359375;0.47265625;-1.3125;0.25;1.1875
2.0;0.34295654296875;-0.361328125;-0.80096435546875;0.33209228515625;10.802315922215861;11.90095256988917;2.754550343857817;-0.2919921875;0.76025390625;0.470703125;-1.25;-0.25;1.5
2.0;0.34259033203125;-0.3612060546875;-0.80108642578125;0.33233642578125;10.79867698726694;11.898879379992028;2.7542793710430264;-0.2939453125;0.75830078125;0.47900390625;-2.125;-1.1875;1.3125
2.0;0.34246826171875;-0.36114501953125;-0.8011474609375;0.3323974609375;10.797709728512379;11.898051384219354;2.754054852357512;-0.287109375;0.75;0.48046875;-1.5625;-1.1875;1.25
2.0;0.34234619140625;-0.36114501953125;-0.80108642578125;0.3326416015625;10.7952531843236;11.897740137183996;2.754943143558099;-0.298828125;0.75732421875;0.4765625;-0.5;-0.75;1.0
2.0;0.342041015625;-0.36090087890625;-0.80126953125;0.33282470703125;10.793189324124326;11.895159437128976;2.7544869912729966;-0.29345703125;0.76025390625;0.46923828125;-1.125;-0.125;1.3125
2.0;0.34161376953125;-0.360595703125;-0.80145263671875;0.3330078125;10.790427300794647;11.891967450771816;2.753711013087205;-0.296875;0.759765625;0.478515625;-2.4375;-0.9375;1.0625
2.0;0.34161376953125;-0.360595703125;-0.801513671875;0.3330078125;10.790497281803695;11.891788646367772;2.7535395877626487;-0.29052734375;0.744140625;0.48046875;-2.125;-1.4375;1.0
2.0;0.34161376953125;-0.36053466796875;-0.801513671875;0.3330078125;10.790823524747609;11.891519661307663;2.7535763451423043;-0.28955078125;0.74365234375;0.4892578125;-0.9375;-0.5;-0.1875
2.0;0.34161376953125;-0.36041259765625;-0.80157470703125;0.33294677734375;10.791886169648468;11.890839565494494;2.7532093382370904;-0.29833984375;0.744140625;0.48193359375;0.0625;-0.375;-0.625
2.0;0.342041015625;-0.3604736328125;-0.801513671875;0.33270263671875;10.796434433266903;11.892634572023479;2.753520264629104;-0.29150390625;0.7353515625;0.48779296875;1.0;0.1875;0.125
2.0;0.34234619140625;-0.3603515625;-0.801513671875;0.33245849609375;10.801007771762325;11.893100928638432;2.753412634934631;-0.29296875;0.75;0.4775390625;1.8125;1.125;-1.5625
2.0;0.34259033203125;-0.360107421875;-0.8016357421875;0.3321533203125;10.806202030650033;11.89253560468567;2.7525865562005;-0.29736328125;0.7529296875;0.484375;1.1875;1.3125;-1.75
2.0;0.34259033203125;-0.3599853515625;-0.8018798828125;0.33172607421875;10.809515674524542;11.89153467057981;2.750088579377703;-0.30517578125;0.75244140625;0.486328125;0.375;0.3125;-1.875
2.0;0.34259033203125;-0.36016845703125;-0.802001953125;0.331298828125;10.811059571109853;11.892236865827078;2.7477524693323736;-0.302734375;0.7373046875;0.48876953125;1.25;-1.375;-1.375
2.0;0.34295654296875;-0.36077880859375;-0.80181884765625;0.33062744140625;10.814414229879686;11.896893675228668;2.746021565392313;-0.298828125;0.73291015625;0.48486328125;2.9375;-1.4375;-1.125
2.0;0.34344482421875;-0.36114501953125;-0.8017578125;0.3299560546875;10.820237809246077;11.900457474139266;2.744454127827242;-0.29736328125;0.75390625;0.4765625;5.0625;-0.75;-2.0
2.0;0.34375;-0.36138916015625;-0.80169677734375;0.32952880859375;10.823814889878221;11.902823787991743;2.743497910190737;-0.30615234375;0.76123046875;0.46728515625;3.5625;-0.25;-2.5625
2.0;0.34381103515625;-0.361572265625;-0.8016357421875;0.329345703125;10.824306237191216;11.904090660075184;2.7429344105938043;-0.3076171875;0.7705078125;0.46240234375;1.5625;-0.4375;-1.5
2.0;0.34368896484375;-0.36175537109375;-0.80169677734375;0.32916259765625;10.823401588039145;11.90448266181911;2.741487393037329;-0.2978515625;0.75927734375;0.46826171875;1.3125;-0.625;-0.6875
2.0;0.3436279296875;-0.36199951171875;-0.80169677734375;0.32891845703125;10.822956889083546;11.905531524961601;2.740086915179144;-0.29541015625;0.75048828125;0.47265625;1.0625;-1.4375;0.0
2.0;0.3436279296875;-0.36224365234375;-0.8016357421875;0.3287353515625;10.822613507105576;11.906896099031862;2.739307035528235;-0.2958984375;0.75634765625;0.470703125;1.375;-1.3125;-0.375
2.0;0.3436279296875;-0.3623046875;-0.8016357421875;0.3287353515625;10.822288019877957;11.907165168507348;2.7392710171505534;-0.296875;0.76708984375;0.46484375;1.25;-1.0;-0.375
2.0;0.34356689453125;-0.36248779296875;-0.8016357421875;0.32861328125;10.821485581746522;11.907873115108497;2.7384445146179166;-0.294921875;0.76806640625;0.47314453125;0.1875;-0.75;-0.25
2.0;0.34326171875;-0.36248779296875;-0.8017578125;0.32867431640625;10.818723853839327;11.906620501368693;2.7374699705583305;-0.2978515625;0.7734375;0.46533203125;0.0625;-1.25;-0.0625
2.0;0.34320068359375;-0.362548828125;-0.80169677734375;0.3287353515625;10.817476395923041;11.906862561321802;2.7376940059621204;-0.29296875;0.7578125;0.4755859375;-0.6875;-1.5625;0.8125
2.0;0.3428955078125;-0.3624267578125;-0.80181884765625;0.328857421875;10.815022109968956;11.90503632289735;2.7370616499785525;-0.283203125;0.77392578125;0.46923828125;0.0625;-0.875;0.625
2.0;0.3426513671875;-0.3624267578125;-0.8018798828125;0.3289794921875;10.812360027026605;11.904099962651356;2.7367089985103217;-0.2900390625;0.75732421875;0.47265625;-1.625;-1.0;0.625
2.0;0.34234619140625;-0.36236572265625;-0.802001953125;0.3289794921875;10.810263237849167;11.902616064615417;2.735503665155056;-0.28955078125;0.7568359375;0.46875;-1.0;-1.125;0.8125
2.0;0.342041015625;-0.3621826171875;-0.80218505859375;0.3291015625;10.808199928214346;11.900342252066112;2.7347388784545688;-0.2919921875;0.76318359375;0.47705078125;-1.125;-1.4375;0.3125
2.0;0.34173583984375;-0.362060546875;-0.80230712890625;0.32928466796875;10.805400922191813;11.898482049651324;2.7343792971938234;-0.29541015625;0.763671875;0.47705078125;-2.125;-1.3125;0.5625
2.0;0.34149169921875;-0.3619384765625;-0.80242919921875;0.3294677734375;10.803113984802906;11.896793102306964;2.734200145095056;-0.29296875;0.75927734375;0.4716796875;-2.0625;-1.125;0.8125
2.0;0.3409423828125;-0.3616943359375;-0.80267333984375;0.3297119140625;10.798708794419472;11.893317752093184;2.733125804932673;-0.29931640625;0.77294921875;0.4736328125;-1.9375;-1.3125;1.0
2.0;0.3404541015625;-0.36138916015625;-0.80291748046875;0.3299560546875;10.795138714389111;11.889744963414998;2.732269406586025;-0.29833984375;0.76708984375;0.4794921875;-3.5;-2.0625;1.5
2.0;0.3399658203125;-0.36102294921875;-0.80322265625;0.3302001953125;10.791959199917805;11.88572494857737;2.7312809529129285;-0.29052734375;0.75732421875;0.47021484375;-3.75;-1.9375;1.25
2.0;0.339599609375;-0.36083984375;-0.8033447265625;0.3304443359375;10.788627504451576;11.883392342124427;2.7310556210297467;-0.29443359375;0.74365234375;0.48046875;-3.1875;-1.8125;1.125
2.0;0.33935546875;-0.3604736328125;-0.803466796875;0.33074951171875;10.786956527560912;11.880555201924194;2.7315659093453437;-0.29150390625;0.759765625;0.486328125;-1.9375;-0.875;1.3125
2.0;0.33892822265625;-0.36029052734375;-0.8035888671875;0.33099365234375;10.783110387249513;11.878052991379176;2.731165076801312;-0.29736328125;0.75732421875;0.4775390625;-3.3125;-0.5625;1.3125
2.0;0.33868408203125;-0.36004638671875;-0.8038330078125;0.3310546875;10.782283684272855;11.875543426191882;2.730184934152551;-0.283203125;0.75146484375;0.48388671875;-2.0625;-0.9375;1.0625
2.0;0.33843994140625;-0.3597412109375;-0.80401611328125;0.3311767578125;10.78137291501506;11.872906325767651;2.729681411916792;-0.28955078125;0.7509765625;0.4853515625;-1.75;-0.9375;0.1875
2.0;0.33843994140625;-0.3597412109375;-0.80401611328125;0.3311767578125;10.78137291501506;11.872906325767651;2.729681411916792;-0.2880859375;0.74462890625;0.4921875;-1.375;-0.5;0.25
2.0;0.33856201171875;-0.359619140625;-0.8040771484375;0.33099365234375;10.784134223422772;11.872635287082025;2.7291274558589604;-0.28515625;0.75634765625;0.48681640625;0.625;0.3125;-1.0
2.0;0.33843994140625;-0.35931396484375;-0.80426025390625;0.3309326171875;10.785267086738436;11.870445008387742;2.728168215977835;-0.29541015625;0.759765625;0.47509765625;-0.6875;-0.25;-1.25
2.0;0.33856201171875;-0.359375;-0.80426025390625;0.330810546875;10.786649588619404;11.871126804801584;2.7279477674573562;-0.2939453125;0.74169921875;0.49462890625;-1.0625;-0.25;-0.375
2.0;0.33856201171875;-0.35931396484375;-0.80438232421875;0.33056640625;10.788463025826882;11.870642137753185;2.726561055300284;-0.29052734375;0.75732421875;0.48486328125;1.0625;-0.125;-0.6875
2.0;0.33856201171875;-0.3594970703125;-0.80438232421875;0.330322265625;10.7888459875719;11.871594789956873;2.72537329790311;-0.298828125;0.7548828125;0.490234375;0.25;-0.75;-1.0625
2.0;0.33868408203125;-0.3597412109375;-0.8043212890625;0.33013916015625;10.789529107809306;11.8733008866465;2.7249469446222534;-0.29541015625;0.7509765625;0.48486328125;1.4375;-0.8125;-0.1875
2.0;0.3387451171875;-0.35986328125;-0.8043212890625;0.32989501953125;10.790752068461153;11.874153175811566;2.723972778533251;-0.2880859375;0.76171875;0.48193359375;1.5;-0.25;-0.75
2.0;0.33905029296875;-0.3602294921875;-0.80413818359375;0.32977294921875;10.7918581643194;11.877231513625555;2.7246216231574616;-0.2939453125;0.76416015625;0.486328125;1.125;-0.3125;-1.0625
2.0;0.33929443359375;-0.360595703125;-0.803955078125;0.32952880859375;10.79312793820171;11.880210622133895;2.7245522137947615;-0.28662109375;0.75390625;0.4814453125;3.0;0.625;-0.3125
2.0;0.3394775390625;-0.36114501953125;-0.8037109375;0.32928466796875;10.792844911147311;11.88400883862002;2.7243683847383653;-0.2890625;0.763671875;0.47705078125;2.8125;0.1875;-0.75
2.0;0.339599609375;-0.36138916015625;-0.8035888671875;0.3291015625;10.793462531498648;11.885893626771034;2.7241135306648463;-0.2890625;0.771484375;0.47265625;2.8125;-0.125;-0.4375
2.0;0.33978271484375;-0.3619384765625;-0.8033447265625;0.32904052734375;10.792158949844275;11.889584887461647;2.724739441757026;-0.294921875;0.7705078125;0.4833984375;1.6875;-0.125;-0.3125
2.0;0.33978271484375;-0.3619384765625;-0.80328369140625;0.32904052734375;10.792090887426438;11.889763801891574;2.724909558959046;-0.294921875;0.77392578125;0.4658203125;2.125;-0.4375;0.6875
2.0;0.33978271484375;-0.36199951171875;-0.80328369140625;0.32904052734375;10.791767157689383;11.890033704191211;2.724873778473725;-0.29541015625;0.77490234375;0.47265625;0.125;-0.625;0.875
2.0;0.33978271484375;-0.36199951171875;-0.80328369140625;0.32904052734375;10.791767157689383;11.890033704191211;2.724873778473725;-0.28857421875;0.7734375;0.4736328125;-0.75;-1.0;0.9375
2.0;0.33978271484375;-0.36199951171875;-0.80328369140625;0.32904052734375;10.791767157689383;11.890033704191211;2.724873778473725;-0.2841796875;0.763671875;0.4697265625;-0.1875;-0.75;0.8125
2.0;0.33978271484375;-0.362060546875;-0.80328369140625;0.32904052734375;10.791443448672975;11.890303591759253;2.7248379841972934;-0.29248046875;0.763671875;0.4736328125;-0.8125;-0.75;0.125
2.0;0.33978271484375;-0.36187744140625;-0.80328369140625;0.32916259765625;10.791733735657857;11.889422335808533;2.725485146856404;-0.287109375;0.7568359375;0.470703125;-0.9375;-0.4375;0.5
2.0;0.33966064453125;-0.3614501953125;-0.803466796875;0.32928466796875;10.792496373234764;11.886584428405518;2.725407053302848;-0.2890625;0.75927734375;0.470703125;-1.6875;0.25;0.125
2.0;0.33935546875;-0.36114501953125;-0.80364990234375;0.32952880859375;10.790389456972774;11.883704762659306;2.7252616164719563;-0.29931640625;0.75732421875;0.48046875;-2.625;-0.125;0.375
2.0;0.33935546875;-0.3609619140625;-0.8037109375;0.32965087890625;10.790749063921142;11.882644684958795;2.72573851885686;-0.28857421875;0.75244140625;0.4814453125;-2.6875;-0.5;0.75
2.0;0.3392333984375;-0.36090087890625;-0.80364990234375;0.32989501953125;10.788618061916207;11.882070160409992;2.726667659413112;-0.296875;0.76025390625;0.4765625;-1.1875;-0.0625;0.5
2.0;0.33905029296875;-0.3607177734375;-0.8037109375;0.33013916015625;10.786757029401713;11.880428192525226;2.727149672391401;-0.28955078125;0.7626953125;0.47265625;-1.75;0.0625;1.0
2.0;0.33892822265625;-0.36077880859375;-0.80364990234375;0.33038330078125;10.78397886496259;11.880393325087018;2.7280078011383178;-0.2861328125;0.76318359375;0.47607421875;-2.0625;0.0625;0.9375
2.0;0.3389892578125;-0.36077880859375;-0.8035888671875;0.3304443359375;10.784085406832892;11.880705991763994;2.728626318998111;-0.2880859375;0.7685546875;0.48046875;-0.875;0.125;1.1875
2.0;0.3387451171875;-0.36102294921875;-0.8035888671875;0.33050537109375;10.780393675742031;11.881069768418051;2.7280398615567765;-0.28564453125;0.76220703125;0.47216796875;-1.0;-0.4375;0.8125
2.0;0.33843994140625;-0.36090087890625;-0.8037109375;0.33050537109375;10.778606367635902;11.87932306888951;2.7268805687516298;-0.28173828125;0.76806640625;0.4716796875;-0.5;-1.25;0.625
2.0;0.33843994140625;-0.3609619140625;-0.8037109375;0.33050537109375;10.778282633009345;11.879593181056153;2.726844716356468;-0.29248046875;0.76513671875;0.48291015625;-1.4375;-1.5625;0.4375
2.0;0.3382568359375;-0.36077880859375;-0.80389404296875;0.3304443359375;10.778254017356257;11.877774349287405;2.7256378145809625;-0.29248046875;0.767578125;0.478515625;-1.0;-1.0;0.25
2.0;0.33795166015625;-0.36065673828125;-0.8040771484375;0.3304443359375;10.776531920185763;11.875850375725593;2.7243095857233817;-0.29443359375;0.76123046875;0.478515625;-1.625;-1.5625;-0.125
2.0;0.33770751953125;-0.36041259765625;-0.8043212890625;0.33038330078125;10.776376488446909;11.873413788091808;2.7227910027432656;-0.2900390625;0.7646484375;0.48388671875;-1.75;-1.625;-0.125
2.0;0.33770751953125;-0.36041259765625;-0.8043212890625;0.33038330078125;10.776376488446909;11.873413788091808;2.7227910027432656;-0.2900390625;0.759765625;0.4892578125;-1.625;-1.125;-0.6875
2.0;0.3375244140625;-0.36041259765625;-0.804443359375;0.330322265625;10.775305407282467;11.872584490433624;2.721647639659148;-0.29638671875;0.75634765625;0.49267578125;-0.125;-0.875;0.0
2.0;0.33740234375;-0.36065673828125;-0.804443359375;0.33013916015625;10.773998252144963;11.873433708817707;2.7203383937486563;-0.291015625;0.74560546875;0.4873046875;0.3125;-1.1875;0.25
2.0;0.3372802734375;-0.3607177734375;-0.8045654296875;0.3299560546875;10.773796176375226;11.87311608805039;2.7187966003472197;-0.2841796875;0.76513671875;0.4853515625;1.0;-1.5;-0.25
2.0;0.3372802734375;-0.36083984375;-0.8045654296875;0.3297119140625;10.774505228869176;11.87379918065759;2.7176434604617006;-0.28759765625;0.75390625;0.48583984375;0.4375;-1.25;-0.6875
2.0;0.33740234375;-0.36102294921875;-0.80462646484375;0.329345703125;10.776668065869218;11.874984653489472;2.716100110366961;-0.28662109375;0.75537109375;0.48095703125;1.125;-0.6875;-1.1875
2.0;0.33746337890625;-0.3609619140625;-0.8046875;0.3291015625;10.778929371876758;11.874847090860566;2.715061685263107;-0.28369140625;0.75927734375;0.4814453125;1.25;-0.375;-1.8125
2.0;0.33746337890625;-0.361083984375;-0.80474853515625;0.328857421875;10.779707365876245;11.875351556544073;2.713739137460248;-0.2890625;0.7587890625;0.48095703125;0.125;-0.5625;-1.5
2.0;0.3375244140625;-0.3614501953125;-0.80462646484375;0.32867431640625;10.779170117102455;11.877606739456967;2.713232283009139;-0.28955078125;0.7548828125;0.48583984375;1.1875;-0.75;-1.0
2.0;0.33770751953125;-0.36187744140625;-0.804443359375;0.3284912109375;10.779273918881836;11.880649378328254;2.7132156714745728;-0.28759765625;0.7587890625;0.48193359375;2.4375;-0.5625;-0.1875
2.0;0.33782958984375;-0.36224365234375;-0.80426025390625;0.328369140625;10.778845526587618;11.883216724484535;2.713326612575725;-0.28759765625;0.7587890625;0.47216796875;2.375;-0.375;-0.0625
2.0;0.33795166015625;-0.362548828125;-0.80413818359375;0.32818603515625;10.779147156019434;11.885370820613577;2.71303330850375;-0.2900390625;0.7578125;0.4736328125;1.9375;-0.1875;0.375
2.0;0.3380126953125;-0.3629150390625;-0.80401611328125;0.328125;10.77793182189215;11.887554649124855;2.7130663942367734;-0.296875;0.75927734375;0.47314453125;1.8125;-0.5;0.1875
2.0;0.338134765625;-0.36322021484375;-0.8038330078125;0.3280029296875;10.777825653418917;11.889851677324188;2.713212498949951;-0.2880859375;0.76708984375;0.474609375;1.625;-0.5;0.3125
2.0;0.338134765625;-0.36328125;-0.8038330078125;0.3280029296875;10.777503292126966;11.89012186002626;2.7131767423375623;-0.29345703125;0.76513671875;0.46630859375;1.4375;-0.3125;0.3125
2.0;0.338134765625;-0.36328125;-0.8038330078125;0.3280029296875;10.777503292126966;11.89012186002626;2.7131767423375623;-0.28564453125;0.77001953125;0.4697265625;0.6875;-0.375;0.5
2.0;0.33819580078125;-0.36334228515625;-0.80377197265625;0.3280029296875;10.777627321058628;11.89074000672855;2.7134889507347184;-0.28662109375;0.7626953125;0.46533203125;0.25;0.25;0.6875
2.0;0.33819580078125;-0.36334228515625;-0.80377197265625;0.3280029296875;10.777627321058628;11.89074000672855;2.7134889507347184;-0.28466796875;0.765625;0.4658203125;0.625;0.4375;0.375
2.0;0.33819580078125;-0.3634033203125;-0.80377197265625;0.3280029296875;10.777304955038963;11.891010148403193;2.7134531551152947;-0.2890625;0.75830078125;0.46923828125;-0.0625;0.25;0.75
2.0;0.3380126953125;-0.36309814453125;-0.80389404296875;0.328125;10.776828687608303;11.888722582768413;2.713297801577963;-0.27685546875;0.77099609375;0.46923828125;-0.1875;0.25;0.375
2.0;0.33782958984375;-0.3629150390625;-0.80401611328125;0.32818603515625;10.776047472753145;11.88701120851887;2.7128009701078697;-0.28271484375;0.7646484375;0.4814453125;-2.125;-0.1875;-0.4375
2.0;0.33782958984375;-0.3629150390625;-0.80401611328125;0.32818603515625;10.776047472753145;11.88701120851887;2.7128009701078697;-0.28564453125;0.7685546875;0.48486328125;-1.8125;-0.1875;-0.1875
2.0;0.3377685546875;-0.36273193359375;-0.8040771484375;0.32830810546875;10.775887657818677;11.885781197693811;2.713100874025303;-0.2919921875;0.76220703125;0.47509765625;-1.0;0.125;0.125
2.0;0.33746337890625;-0.36260986328125;-0.80419921875;0.3284912109375;10.77307396111317;11.883930616259873;2.712752798354614;-0.29541015625;0.7626953125;0.47607421875;-1.625;-0.25;0.375
2.0;0.337158203125;-0.36279296875;-0.80413818359375;0.3287353515625;10.768104999143606;11.883931320021553;2.7130047463344975;-0.29541015625;0.74951171875;0.48046875;-1.25;-1.3125;1.8125
2.0;0.33673095703125;-0.363037109375;-0.80413818359375;0.32891845703125;10.762191348695637;11.88372198698696;2.7124251884321327;-0.291015625;0.75;0.47314453125;-0.25;-1.625;2.5625
2.0;0.3363037109375;-0.3634033203125;-0.8040771484375;0.32916259765625;10.755225867734282;11.884195893194171;2.7122130301754783;-0.28271484375;0.75048828125;0.470703125;-0.375;-2.3125;2.4375
2.0;0.336181640625;-0.36383056640625;-0.80389404296875;0.3292236328125;10.751396163835198;11.886247983656236;2.712380354227398;-0.28173828125;0.75927734375;0.48193359375;0.4375;-1.8125;2.375
2.0;0.336181640625;-0.36419677734375;-0.8037109375;0.3292236328125;10.749258045121271;11.888403093895501;2.7126685359314147;-0.27685546875;0.7685546875;0.4833984375;1.875;-0.75;1.25
2.0;0.33624267578125;-0.3643798828125;-0.80364990234375;0.3291015625;10.749418244991283;11.889632936559355;2.712365892384605;-0.2802734375;0.77685546875;0.482421875;1.5;0.0;0.375
2.0;0.33636474609375;-0.36456298828125;-0.80364990234375;0.328857421875;10.750843049762933;11.89092598621466;2.711532702565729;-0.2802734375;0.775390625;0.48876953125;1.4375;0.0625;-0.5
2.0;0.33642578125;-0.36468505859375;-0.8037109375;0.3284912109375;10.752824241771485;11.891674512634976;2.7098490799007373;-0.28564453125;0.76806640625;0.48095703125;1.5;-0.1875;-1.3125
2.0;0.33642578125;-0.36468505859375;-0.8038330078125;0.32818603515625;10.754662758863772;11.891499082871634;2.7081612101135875;-0.2880859375;0.76708984375;0.4873046875;1.5;-0.6875;-1.5
2.0;0.33648681640625;-0.36474609375;-0.80389404296875;0.327880859375;10.756626237223388;11.891940193151722;2.7067838923965266;-0.28564453125;0.76318359375;0.4814453125;0.5625;-1.0;-1.6875
2.0;0.33673095703125;-0.36492919921875;-0.80389404296875;0.327392578125;10.760445707493911;11.89371345798099;2.7052278402003678;-0.2900390625;0.7607421875;0.48046875;0.625;-0.8125;-1.625
2.0;0.3370361328125;-0.36529541015625;-0.8038330078125;0.32696533203125;10.763409372129605;11.896607954598755;2.7041822096190877;-0.29248046875;0.75927734375;0.47021484375;2.0625;-0.6875;-1.8125
2.0;0.337158203125;-0.36566162109375;-0.80364990234375;0.32672119140625;10.763669916284012;11.899246473334946;2.7037485321409673;-0.29931640625;0.7724609375;0.46240234375;1.6875;-1.0;-1.1875
2.0;0.3372802734375;-0.3660888671875;-0.80352783203125;0.32647705078125;10.76367908216882;11.901976283979813;2.703110372131434;-0.294921875;0.76171875;0.46240234375;2.0;-1.0;0.0625
2.0;0.33746337890625;-0.36651611328125;-0.80340576171875;0.32611083984375;10.764887045509596;11.904946698702824;2.702111478287611;-0.28662109375;0.759765625;0.4609375;2.25;-1.0;-0.1875
2.0;0.337646484375;-0.36676025390625;-0.8033447265625;0.3258056640625;10.766786544394758;11.906891725958415;2.7013232540229826;-0.28759765625;0.7607421875;0.4541015625;2.0625;-0.8125;-1.0
2.0;0.33770751953125;-0.36676025390625;-0.80328369140625;0.3258056640625;10.767232089425622;11.907239473576327;2.7016710016408956;-0.2919921875;0.765625;0.46044921875;1.3125;-0.4375;-0.9375
2.0;0.33746337890625;-0.3668212890625;-0.80340576171875;0.3258056640625;10.76499114415735;11.906477377994593;2.7005807989958392;-0.29541015625;0.7724609375;0.46435546875;0.625;-0.8125;-0.5
2.0;0.3372802734375;-0.366943359375;-0.803466796875;0.32574462890625;10.763216618141186;11.906369483754851;2.699532408174355;-0.2841796875;0.76708984375;0.4716796875;-0.6875;-1.5625;0.1875
2.0;0.3372802734375;-0.366943359375;-0.80340576171875;0.32574462890625;10.763147693110792;11.906548754284975;2.699700621001669;-0.28271484375;0.76513671875;0.47412109375;-0.0625;-1.125;0.25
2.0;0.33721923828125;-0.36700439453125;-0.80340576171875;0.3258056640625;10.761970723206238;11.906614364208814;2.6997551720408395;-0.27880859375;0.76953125;0.47119140625;-0.125;-0.5;-0.0625
2.0;0.33721923828125;-0.36700439453125;-0.80340576171875;0.3258056640625;10.761970723206238;11.906614364208814;2.6997551720408395;-0.27978515625;0.7763671875;0.478515625;-0.5;-0.625;0.375
2.0;0.33673095703125;-0.36700439453125;-0.80364990234375;0.32574462890625;10.758469631339553;11.904588987122743;2.697379290980709;-0.27197265625;0.771484375;0.484375;-0.4375;-0.8125;0.75
2.0;0.3365478515625;-0.36761474609375;-0.80340576171875;0.32574462890625;10.753445751318182;11.907502207271646;2.697151272772319;-0.28369140625;0.7470703125;0.49365234375;0.3125;-2.0625;0.5625
2.0;0.3365478515625;-0.36822509765625;-0.8033447265625;0.32537841796875;10.752226424439261;11.910599472723566;2.6953354417474498;-0.26806640625;0.75146484375;0.48388671875;3.875;-0.875;1.25
2.0;0.336669921875;-0.36895751953125;-0.80316162109375;0.3248291015625;10.752288637380431;11.91503986848545;2.693330788062282;-0.27880859375;0.763671875;0.482421875;4.1875;-1.4375;-0.8125
2.0;0.337158203125;-0.37030029296875;-0.80255126953125;0.32415771484375;10.75244476822536;11.924514683588777;2.6926720990366575;-0.27978515625;0.7548828125;0.482421875;5.875;-1.5625;-1.0
2.0;0.337646484375;-0.371337890625;-0.8021240234375;0.32366943359375;10.753381631506572;11.93199171213632;2.692503970863843;-0.279296875;0.763671875;0.46240234375;9.375;-0.25;-0.625
2.0;0.33807373046875;-0.37213134765625;-0.8017578125;0.3231201171875;10.755498581442033;11.938080608200444;2.6918680912041206;-0.27685546875;0.765625;0.46630859375;7.5;0.0625;-1.0625
2.0;0.3387451171875;-0.37310791015625;-0.80120849609375;0.3226318359375;10.758153873294123;11.946153279135585;2.692618564179166;-0.27587890625;0.75927734375;0.46484375;6.375;0.375;-1.4375
2.0;0.33935546875;-0.3741455078125;-0.80072021484375;0.3221435546875;10.760044898984287;11.954147230845575;2.692986611353889;-0.28125;0.77197265625;0.4580078125;7.5;1.0;-1.0625
2.0;0.33990478515625;-0.3748779296875;-0.80023193359375;0.32183837890625;10.761979079651663;11.960518836547159;2.6941689361618346;-0.28466796875;0.779296875;0.4453125;6.5625;0.75;-1.0
2.0;0.34033203125;-0.37530517578125;-0.79998779296875;0.32159423828125;10.764423822690665;11.964449103029127;2.694775877976442;-0.28271484375;0.77978515625;0.44384765625;4.75;1.0625;-0.6875
2.0;0.340576171875;-0.37493896484375;-0.800048828125;0.32147216796875;10.769152379677362;11.96340296944921;2.69502545350231;-0.28369140625;0.78759765625;0.4365234375;2.0;0.5625;-1.125
2.0;0.34100341796875;-0.3746337890625;-0.800048828125;0.32147216796875;10.77433009792007;11.963236097288334;2.6964879679100555;-0.29052734375;0.791015625;0.4541015625;-2.0;1.125;-2.25
2.0;0.34130859375;-0.3740234375;-0.80010986328125;0.3216552734375;10.779116577337765;11.961098232976765;2.6984099857517645;-0.2939453125;0.7939453125;0.4443359375;-2.3125;2.125;-1.5625
2.0;0.34149169921875;-0.37322998046875;-0.80035400390625;0.32183837890625;10.784057688000754;11.957273009443703;2.6995730361884998;-0.28955078125;0.78759765625;0.45654296875;-3.4375;2.75;-1.375
2.0;0.34149169921875;-0.372314453125;-0.80072021484375;0.32196044921875;10.788595969079164;11.952078227854535;2.699655271734163;-0.29150390625;0.76513671875;0.45458984375;-4.625;1.8125;-1.5
2.0;0.34149169921875;-0.37152099609375;-0.80108642578125;0.322021484375;10.792838949524981;11.94745644019898;2.6993910588174774;-0.2880859375;0.7626953125;0.4619140625;-4.6875;1.375;-1.8125
2.0;0.3416748046875;-0.37103271484375;-0.8011474609375;0.32220458984375;10.795972654650988;11.945519901139827;2.7008672495749457;-0.29150390625;0.7626953125;0.46875;-4.0625;0.875;-1.8125
2.0;0.34185791015625;-0.3704833984375;-0.80126953125;0.32232666015625;10.799844593857408;11.94316964026158;2.701941299711183;-0.28662109375;0.765625;0.45751953125;-2.9375;1.9375;-0.75
2.0;0.34185791015625;-0.37005615234375;-0.8013916015625;0.3223876953125;10.801886239568091;11.940887012924883;2.702127208202003;-0.2919921875;0.76953125;0.4541015625;-3.0625;1.4375;-1.3125
2.0;0.3419189453125;-0.36956787109375;-0.8016357421875;0.3223876953125;10.805244512431617;11.938176884488266;2.70192296920772;-0.29052734375;0.7666015625;0.4638671875;-2.5625;0.9375;-0.9375
2.0;0.3421630859375;-0.3692626953125;-0.80169677734375;0.32232666015625;10.80931265027682;11.937362004589886;2.702391879934079;-0.29638671875;0.765625;0.46826171875;-2.1875;0.625;-1.375
2.0;0.34246826171875;-0.36895751953125;-0.80181884765625;0.322021484375;10.815342435008592;11.936678487377968;2.7017959959822493;-0.2958984375;0.75927734375;0.458984375;-1.125;1.0625;-1.1875
2.0;0.3427734375;-0.36871337890625;-0.80194091796875;0.32171630859375;10.821050342456548;11.936263336510658;2.701163430447177;-0.2998046875;0.763671875;0.45849609375;-1.125;0.625;-2.3125
2.0;0.343017578125;-0.368408203125;-0.80206298828125;0.32135009765625;10.82691370617121;11.935444166902329;2.7001144802914996;-0.30419921875;0.765625;0.4580078125;-0.6875;0.5625;-2.3125
2.0;0.343017578125;-0.3682861328125;-0.8023681640625;0.3209228515625;10.830312160723949;11.934243456184001;2.6974524045996344;-0.3076171875;0.7626953125;0.4677734375;-0.25;0.3125;-2.375
2.0;0.34326171875;-0.36834716796875;-0.80242919921875;0.3204345703125;10.834869176370521;11.935290421639724;2.695819992649488;-0.30322265625;0.75537109375;0.47216796875;0.4375;-1.5;-2.25
2.0;0.3438720703125;-0.36883544921875;-0.80218505859375;0.3197021484375;10.84129660204122;11.940291641826796;2.6948058030741873;-0.30224609375;0.759765625;0.4697265625;1.875;-0.375;-2.25
2.0;0.3443603515625;-0.369384765625;-0.80206298828125;0.31890869140625;10.846864594571915;11.944893686395588;2.692787918230226;-0.3037109375;0.77197265625;0.4599609375;4.875;0.375;-3.1875
2.0;0.3448486328125;-0.369873046875;-0.80181884765625;0.31842041015625;10.850889987491538;11.949416669625254;2.6924945186543363;-0.3095703125;0.765625;0.4541015625;4.8125;-0.3125;-2.625
2.0;0.34503173828125;-0.3702392578125;-0.8017578125;0.3179931640625;10.852859170541755;11.951969448474223;2.6911184345885335;-0.302734375;0.76953125;0.458984375;4.25;0.3125;-1.6875
2.0;0.34521484375;-0.37091064453125;-0.80157470703125;0.3175048828125;10.853439404618824;11.956269811114547;2.6896371448907272;-0.30126953125;0.7548828125;0.4638671875;3.625;-0.375;-1.5
2.0;0.34539794921875;-0.3714599609375;-0.80145263671875;0.31683349609375;10.855777871044797;11.959953770318569;2.6872502335668393;-0.29150390625;0.75927734375;0.46533203125;5.4375;-0.6875;-1.3125
2.0;0.34588623046875;-0.371826171875;-0.80133056640625;0.3162841796875;10.860937163114999;11.963606555689388;2.686428012250727;-0.29296875;0.755859375;0.46728515625;5.0625;-0.9375;-2.25
2.0;0.34686279296875;-0.3720703125;-0.8011474609375;0.3153076171875;10.87319583039103;11.968506634813998;2.6854415296386396;-0.28857421875;0.76171875;0.4580078125;4.5625;1.0625;-3.3125
2.0;0.3477783203125;-0.37188720703125;-0.80120849609375;0.314453125;10.886760573212719;11.970546682859752;2.684382060560822;-0.3076171875;0.78515625;0.44921875;4.25;1.9375;-6.0
2.0;0.34832763671875;-0.3712158203125;-0.80145263671875;0.31402587890625;10.897587921984272;11.96861743368693;2.6838635488479037;-0.3134765625;0.7822265625;0.4453125;1.0625;2.125;-6.125
2.0;0.3486328125;-0.37060546875;-0.8016357421875;0.3138427734375;10.904592701696705;11.966323471882582;2.6838132019560113;-0.318359375;0.775390625;0.4404296875;-2.875;1.6875;-4.375
2.0;0.34869384765625;-0.36968994140625;-0.802001953125;0.31390380859375;10.909963476305192;11.961309662095378;2.6837550428825416;-0.31298828125;0.76318359375;0.43701171875;-3.375;1.0;-2.6875
2.0;0.34857177734375;-0.3687744140625;-0.8023681640625;0.31414794921875;10.912758136793721;11.95568220940544;2.6839461490432948;-0.3173828125;0.7587890625;0.4521484375;-4.625;1.0625;-1.6875
2.0;0.3485107421875;-0.36822509765625;-0.80255126953125;0.31451416015625;10.913243192638125;11.952329737828688;2.685169551605709;-0.3173828125;0.7451171875;0.46435546875;-4.6875;0.625;-0.375
2.0;0.34832763671875;-0.36773681640625;-0.80267333984375;0.31494140625;10.911977522845342;11.949057169256541;2.686430513203024;-0.31640625;0.76318359375;0.458984375;-3.8125;0.875;0.8125
2.0;0.3480224609375;-0.36737060546875;-0.80279541015625;0.3154296875;10.908701819801157;11.945949451822637;2.6875265376598714;-0.32177734375;0.77490234375;0.45947265625;-3.875;0.1875;1.5625
2.0;0.3475341796875;-0.3670654296875;-0.8028564453125;0.3160400390625;10.902816625489255;11.942716936961132;2.68874889192706;-0.3154296875;0.76708984375;0.45654296875;-4.1875;-0.375;2.375
2.0;0.34710693359375;-0.36676025390625;-0.802978515625;0.316650390625;10.897507616933396;11.939470755261583;2.689987646757566;-0.31298828125;0.76806640625;0.45458984375;-4.0625;-0.8125;3.0625
2.0;0.3463134765625;-0.365966796875;-0.803466796875;0.31719970703125;10.89244371524709;11.931976106644672;2.689105814991868;-0.3076171875;0.76904296875;0.44873046875;-4.625;-0.9375;2.9375
2.0;0.34564208984375;-0.365234375;-0.80389404296875;0.31768798828125;10.888359191727906;11.92531157125621;2.688463392740124;-0.30517578125;0.76025390625;0.46142578125;-7.4375;-1.875;1.6875
2.0;0.34515380859375;-0.36431884765625;-0.80438232421875;0.3179931640625;10.887873245951955;11.918265314476866;2.687491301201175;-0.298828125;0.755859375;0.46337890625;-6.5;-1.5625;1.0
2.0;0.3448486328125;-0.36346435546875;-0.80487060546875;0.31817626953125;10.88928751595365;11.912066565131298;2.686491894804483;-0.30419921875;0.755859375;0.47509765625;-6.1875;-0.875;-0.3125
2.0;0.34466552734375;-0.36273193359375;-0.80517578125;0.318359375;10.890893086549921;11.907296055241456;2.686300391482415;-0.30517578125;0.755859375;0.47509765625;-5.625;-0.1875;-0.875
2.0;0.34466552734375;-0.36212158203125;-0.805419921875;0.3184814453125;10.893674624695063;11.903792626883043;2.686487326797299;-0.3046875;0.74658203125;0.46826171875;-4.125;0.3125;-0.8125
2.0;0.3447265625;-0.36114501953125;-0.80572509765625;0.31866455078125;10.898622073285042;11.898617844010166;2.687149047683579;-0.3095703125;0.7626953125;0.46435546875;-4.25;0.5;-1.0625
2.0;0.3446044921875;-0.3599853515625;-0.80621337890625;0.31890869140625;10.902838948651551;11.891538422666816;2.687116801563742;-0.31591796875;0.75927734375;0.4716796875;-5.875;1.4375;-1.4375
2.0;0.34429931640625;-0.359130859375;-0.80670166015625;0.31903076171875;10.904585718563833;11.885367112164305;2.685833184915837;-0.318359375;0.74658203125;0.47998046875;-6.25;0.625;-1.0625
2.0;0.3441162109375;-0.35894775390625;-0.80682373046875;0.319091796875;10.903789683225089;11.883645493677525;2.6853149031652057;-0.31884765625;0.7421875;0.4951171875;-4.375;-0.25;-0.4375
2.0;0.34393310546875;-0.3594970703125;-0.806640625;0.319091796875;10.899164247507407;11.886123110260476;2.68499730582091;-0.318359375;0.7421875;0.48876953125;-0.5;-1.125;0.8125
2.0;0.34405517578125;-0.36016845703125;-0.8062744140625;0.319091796875;10.896280942194554;11.890539854255959;2.686031535820848;-0.3037109375;0.74462890625;0.4853515625;3.375;-0.875;1.9375
2.0;0.3441162109375;-0.36053466796875;-0.80615234375;0.31903076171875;10.895080978441467;11.892734244431294;2.686089676027757;-0.30322265625;0.76025390625;0.47021484375;3.5625;-0.25;1.125
2.0;0.34429931640625;-0.36077880859375;-0.80596923828125;0.3189697265625;10.89549159585748;11.894908066404657;2.6867453844910774;-0.3115234375;0.76220703125;0.46826171875;1.4375;-0.3125;0.625
2.0;0.34429931640625;-0.3609619140625;-0.805908203125;0.31884765625;10.89514995828593;11.89596824915708;2.686276366306694;-0.3115234375;0.75439453125;0.47412109375;1.875;0.375;0.5625
2.0;0.34429931640625;-0.3612060546875;-0.80596923828125;0.31854248046875;10.895639206898329;11.897033347201239;2.684620103694498;-0.3046875;0.7490234375;0.47998046875;1.8125;-0.1875;-0.0625
2.0;0.34442138671875;-0.36187744140625;-0.8057861328125;0.318115234375;10.895344484018233;11.901129787535902;2.6832403301782004;-0.31201171875;0.74853515625;0.4892578125;2.8125;-1.1875;-0.4375
2.0;0.3447265625;-0.3629150390625;-0.8052978515625;0.31768798828125;10.89435271536242;11.908274181001683;2.6830629236326184;-0.31005859375;0.74951171875;0.4716796875;4.875;-1.4375;-0.375
2.0;0.34527587890625;-0.36383056640625;-0.80487060546875;0.31719970703125;10.896462165065532;11.915408286108722;2.68323881878851;-0.306640625;0.7587890625;0.470703125;6.8125;-0.3125;0.25
2.0;0.345458984375;-0.36431884765625;-0.8046875;0.31689453125;10.896964148893252;11.918797013936233;2.682681452854536;-0.3095703125;0.7666015625;0.4560546875;6.0625;0.1875;-0.625
2.0;0.34552001953125;-0.3648681640625;-0.8045654296875;0.3165283203125;10.896529792753803;11.921966132352699;2.6812849075998186;-0.310546875;0.76123046875;0.4638671875;3.5;-0.625;-0.5625
2.0;0.34552001953125;-0.36572265625;-0.8043212890625;0.3162841796875;10.893161378981219;11.926618155226722;2.680421357359541;-0.3173828125;0.76025390625;0.4716796875;3.75;-1.5;0.125
2.0;0.3455810546875;-0.36676025390625;-0.80389404296875;0.31597900390625;10.889501170904001;11.932833226717682;2.679877709081826;-0.3095703125;0.7568359375;0.470703125;5.25;-1.5;1.25
2.0;0.34576416015625;-0.3677978515625;-0.80352783203125;0.31549072265625;10.887970776948375;11.939304280602093;2.6787168046563004;-0.30615234375;0.76318359375;0.46533203125;6.5625;-1.5;1.125
2.0;0.34588623046875;-0.36846923828125;-0.80328369140625;0.31524658203125;10.886596703893163;11.943483344729296;2.6783131562351112;-0.30859375;0.77001953125;0.451171875;5.75;-1.5625;0.25
2.0;0.345703125;-0.36883544921875;-0.80328369140625;0.31500244140625;10.884528722452362;11.944729389270883;2.676479993840067;-0.30615234375;0.767578125;0.4453125;3.4375;-1.375;0.3125
2.0;0.34564208984375;-0.36907958984375;-0.80328369140625;0.3148193359375;10.883777972769042;11.945741039033633;2.6753514848927837;-0.30029296875;0.7705078125;0.46142578125;1.5625;-1.6875;-0.3125
2.0;0.34564208984375;-0.369384765625;-0.80316162109375;0.314697265625;10.882742876351296;11.947526052885694;2.6749817306589905;-0.3017578125;0.767578125;0.46630859375;1.5;-1.0;-0.4375
2.0;0.3455810546875;-0.3695068359375;-0.80328369140625;0.314453125;10.883110365879281;11.947663875626255;2.673311813161052;-0.3037109375;0.77001953125;0.46142578125;1.625;-0.8125;-0.25
2.0;0.34564208984375;-0.36981201171875;-0.80316162109375;0.31414794921875;10.883632401806029;11.949719456812584;2.6723158072630864;-0.30126953125;0.75439453125;0.46142578125;1.0625;-0.9375;-0.9375
2.0;0.34564208984375;-0.36981201171875;-0.80316162109375;0.31414794921875;10.883632401806029;11.949719456812584;2.6723158072630864;-0.30322265625;0.7744140625;0.4560546875;1.75;-0.8125;-0.9375
2.0;0.34564208984375;-0.369873046875;-0.80316162109375;0.31414794921875;10.88331202135665;11.949989441347462;2.6722820970279217;-0.3037109375;0.76953125;0.45458984375;0.875;-0.625;-0.625
2.0;0.345458984375;-0.36981201171875;-0.80322265625;0.31427001953125;10.881466518974829;11.9489603978256;2.672134773130045;-0.30078125;0.76904296875;0.45068359375;-0.6875;-0.875;0.0625
2.0;0.34515380859375;-0.36962890625;-0.80340576171875;0.3143310546875;10.879714343554815;11.946719236063212;2.6710792998997754;-0.30322265625;0.77392578125;0.45263671875;-1.75;-0.9375;0.4375
2.0;0.34490966796875;-0.3695068359375;-0.8035888671875;0.3143310546875;10.878499790628773;11.944951472508917;2.669904483997264;-0.306640625;0.7666015625;0.453125;-2.3125;-1.5;0.3125
2.0;0.3446044921875;-0.36944580078125;-0.8037109375;0.314453125;10.875693462098683;11.943401817322396;2.6692225548845867;-0.30908203125;0.76171875;0.45947265625;-1.625;-1.5;0.4375
2.0;0.34442138671875;-0.36932373046875;-0.80377197265625;0.3145751953125;10.874166612157516;11.942103753079673;2.6691108913191623;-0.30517578125;0.767578125;0.46142578125;-1.1875;-1.3125;0.5625
2.0;0.3441162109375;-0.36895751953125;-0.803955078125;0.31475830078125;10.872675158122629;11.938986358367739;2.6686997809911333;-0.29736328125;0.76953125;0.453125;-1.9375;-0.4375;0.4375
2.0;0.3438720703125;-0.36859130859375;-0.80419921875;0.31500244140625;10.87141171531779;11.935821470468579;2.6685742230021647;-0.2998046875;0.7705078125;0.4619140625;-3.375;-0.75;0.0625
2.0;0.3436279296875;-0.3682861328125;-0.8043212890625;0.3153076171875;10.869355088452076;11.933260118555426;2.6690242960813166;-0.298828125;0.7626953125;0.46337890625;-3.25;-0.4375;0.3125
2.0;0.3433837890625;-0.3680419921875;-0.80438232421875;0.31561279296875;10.866915857883592;11.931152238185135;2.669610705380348;-0.2958984375;0.76513671875;0.4658203125;-2.625;0.0625;0.625
2.0;0.34320068359375;-0.36767578125;-0.80450439453125;0.31585693359375;10.866039636226262;11.928522712495221;2.670008017850029;-0.3017578125;0.759765625;0.46826171875;-2.1875;0.0625;1.125
2.0;0.34307861328125;-0.3671875;-0.8046875;0.31610107421875;10.866380487587788;11.925338118025065;2.6704860240011388;-0.3037109375;0.76904296875;0.46630859375;-3.0;0.0;0.625
2.0;0.34283447265625;-0.36676025390625;-0.804931640625;0.3162841796875;10.865784238532614;11.921937370215641;2.6701261611302436;-0.3037109375;0.76123046875;0.4697265625;-3.125;0.25;0.1875
2.0;0.34283447265625;-0.36676025390625;-0.804931640625;0.3162841796875;10.865784238532614;11.921937370215641;2.6701261611302436;-0.302734375;0.7548828125;0.47021484375;-3.125;-0.3125;0.375
2.0;0.34283447265625;-0.36676025390625;-0.804931640625;0.3162841796875;10.865784238532614;11.921937370215641;2.6701261611302436;-0.29931640625;0.75244140625;0.47412109375;-0.9375;-0.5;0.6875
2.0;0.34283447265625;-0.36669921875;-0.80499267578125;0.3162841796875;10.866167293956556;11.921484216322192;2.6699904601643247;-0.3037109375;0.7578125;0.4658203125;-0.0625;-0.25;0.0625
2.0;0.34283447265625;-0.36669921875;-0.80499267578125;0.3162841796875;10.866167293956556;11.921484216322192;2.6699904601643247;-0.3115234375;0.75244140625;0.470703125;0.0;0.0625;0.25
2.0;0.34283447265625;-0.36669921875;-0.80499267578125;0.3162841796875;10.866167293956556;11.921484216322192;2.6699904601643247;-0.3046875;0.75927734375;0.46630859375;0.5;-0.1875;0.375
2.0;0.34283447265625;-0.36669921875;-0.80499267578125;0.3162841796875;10.866167293956556;11.921484216322192;2.6699904601643247;-0.30810546875;0.75830078125;0.4697265625;0.625;-0.1875;0.25
2.0;0.343017578125;-0.36700439453125;-0.8048095703125;0.31622314453125;10.866262700062753;11.92392539564401;2.6706071794796196;-0.29833984375;0.75927734375;0.46533203125;0.75;0.1875;0.4375
2.0;0.34326171875;-0.36737060546875;-0.8045654296875;0.3160400390625;10.86717829965291;11.927055511135679;2.6710007014575563;-0.29931640625;0.7607421875;0.4609375;1.8125;0.25;0.0625
2.0;0.3433837890625;-0.36761474609375;-0.80450439453125;0.31585693359375;10.867898105166939;11.928758836348923;2.6705893552666096;-0.30419921875;0.76318359375;0.46044921875;2.5625;0.4375;-0.0625
2.0;0.3433837890625;-0.3677978515625;-0.80450439453125;0.315673828125;10.867976299517348;11.929670922912411;2.6696772687031216;-0.31005859375;0.76513671875;0.4677734375;1.75;-0.375;-0.25
2.0;0.34344482421875;-0.3681640625;-0.8043212890625;0.3155517578125;10.867071467927815;11.932078510427445;2.6696248362983046;-0.3037109375;0.76025390625;0.47119140625;1.5;-0.75;-0.1875
2.0;0.34356689453125;-0.36871337890625;-0.8040771484375;0.31536865234375;10.866002362217603;11.935682870933217;2.669552501563401;-0.30078125;0.76416015625;0.4677734375;2.6875;-0.375;0.1875
2.0;0.34368896484375;-0.369384765625;-0.80377197265625;0.31524658203125;10.863882721254365;11.939977019789252;2.6698509734390776;-0.30517578125;0.76513671875;0.4638671875;3.5;-0.3125;0.625
2.0;0.34393310546875;-0.3702392578125;-0.8033447265625;0.3150634765625;10.862045248927966;11.945818812597985;2.67047962431589;-0.30224609375;0.75830078125;0.4638671875;4.4375;-0.125;1.0625
2.0;0.34417724609375;-0.370849609375;-0.80303955078125;0.31488037109375;10.861614121768838;11.950213126668466;2.670905804009965;-0.294921875;0.76318359375;0.45751953125;5.375;0.0625;0.75
2.0;0.344482421875;-0.3712158203125;-0.80291748046875;0.31451416015625;10.864211568301073;11.953248387903287;2.670336990970003;-0.294921875;0.77197265625;0.45947265625;4.0625;0.375;-0.125
2.0;0.34478759765625;-0.37158203125;-0.802734375;0.31414794921875;10.866745168577955;11.95646761360574;2.669938302549652;-0.29833984375;0.765625;0.45654296875;2.875;0.1875;-1.5625
2.0;0.34521484375;-0.37188720703125;-0.80267333984375;0.3135986328125;10.871797513726555;11.9594893514303;2.668796990417926;-0.29638671875;0.76708984375;0.45751953125;3.1875;0.375;-1.75
2.0;0.3455810546875;-0.37225341796875;-0.802490234375;0.31317138671875;10.875193608743785;11.962912163143157;2.668316568947043;-0.30859375;0.75927734375;0.453125;3.5;0.125;-2.0625
2.0;0.3458251953125;-0.37261962890625;-0.80230712890625;0.31280517578125;10.877220396075861;11.965963663612216;2.6677384368374404;-0.3095703125;0.76953125;0.455078125;3.625;0.3125;-1.6875
2.0;0.345947265625;-0.37298583984375;-0.80218505859375;0.3126220703125;10.87724303166667;11.968390495040026;2.6674314773180456;-0.3134765625;0.77099609375;0.45751953125;3.0625;-0.375;-0.6875
2.0;0.3460693359375;-0.373291015625;-0.80206298828125;0.3125;10.877235674980716;11.970513480304465;2.667428275492232;-0.30859375;0.77392578125;0.4560546875;2.3125;-0.4375;0.125
2.0;0.3460693359375;-0.373291015625;-0.802001953125;0.3125;10.877170690703771;11.970698328675015;2.667597040924252;-0.31005859375;0.76953125;0.44677734375;1.6875;-0.375;0.4375
2.0;0.3460693359375;-0.37335205078125;-0.802001953125;0.3125;10.87685111109373;11.970967747437205;2.6675627094232235;-0.30322265625;0.76220703125;0.4375;0.0625;-0.875;0.625
2.0;0.34588623046875;-0.37322998046875;-0.80206298828125;0.312744140625;10.874624762074854;11.969600465287373;2.6679859440102813;-0.306640625;0.7744140625;0.44970703125;-0.625;-0.375;0.8125
2.0;0.3455810546875;-0.37298583984375;-0.80224609375;0.31292724609375;10.872496885215984;11.967022043048294;2.6675023132073625;-0.302734375;0.7734375;0.45263671875;-1.8125;-0.5;1.0
2.0;0.34527587890625;-0.37298583984375;-0.80224609375;0.31317138671875;10.868545888038152;11.96604138512529;2.66765782291497;-0.3056640625;0.76708984375;0.4619140625;-2.0625;-0.9375;0.875
2.0;0.344970703125;-0.37274169921875;-0.80242919921875;0.31341552734375;10.866067984032162;11.963429595791977;2.6674460397792177;-0.30078125;0.7744140625;0.45166015625;-1.4375;-0.75;1.375
2.0;0.34466552734375;-0.3724365234375;-0.80255126953125;0.31365966796875;10.863844126510715;11.960732848682156;2.6674383522217915;-0.30029296875;0.765625;0.45556640625;-2.625;-0.8125;0.875
2.0;0.34429931640625;-0.37200927734375;-0.80279541015625;0.31390380859375;10.861877418847225;11.956960289460307;2.666979437005061;-0.30029296875;0.7705078125;0.46044921875;-2.5625;-0.4375;0.9375
2.0;0.3441162109375;-0.37176513671875;-0.80291748046875;0.31414794921875;10.860356616817313;11.954870789026671;2.6673073683759156;-0.30419921875;0.76611328125;0.45751953125;-3.75;-1.0;0.8125
2.0;0.34381103515625;-0.37127685546875;-0.80322265625;0.3143310546875;10.85963265142793;11.950848139469832;2.6666300372217626;-0.30126953125;0.76806640625;0.45068359375;-2.6875;-0.5;0.875
2.0;0.34356689453125;-0.3707275390625;-0.80352783203125;0.31451416015625;10.85973830010518;11.946724184807438;2.666170646705543;-0.3056640625;0.765625;0.45263671875;-4.0625;-1.0;0.0625
2.0;0.3431396484375;-0.37005615234375;-0.80389404296875;0.31475830078125;10.858661069416657;11.941337382181837;2.665331333647708;-0.30810546875;0.76513671875;0.45654296875;-4.5625;-0.75;0.0625
2.0;0.34271240234375;-0.36956787109375;-0.80419921875;0.31500244140625;10.856559175851789;11.936945224662935;2.6645603998456076;-0.30712890625;0.76318359375;0.4677734375;-4.6875;-1.1875;0.3125
2.0;0.34234619140625;-0.369384765625;-0.80438232421875;0.31524658203125;10.853244726199888;11.934440473592066;2.664142152026338;-0.30126953125;0.755859375;0.4658203125;-3.75;-1.1875;1.0625
2.0;0.34197998046875;-0.369140625;-0.8045654296875;0.31549072265625;10.850248841561147;11.93166597985852;2.6637592407759;-0.3017578125;0.7626953125;0.45654296875;-2.6875;-1.375;1.125
2.0;0.34161376953125;-0.36865234375;-0.80487060546875;0.315673828125;10.849001567432369;11.927478274032909;2.6629053213152805;-0.30419921875;0.7626953125;0.46337890625;-3.0625;-1.3125;1.1875
2.0;0.3411865234375;-0.36834716796875;-0.80511474609375;0.31585693359375;10.846217687021403;11.92411778317466;2.661938059257632;-0.3056640625;0.7548828125;0.4736328125;-3.375;-1.1875;0.8125
2.0;0.34088134765625;-0.36822509765625;-0.80523681640625;0.3160400390625;10.8433766091878;11.922271100491184;2.6615719832892992;-0.294921875;0.7578125;0.47314453125;-2.5625;-1.25;0.625
2.0;0.34088134765625;-0.36822509765625;-0.80523681640625;0.3160400390625;10.8433766091878;11.922271100491184;2.6615719832892992;-0.2919921875;0.7568359375;0.4775390625;-1.125;-0.6875;0.6875
2.0;0.34088134765625;-0.3681640625;-0.80523681640625;0.3160400390625;10.84369543281948;11.922000116141907;2.6616054902598703;-0.29296875;0.75830078125;0.4638671875;-0.0625;0.125;0.625
2.0;0.3409423828125;-0.3681640625;-0.8052978515625;0.31585693359375;10.845308486752721;11.922086652918955;2.6608063472718007;-0.3056640625;0.76416015625;0.47216796875;0.0625;-0.1875;-0.125
2.0;0.3409423828125;-0.3681640625;-0.8052978515625;0.31585693359375;10.845308486752721;11.922086652918955;2.6608063472718007;-0.3017578125;0.76123046875;0.4697265625;0.3125;-0.375;-1.0625
2.0;0.3409423828125;-0.36834716796875;-0.80523681640625;0.31573486328125;10.8449791317192;11.923148536540646;2.6603319978113458;-0.3037109375;0.7626953125;0.46875;0.5;-0.4375;-0.8125
2.0;0.34100341796875;-0.368408203125;-0.8052978515625;0.3154296875;10.846964488388712;11.923572651535224;2.65895749708294;-0.29296875;0.759765625;0.46240234375;1.0;-0.375;-0.375
2.0;0.34100341796875;-0.36846923828125;-0.80535888671875;0.31524658203125;10.84774525118517;11.923761721625569;2.657943021027073;-0.30615234375;0.7578125;0.4677734375;0.9375;-0.8125;-1.1875
2.0;0.34100341796875;-0.36883544921875;-0.80517578125;0.31524658203125;10.845643832165116;11.925934166814782;2.6582463940778123;-0.3076171875;0.7607421875;0.47900390625;1.375;-0.625;0.0625
2.0;0.3409423828125;-0.3692626953125;-0.8050537109375;0.315185546875;10.84311887177077;11.928060729486656;2.6578943885912003;-0.29296875;0.76025390625;0.47021484375;2.0;-0.3125;0.5625
2.0;0.34112548828125;-0.36993408203125;-0.8048095703125;0.3148193359375;10.8429787173161;11.932474291981757;2.657117432114627;-0.29248046875;0.7607421875;0.47119140625;2.625;-0.3125;0.5625
2.0;0.34124755859375;-0.3704833984375;-0.80462646484375;0.314453125;10.84302764121013;11.93599619686105;2.65605763205861;-0.29833984375;0.76416015625;0.45556640625;3.9375;-1.125;-0.25
2.0;0.34130859375;-0.37103271484375;-0.804443359375;0.314208984375;10.841872086025612;11.939282941431433;2.6553563478988833;-0.3017578125;0.771484375;0.46142578125;3.625;-1.125;-0.5
2.0;0.341552734375;-0.37158203125;-0.80426025390625;0.3138427734375;10.842952082891516;11.943140129224311;2.654662001697109;-0.2919921875;0.76904296875;0.4677734375;3.6875;-0.5;-0.25
2.0;0.34185791015625;-0.3721923828125;-0.803955078125;0.31341552734375;10.844447443060707;11.94783546131266;2.654182259599844;-0.298828125;0.77001953125;0.458984375;3.75;-0.4375;-0.875
2.0;0.34222412109375;-0.3729248046875;-0.80364990234375;0.31317138671875;10.844777415212103;11.953137166180978;2.6546296164232355;-0.3076171875;0.7685546875;0.45849609375;4.375;-0.375;-0.4375
2.0;0.34259033203125;-0.373291015625;-0.80340576171875;0.3128662109375;10.847426422037621;11.956668524012757;2.6548452191216643;-0.29833984375;0.76953125;0.4482421875;4.3125;0.1875;-0.1875
2.0;0.34283447265625;-0.37335205078125;-0.8033447265625;0.3126220703125;10.85048661078942;11.957929568419901;2.654633112962882;-0.2939453125;0.77197265625;0.458984375;3.375;0.9375;-1.3125
