1441975254453578;-0.92724609375;-0.1715087890625;-0.28033447265625;-0.17974853515625;6.273049756658108;16.55540847548912;10.405497209644306;1.1904296875;0.51904296875;-0.52001953125;466.1875;38.0;-137.5;
1441975254475579;-0.93310546875;-0.19921875;-0.27020263671875;-0.12945556640625;6.3088683985210645;16.84726844259001;10.484539058696523;0.95849609375;0.6025390625;-0.345703125;428.375;22.5625;-106.75;
1441975254499580;-0.93475341796875;-0.21746826171875;-0.2618408203125;-0.10247802734375;6.358376709967803;17.002985257278883;10.545929779548388;0.71826171875;0.7119140625;-0.37841796875;335.8125;7.375;-70.5625;
1441975254513581;-0.931884765625;-0.2261962890625;-0.26348876953125;-0.1053466796875;6.368021518984461;16.969508686152558;10.6077774828496;0.6962890625;1.00146484375;-0.22998046875;196.4375;-11.5;-56.375;
1441975254535582;-0.928466796875;-0.2257080078125;-0.26947021484375;-0.12042236328125;6.351404281819204;16.865629312466407;10.636647695965351;0.79736328125;0.873046875;-0.2578125;39.5;-24.875;-44.25;
1441975254558584;-0.92584228515625;-0.2237548828125;-0.27191162109375;-0.137451171875;6.377170354585831;16.760336881761994;10.651793462830415;0.8505859375;0.32080078125;-0.3232421875;-80.625;-21.75;-31.125;
1441975254581585;-0.9246826171875;-0.22344970703125;-0.27532958984375;-0.13916015625;6.3452988151852425;16.74190749184376;10.659881467164995;0.70654296875;-0.09619140625;-0.345703125;-102.0;-13.75;-22.75;
1441975254612587;-0.923828125;-0.22674560546875;-0.27789306640625;-0.134033203125;6.308679852350368;16.76133128019238;10.679829921293734;0.6220703125;-0.19775390625;-0.41748046875;-37.375;-4.8125;-22.1875;
1441975254615587;-0.922119140625;-0.23126220703125;-0.2818603515625;-0.1300048828125;6.26370012877787;16.76867255702846;10.71206623389206;0.69580078125;-0.07080078125;-0.45361328125;12.5;-0.625;-29.0625;
1441975254636588;-0.91986083984375;-0.23553466796875;-0.2864990234375;-0.12811279296875;6.218133825494947;16.76130394790589;10.7475516202752;0.701171875;0.1552734375;-0.54931640625;16.4375;10.375;-29.875;
1441975254655589;-0.91766357421875;-0.23809814453125;-0.2921142578125;-0.12664794921875;6.159270466127686;16.750891419413907;10.775457494009787;0.6142578125;0.23779296875;-0.5869140625;7.25;18.375;-27.3125;
1441975254672590;-0.9154052734375;-0.2388916015625;-0.2991943359375;-0.124755859375;6.0783918767901675;16.74109908852975;10.795732058990593;0.609375;0.19677734375;-0.59326171875;-1.8125;22.6875;-19.1875;
1441975254693591;-0.91302490234375;-0.23858642578125;-0.30718994140625;-0.12322998046875;5.986114497320656;16.727704887322;10.812351809807945;0.6298828125;0.18408203125;-0.56982421875;-4.75;28.9375;-9.0;
1441975254715593;-0.9100341796875;-0.236328125;-0.31719970703125;-0.12451171875;5.877464563558785;16.693921016781875;10.826678020175434;0.64208984375;0.259765625;-0.57958984375;-6.1875;33.0;-0.8125;
1441975254738594;-0.90673828125;-0.23193359375;-0.328857421875;-0.1265869140625;5.748088078216853;16.652877385385903;10.83444691191093;0.6845703125;0.3193359375;-0.5576171875;-24.125;37.5625;5.8125;
1441975254753595;-0.9031982421875;-0.22650146484375;-0.34149169921875;-0.128173828125;5.603115813845441;16.61237673136968;10.839308678929733;0.70654296875;0.29052734375;-0.591796875;-37.375;45.5625;15.3125;
1441975254775596;-0.89910888671875;-0.22076416015625;-0.35504150390625;-0.1300048828125;5.447985236991182;16.566429291882077;10.84748233405845;0.67822265625;0.26806640625;-0.59814453125;-40.4375;54.8125;21.6875;
1441975254792597;-0.8944091796875;-0.21356201171875;-0.36962890625;-0.13397216796875;5.285132799647186;16.504422952415922;10.855862875909002;0.71044921875;0.322265625;-0.6025390625;-41.75;60.3125;24.6875;
1441975254821599;-0.88897705078125;-0.20428466796875;-0.38568115234375;-0.138916015625;5.102886407585068;16.432270855878482;10.86130350499148;0.755859375;0.34375;-0.56005859375;-55.875;61.3125;27.3125;
1441975254835600;-0.88287353515625;-0.194091796875;-0.40283203125;-0.143798828125;4.904843764284922;16.3549614383375;10.869048360867437;0.802734375;0.341796875;-0.55615234375;-68.9375;67.5;35.3125;
1441975254852600;-0.87628173828125;-0.18310546875;-0.42034912109375;-0.14849853515625;4.69834552899388;16.275005674395935;10.877879828846652;0.8310546875;0.29541015625;-0.4765625;-72.9375;71.75;37.4375;
1441975254881602;-0.86895751953125;-0.17120361328125;-0.43817138671875;-0.1539306640625;4.4867813973259745;16.18567691008481;10.89003172781393;0.85205078125;0.29296875;-0.474609375;-75.3125;75.9375;41.0;
1441975254897603;-0.86181640625;-0.1580810546875;-0.4556884765625;-0.157470703125;4.264788471022685;16.109009230020092;10.893645072556314;0.8388671875;0.31787109375;-0.47705078125;-82.3125;81.3125;45.8125;
1441975254912604;-0.8544921875;-0.14459228515625;-0.473388671875;-0.1580810546875;4.025424926062244;16.048065723692932;10.893734553162535;0.84033203125;0.23583984375;-0.474609375;-79.125;82.875;52.625;
1441975254936605;-0.8466796875;-0.132080078125;-0.4910888671875;-0.15679931640625;3.7803487538948306;15.9925627431881;10.901578372484849;0.8974609375;0.154296875;-0.3759765625;-66.4375;82.125;57.125;
1441975254955606;-0.83807373046875;-0.119384765625;-0.50885009765625;-0.15655517578125;3.5365179242137916;15.922553155885756;10.919370552925626;1.0048828125;0.17578125;-0.31787109375;-52.625;81.9375;56.375;
1441975254972607;-0.82916259765625;-0.10443115234375;-0.52606201171875;-0.1580810546875;3.2939935791371715;15.841874959024432;10.931423969868638;1.09619140625;0.27880859375;-0.35498046875;-56.9375;85.6875;58.125;
1441975254993609;-0.8194580078125;-0.08526611328125;-0.54327392578125;-0.1617431640625;3.037651585857269;15.748979195212216;10.929811575398706;1.10693359375;0.423828125;-0.412109375;-69.5625;87.5625;72.6875;
1441975255015610;-0.808837890625;-0.0643310546875;-0.56109619140625;-0.1641845703125;2.7573115552958427;15.657142360987272;10.925970042972347;1.12744140625;0.36376953125;-0.3544921875;-94.0;84.6875;83.875;
1441975255032611;-0.79742431640625;-0.04296875;-0.5791015625;-0.16436767578125;2.4583424578165545;15.571924009862878;10.924075556689434;1.23193359375;0.26806640625;-0.26953125;-95.625;85.125;89.375;
1441975255061612;-0.78582763671875;-0.02276611328125;-0.5966796875;-0.16119384765625;2.1505011308596225;15.503938932160205;10.924275470270155;1.330078125;0.17626953125;-0.248046875;-89.3125;89.6875;93.3125;
1441975255075613;-0.7744140625;-0.00543212890625;-0.6131591796875;-0.15618896484375;1.8579764430843673;15.436713690661716;10.943212264001277;1.36572265625;0.1357421875;-0.2490234375;-70.3125;93.875;98.4375;
1441975255098615;-0.7625732421875;0.01116943359375;-0.62957763671875;-0.148681640625;1.55478702609852;15.374662143669624;10.970318591077625;1.39697265625;0.224609375;-0.26171875;-50.0625;97.375;106.5625;
1441975255113615;-0.75018310546875;0.02825927734375;-0.6455078125;-0.14093017578125;1.2485415507657263;15.299068022216952;11.009749403423392;1.44677734375;0.30126953125;-0.25341796875;-36.25;99.8125;114.0625;
1441975255135617;-0.73748779296875;0.04486083984375;-0.660888671875;-0.132080078125;0.941583251564227;15.203964770853842;11.07488631930179;1.47509765625;0.27294921875;-0.24951171875;-37.5625;100.125;117.3125;
1441975255158618;-0.7249755859375;0.05950927734375;-0.6754150390625;-0.12139892578125;0.6427776158230729;15.066321213893069;11.197585121588343;1.4609375;0.169921875;-0.1962890625;-31.5625;99.375;118.0;
1441975255174619;-0.71270751953125;0.072998046875;-0.68890380859375;-0.11041259765625;0.35936758828014953;14.750497552981445;11.503983156360432;1.404296875;0.134765625;-0.16455078125;-16.1875;96.1875;116.5625;
1441975255195620;-0.70086669921875;0.087158203125;-0.7008056640625;-0.10101318359375;0.11225964781552061;13.13031436965769;13.105074101428755;1.3623046875;0.27685546875;-0.171875;-10.5625;92.875;115.5;
1441975255212621;-0.68963623046875;0.10247802734375;-0.71075439453125;-0.093994140625;0.1844074604552279;7.506331354967118;0.6950324236545329;1.34033203125;0.30712890625;-0.21142578125;-20.0;86.125;112.25;
1441975255234622;-0.68109130859375;0.11529541015625;-0.7177734375;-0.08770751953125;0.37196068933155535;6.739840155156117;1.4344490348655756;1.283203125;0.22412109375;-0.19775390625;-34.875;76.6875;105.25;
1441975255255624;-0.673828125;0.12554931640625;-0.7236328125;-0.0809326171875;0.5420123713790039;6.487001396578104;1.6725056501082964;1.18994140625;0.13427734375;-0.1650390625;-27.875;67.5625;98.375;
1441975255272625;-0.66802978515625;0.13360595703125;-0.728271484375;-0.0748291015625;0.6823491598709353;6.3607459763356236;1.790231654200647;1.11279296875;0.1123046875;-0.15234375;-15.5;58.5;89.125;
1441975255294626;-0.6639404296875;0.1405029296875;-0.731201171875;-0.06964111328125;0.7922589623519387;6.247036424392238;1.896381779003899;1.04931640625;0.130859375;-0.12939453125;-9.0625;48.0;78.9375;
1441975255315627;-0.66119384765625;0.1463623046875;-0.73297119140625;-0.0654296875;0.8773358280515442;6.146558472914465;1.9896476942038688;0.9931640625;0.0966796875;-0.13720703125;-7.875;36.625;66.9375;
1441975255333628;-0.6600341796875;0.1505126953125;-0.73345947265625;-0.06201171875;0.9327611127821123;6.050475157910548;2.0823778655661735;0.947265625;0.05029296875;-0.1005859375;-7.8125;24.875;55.0625;
1441975255354629;-0.66058349609375;0.154052734375;-0.73236083984375;-0.05987548828125;0.9605774678058632;5.929081971380981;2.197792229132187;0.88427734375;0.02978515625;-0.07177734375;-4.125;12.6875;41.8125;
1441975255376630;-0.6629638671875;0.15826416015625;-0.7293701171875;-0.0596923828125;0.9641356676116453;5.753531260110998;2.356778584200768;0.8212890625;0.06396484375;-0.064453125;-7.1875;-0.8125;34.5625;
1441975255392631;-0.66705322265625;0.16241455078125;-0.72454833984375;-0.06121826171875;0.9441226357112665;5.523689336325087;2.5633630069931006;0.7607421875;0.0400390625;-0.07275390625;-18.375;-13.875;24.0625;
1441975255414633;-0.6729736328125;0.1649169921875;-0.7183837890625;-0.06292724609375;0.9055049766165395;5.235031268568763;2.8349658334897;0.716796875;-0.0048828125;-0.0634765625;-25.5;-28.125;11.375;
1441975255435634;-0.68072509765625;0.16436767578125;-0.71099853515625;-0.06396484375;0.8505007215066099;4.873094796715888;3.195185126575449;0.6904296875;-0.06982421875;-0.05908203125;-19.75;-41.75;-2.4375;
1441975255452635;-0.6904296875;0.15960693359375;-0.7027587890625;-0.06402587890625;0.7814473712405395;4.411540254186968;3.6765345011190007;0.6904296875;-0.11962890625;-0.04833984375;-5.25;-54.9375;-17.6875;
1441975255489637;-0.70135498046875;0.15106201171875;-0.69378662109375;-0.0634765625;0.7127644287452601;3.815953350504729;4.309825977038711;0.68603515625;-0.119140625;-0.044921875;15.3125;-66.9375;-32.6875;
1441975255495637;-0.71343994140625;0.13983154296875;-0.68377685546875;-0.06292724609375;0.6682499965709336;3.0325376411999847;5.1417715917827325;0.6689453125;-0.06494140625;-0.0634765625;32.875;-73.6875;-43.8125;
1441975255512638;-0.72650146484375;0.12762451171875;-0.67230224609375;-0.063232421875;0.6823588446180574;2.1071422865418445;6.115894862820242;0.71240234375;0.01220703125;-0.091796875;43.125;-81.25;-51.1875;
1441975255542640;-0.74017333984375;0.11590576171875;-0.6591796875;-0.06536865234375;0.7741125330800634;1.2290794729273793;7.0328123194943215;0.7685546875;0.08837890625;-0.1298828125;43.25;-89.25;-55.125;
1441975255555641;-0.7535400390625;0.107421875;-0.64501953125;-0.0679931640625;0.9365915695672518;0.6409280503332548;7.644169989005255;0.84423828125;0.1767578125;-0.1650390625;33.5;-97.4375;-56.0;
1441975255573642;-0.76666259765625;0.1009521484375;-0.6298828125;-0.072998046875;1.133035343226952;0.2225298856891108;8.06746498710065;0.90380859375;0.224609375;-0.1845703125;17.0;-105.0625;-55.875;
1441975255594643;-0.7789306640625;0.0960693359375;-0.6146240234375;-0.0797119140625;1.340938238095832;17.924802758695414;8.35627231543798;0.90625;0.2255859375;-0.2060546875;-1.1875;-107.875;-56.125;
1441975255615644;-0.7901611328125;0.091064453125;-0.5997314453125;-0.088134765625;1.5478359431247952;17.67673863841567;8.588598238757456;0.892578125;0.20263671875;-0.21923828125;-14.8125;-105.1875;-56.0625;
1441975255632645;-0.80010986328125;0.086669921875;-0.5858154296875;-0.0963134765625;1.7447612342880798;17.49510499528388;8.752770321288033;0.888671875;0.18603515625;-0.25341796875;-20.375;-98.5;-54.25;
1441975255654646;-0.80877685546875;0.0828857421875;-0.572998046875;-0.103759765625;1.9269410809226675;17.36239537744723;8.868328607880844;0.88720703125;0.18798828125;-0.2861328125;-21.4375;-90.25;-50.6875;
1441975255675648;-0.81634521484375;0.0794677734375;-0.56146240234375;-0.11004638671875;2.0915923741969142;17.266354764773617;8.950469799644548;0.8994140625;0.18798828125;-0.31591796875;-20.375;-81.625;-46.0;
1441975255698649;-0.822509765625;0.07623291015625;-0.5518798828125;-0.11492919921875;2.2290809160402083;17.19721329009793;9.010947139800074;0.888671875;0.1767578125;-0.34228515625;-16.875;-72.0625;-40.875;
1441975255715650;-0.8272705078125;0.07305908203125;-0.54443359375;-0.11822509765625;2.336869924290856;17.14941905322645;9.056710655754483;0.8671875;0.1650390625;-0.34814453125;-11.5;-60.0;-35.375;
1441975255735651;-0.8306884765625;0.07012939453125;-0.53912353515625;-0.12030029296875;2.4149585741300554;17.11610019140425;9.092453033603604;0.85546875;0.1591796875;-0.3515625;-4.4375;-46.8125;-29.0;
1441975255752652;-0.8328857421875;0.06817626953125;-0.53582763671875;-0.120849609375;2.463416895467604;17.104096697614786;9.109595014888798;0.86669921875;0.212890625;-0.35693359375;2.3125;-34.0625;-19.25;
1441975255774653;-0.83355712890625;0.06781005859375;-0.53485107421875;-0.120849609375;2.4773769421473144;17.10407439129793;9.11094884015706;0.9150390625;0.25732421875;-0.40283203125;7.125;-20.8125;-5.9375;
1441975255795654;-0.83282470703125;0.06854248046875;-0.5360107421875;-0.12042236328125;2.4602299603088107;17.111279456877227;9.102732197831576;0.966796875;0.2646484375;-0.4228515625;4.8125;-6.6875;5.5;
1441975255819656;-0.8306884765625;0.070068359375;-0.539306640625;-0.11956787109375;2.4125094269485845;17.123892716771234;9.088020692365456;0.974609375;0.259765625;-0.43310546875;2.875;7.6875;13.875;
1441975255834657;-0.82733154296875;0.0723876953125;-0.54443359375;-0.1182861328125;2.3383105103947965;17.143553511047248;9.06511190888427;0.95068359375;0.2373046875;-0.412109375;2.1875;21.375;20.0;
1441975255855658;-0.82305908203125;0.0755615234375;-0.55078125;-0.11651611328125;2.245302895458515;17.17435114481244;9.029751364708922;0.939453125;0.2119140625;-0.3974609375;1.3125;33.1875;25.75;
1441975255872659;-0.818115234375;0.07952880859375;-0.55804443359375;-0.11431884765625;2.1383465196646743;17.218134535013707;8.98006491095871;0.921875;0.1826171875;-0.38427734375;-0.1875;41.4375;31.375;
1441975255902661;-0.81268310546875;0.08392333984375;-0.56585693359375;-0.11126708984375;2.0226442836585283;17.280970473054907;8.91312353829337;0.908203125;0.13671875;-0.35791015625;-1.375;47.375;35.5625;
1441975255926662;-0.8072509765625;0.08795166015625;-0.57373046875;-0.1072998046875;1.9073940808181111;17.36080715345998;8.834444663824575;0.8935546875;0.08544921875;-0.32470703125;0.25;50.25;38.1875;
1441975255932662;-0.80218505859375;0.091064453125;-0.5811767578125;-0.1026611328125;1.8005710482610633;17.45122531343222;8.75159050724109;0.87255859375;0.04931640625;-0.2880859375;5.375;49.25;37.8125;
1441975255954664;-0.797607421875;0.09320068359375;-0.58795166015625;-0.09771728515625;1.7054064013238583;17.54602078258988;8.6694336489177;0.85595703125;0.021484375;-0.2529296875;11.125;45.25;34.75;
1441975255975665;-0.79351806640625;0.09429931640625;-0.59405517578125;-0.0928955078125;1.6215876622165388;17.635998159350393;8.595674378097137;0.83935546875;9.765625E-4;-0.22119140625;15.9375;40.5;30.125;
1441975255994666;-0.789794921875;0.0946044921875;-0.59954833984375;-0.08880615234375;1.54689400677087;17.711272439821265;8.536700267555016;0.841796875;-0.001953125;-0.20849609375;18.5625;36.25;24.5;
1441975256022667;-0.78668212890625;0.0943603515625;-0.60406494140625;-0.08599853515625;1.4853790847917652;17.761625742906627;8.499458534189905;0.85888671875;-0.01025390625;-0.2080078125;17.875;33.0;18.0;
1441975256035668;-0.7843017578125;0.0938720703125;-0.607421875;-0.0843505859375;1.4390726509818887;17.789187598969452;8.481060502636673;0.88232421875;0.00244140625;-0.205078125;14.1875;28.0;11.4375;
1441975256052669;-0.7828369140625;0.09320068359375;-0.6094970703125;-0.0841064453125;1.4099763497150357;17.787298673485065;8.486972929056236;0.8701171875;-0.0078125;-0.205078125;9.625;21.4375;4.6875;
1441975256076670;-0.78216552734375;0.0927734375;-0.6102294921875;-0.08551025390625;1.397820779981633;17.75612140478399;8.51422767480899;0.85791015625;-0.00244140625;-0.20654296875;3.3125;14.0;-1.4375;
1441975256098672;-0.78228759765625;0.09283447265625;-0.60968017578125;-0.088134765625;1.4025804895316911;17.70760963057088;8.551644804344217;0.85009765625;0.03125;-0.205078125;-4.625;6.0625;-5.375;
1441975256113673;-0.78302001953125;0.09326171875;-0.60821533203125;-0.09130859375;1.4200784897806635;17.6541524720396;8.590137505087245;0.83837890625;0.052734375;-0.224609375;-11.5;-0.3125;-7.0;
1441975256134674;-0.78424072265625;0.0936279296875;-0.6060791015625;-0.0948486328125;1.44740356105139;17.594364177790574;8.633620692315962;0.8330078125;0.0419921875;-0.24560546875;-16.25;-5.0625;-9.3125;
1441975256157675;-0.7857666015625;0.09375;-0.603515625;-0.09832763671875;1.4812522287269332;17.534478316789507;8.678359098582545;0.837890625;0.0439453125;-0.25927734375;-17.4375;-9.375;-11.5;
1441975256172676;-0.787841796875;0.093994140625;-0.6002197265625;-0.10150146484375;1.5259221319333585;17.484589804000642;8.713725244468762;0.8623046875;0.05859375;-0.25634765625;-16.125;-13.0;-12.3125;
1441975256194677;-0.79010009765625;0.0943603515625;-0.5966796875;-0.10443115234375;1.5742518808906993;17.443092018317163;8.741144227895562;0.8876953125;0.06591796875;-0.2783203125;-15.75;-17.625;-11.375;
1441975256217679;-0.7923583984375;0.09454345703125;-0.5931396484375;-0.10693359375;1.6227604281501964;17.408364051594923;8.764248900688399;0.90283203125;0.064453125;-0.2919921875;-14.6875;-19.5;-10.6875;
1441975256233679;-0.7947998046875;0.09466552734375;-0.5894775390625;-0.1092529296875;1.6737599151262956;17.37780879584268;8.784191697075563;0.8994140625;0.06494140625;-0.298828125;-12.5625;-19.625;-10.375;
1441975256254681;-0.7972412109375;0.094970703125;-0.5858154296875;-0.1112060546875;1.7245598436459029;17.356502765375883;8.795614382876703;0.90380859375;0.06494140625;-0.314453125;-11.6875;-20.6875;-10.3125;
1441975256278682;-0.79962158203125;0.09521484375;-0.58221435546875;-0.11248779296875;1.7741708210038007;17.34546583208559;8.799725154874954;0.89794921875;0.052734375;-0.30029296875;-10.5625;-22.0625;-9.5625;
1441975256306684;-0.80206298828125;0.0950927734375;-0.5787353515625;-0.11297607421875;1.8230206300513652;17.34262222970058;8.800450012978573;0.89111328125;0.03857421875;-0.29150390625;-7.8125;-23.0625;-8.5625;
1441975256313684;-0.804443359375;0.0943603515625;-0.5755615234375;-0.11273193359375;1.868820637903529;17.343820714258833;8.802730979190654;0.88623046875;0.02783203125;-0.29052734375;-3.0625;-23.1875;-8.3125;
1441975256336685;-0.80694580078125;0.09326171875;-0.572509765625;-0.111572265625;1.914203052754281;17.354396047556495;8.800996122276908;0.87109375;0.02294921875;-0.2861328125;2.4375;-22.375;-8.5;
1441975256358687;-0.80950927734375;0.09173583984375;-0.5693359375;-0.1102294921875;1.9613975189083996;17.36318707657113;8.803502991054689;0.869140625;0.01416015625;-0.3017578125;7.625;-21.6875;-8.5;
1441975256381688;-0.81231689453125;0.0902099609375;-0.56597900390625;-0.10858154296875;2.0117811346455943;17.376383866174457;8.80289927249406;0.85205078125;0.01220703125;-0.2822265625;9.9375;-23.8125;-9.375;
1441975256396689;-0.8150634765625;0.0887451171875;-0.56256103515625;-0.1068115234375;2.0622426539200394;17.391410892539003;8.80066152930012;0.82861328125;0.0068359375;-0.26806640625;11.4375;-26.5625;-9.375;
1441975256418690;-0.8175048828125;0.08721923828125;-0.5596923828125;-0.10430908203125;2.105364525835885;17.414506428615006;8.793753166218893;0.84130859375;0.0166015625;-0.2529296875;12.1875;-28.375;-7.875;
1441975256433691;-0.81964111328125;0.08575439453125;-0.557373046875;-0.10113525390625;2.141144332642128;17.445734487525428;8.781364407941528;0.916015625;0.02734375;-0.2822265625;15.625;-26.125;-4.9375;
1441975256456692;-0.82147216796875;0.084228515625;-0.55548095703125;-0.09771728515625;2.1709994927964575;17.478484140806394;8.768790006837396;1.02587890625;0.04443359375;-0.32958984375;19.3125;-22.4375;-1.4375;
1441975256478693;-0.82293701171875;0.0830078125;-0.5540771484375;-0.09503173828125;2.1939249490233923;17.50361022881584;8.759677256092571;1.09326171875;0.0537109375;-0.3818359375;20.5625;-18.625;0.0625;
1441975256501695;-0.8236083984375;0.08306884765625;-0.55328369140625;-0.09368896484375;2.2055370470460183;17.52174496683496;8.746724450241196;1.10595703125;0.08544921875;-0.41748046875;16.9375;-13.4375;2.1875;
1441975256516696;-0.82318115234375;0.0850830078125;-0.55364990234375;-0.09344482421875;2.198342559555491;17.54174864494868;8.719443503669954;1.1142578125;0.13525390625;-0.4658203125;7.625;-5.0625;7.5;
1441975256538697;-0.8216552734375;0.0888671875;-0.55523681640625;-0.0936279296875;2.172000276429709;17.571310678362213;8.673683993623753;1.1748046875;0.1650390625;-0.5244140625;-3.125;5.3125;16.75;
1441975256554698;-0.81927490234375;0.09326171875;-0.5579833984375;-0.09368896484375;2.1294078203281734;17.60880815946529;8.618176767247363;1.248046875;0.15771484375;-0.5693359375;-11.3125;15.5625;24.25;
1441975256576699;-0.81658935546875;0.09747314453125;-0.56121826171875;-0.093505859375;2.0808703637456354;17.649925493236132;8.560921523339061;1.2119140625;0.11328125;-0.55419921875;-13.0625;23.8125;26.5625;
1441975256607701;-0.8138427734375;0.10186767578125;-0.5645751953125;-0.0931396484375;2.0315007098405826;17.697653605053898;8.497116128902078;1.05029296875;0.06005859375;-0.470703125;-12.4375;26.3125;24.125;
1441975256613701;-0.81109619140625;0.107177734375;-0.567626953125;-0.09246826171875;1.9862080241119306;17.760897180125014;8.415158424163991;0.8876953125;0.0166015625;-0.39453125;-12.4375;26.5;24.0;
1441975256636703;-0.8084716796875;0.11328125;-0.57025146484375;-0.0916748046875;1.9474981932464346;17.836352632123003;8.318101004334222;0.78076171875;-0.00244140625;-0.38134765625;-14.6875;26.3125;28.125;
1441975256668704;-0.80615234375;0.11920166015625;-0.572509765625;-0.09039306640625;1.916400008317314;17.919242722765862;8.216322312977029;0.7587890625;-0.00830078125;-0.369140625;-16.8125;23.8125;32.5625;
1441975256673705;-0.8043212890625;0.12451171875;-0.57427978515625;-0.08856201171875;1.8951704378975114;0.004802671671512605;8.116597636291772;0.7744140625;-0.00244140625;-0.35302734375;-13.375;19.625;33.8125;
1441975256696706;-0.80291748046875;0.1295166015625;-0.57537841796875;-0.08721923828125;1.8836591034513426;0.0797007161467358;8.02664602236173;0.7880859375;0.0078125;-0.33740234375;-8.4375;14.5625;33.1875;
1441975256718707;-0.80181884765625;0.13446044921875;-0.5758056640625;-0.08709716796875;1.8794222137180279;0.13496073137487333;7.951398574100928;0.8154296875;0.025390625;-0.3447265625;-9.375;10.5625;31.0625;
1441975256733708;-0.80096435546875;0.13995361328125;-0.575439453125;-0.088134765625;1.8834526656812425;0.17655404262511473;7.882529468710239;0.84912109375;0.06005859375;-0.3740234375;-14.5;8.5625;29.0;
1441975256763710;-0.800537109375;0.14593505859375;-0.57440185546875;-0.0897216796875;1.89661542453086;0.2117066489330383;7.815726102762625;0.884765625;0.06689453125;-0.40966796875;-21.375;6.5625;27.9375;
1441975256778711;-0.80029296875;0.15191650390625;-0.57281494140625;-0.091796875;1.9153245197017053;0.23697252286976567;7.75656424332055;0.9150390625;0.0380859375;-0.44580078125;-26.75;3.625;26.1875;
1441975256793712;-0.80029296875;0.15716552734375;-0.57110595703125;-0.0936279296875;1.9362158243225196;0.2565792550265242;7.707080365886746;0.94140625;0.01708984375;-0.45068359375;-29.25;0.5625;22.875;
1441975256815713;-0.80059814453125;0.16143798828125;-0.56927490234375;-0.09503173828125;1.9594955872829383;0.27065044715213565;7.668925435959283;0.9296875;-0.00830078125;-0.4482421875;-26.4375;-1.0625;18.75;
1441975256863716;-0.80120849609375;0.1646728515625;-0.56732177734375;-0.09600830078125;1.9849201719659688;0.2788276804798493;7.642707306050578;0.9072265625;-0.0224609375;-0.4365234375;-21.5;-2.8125;14.0;
1441975256865716;-0.80218505859375;0.1668701171875;-0.56512451171875;-0.0966796875;2.013582044126815;0.2791655758339102;7.62983448651844;0.88134765625;-0.0244140625;-0.427734375;-16.1875;-4.375;10.3125;
1441975256894717;-0.80352783203125;0.16815185546875;-0.562744140625;-0.09722900390625;2.0446735609533855;0.2710120628749072;7.629777991710643;0.859375;-0.02490234375;-0.43408203125;-11.375;-6.125;6.375;
1441975256916719;-0.80523681640625;0.16864013671875;-0.56005859375;-0.0977783203125;2.0792696398589214;0.2539358294476261;7.64189191651181;0.85400390625;-0.015625;-0.42236328125;-7.5625;-8.1875;2.625;
1441975256921719;-0.807373046875;0.16845703125;-0.556884765625;-0.09857177734375;2.1191706134502026;0.22571457973319634;7.666825072632056;0.85791015625;-4.8828125E-4;-0.42333984375;-4.9375;-11.3125;-1.1875;
1441975256936720;-0.809814453125;0.16802978515625;-0.55322265625;-0.099853515625;2.1640376124467218;0.188039846775641;7.700073821414858;0.85693359375;0.001953125;-0.408203125;-4.125;-15.4375;-5.1875;
1441975256958721;-0.8125;0.1676025390625;-0.54913330078125;-0.10162353515625;2.2135748327414024;0.14399658291002781;7.737560710168801;0.859375;0.00634765625;-0.4013671875;-5.75;-19.3125;-8.6875;
1441975256975722;-0.8153076171875;0.1671142578125;-0.544677734375;-0.10369873046875;2.2669380372950663;0.09629865595654216;7.777505535775774;0.8583984375;-0.00341796875;-0.3994140625;-9.0;-22.3125;-11.4375;
1441975257005724;-0.818359375;0.16595458984375;-0.5400390625;-0.1058349609375;2.322966754786185;0.04373626500104942;7.824824925817162;0.85888671875;-0.0224609375;-0.40087890625;-10.8125;-24.6875;-15.0;
1441975257020724;-0.82147216796875;0.1640625;-0.53546142578125;-0.107666015625;2.3791286868535315;17.99154254175845;7.876076567865619;0.857421875;-0.03076171875;-0.3955078125;-9.8125;-26.6875;-19.125;
1441975257036725;-0.82476806640625;0.16119384765625;-0.53094482421875;-0.10931396484375;2.435840767229828;17.936463813339955;7.9351226680127;0.86767578125;-0.0400390625;-0.390625;-6.375;-27.75;-23.3125;
1441975257058727;-0.82794189453125;0.15753173828125;-0.52685546875;-0.11065673828125;2.4884026223741156;17.882595771327495;7.997683505012426;0.87255859375;-0.0302734375;-0.40380859375;-2.4375;-27.4375;-26.6875;
1441975257078728;-0.8309326171875;0.15313720703125;-0.52313232421875;-0.1116943359375;2.5371890312429057;17.830097160426707;8.063266514402336;0.896484375;-0.013671875;-0.3984375;2.125;-26.5;-28.875;
1441975257102729;-0.83380126953125;0.148193359375;-0.51983642578125;-0.11273193359375;2.5818135594592153;17.776682270478794;8.132273915861106;0.93212890625;0.0087890625;-0.4111328125;6.5;-25.0625;-30.375;
1441975257116730;-0.83642578125;0.14306640625;-0.51678466796875;-0.11383056640625;2.623543921762653;17.723836578769124;8.201237222136514;0.9501953125;0.0283203125;-0.40966796875;8.8125;-23.1875;-31.5;
1441975257146732;-0.8387451171875;0.13800048828125;-0.5140380859375;-0.1151123046875;2.661410702356178;17.671711735020953;8.268508020281512;0.93505859375;0.0380859375;-0.40478515625;8.9375;-21.5625;-32.4375;
1441975257155732;-0.8408203125;0.1331787109375;-0.51165771484375;-0.1163330078125;2.6953736656999845;17.62385095901382;8.330881353902294;0.912109375;0.0380859375;-0.388671875;7.875;-20.0;-32.5;
1441975257176733;-0.8424072265625;0.1285400390625;-0.510009765625;-0.11724853515625;2.7203592591826693;17.582252999326624;8.387694702643712;0.90576171875;0.0498046875;-0.39111328125;7.8125;-17.625;-30.6875;
1441975257198735;-0.84356689453125;0.123779296875;-0.50921630859375;-0.11761474609375;2.735475781347413;17.546937546655602;8.44131107458582;0.90869140625;0.06005859375;-0.38134765625;9.0625;-13.8125;-27.9375;
1441975257215736;-0.8443603515625;0.1187744140625;-0.50921630859375;-0.11724853515625;2.741593018581443;17.51848255750641;8.492396515062236;0.91015625;0.06396484375;-0.37939453125;12.375;-9.3125;-25.9375;
1441975257236737;-0.84466552734375;0.113525390625;-0.5101318359375;-0.1160888671875;2.736613437346906;17.497087150633053;8.540991103201218;0.90185546875;0.06787109375;-0.369140625;16.9375;-4.6875;-24.4375;
1441975257258738;-0.84442138671875;0.1080322265625;-0.51214599609375;-0.11407470703125;2.7182077344601834;17.4829903283943;8.587172125259055;0.896484375;0.06396484375;-0.3681640625;21.75;0.5;-22.6875;
1441975257275739;-0.8436279296875;0.10223388671875;-0.51531982421875;-0.111328125;2.685624672060119;17.474108315129183;8.632778860445384;0.91015625;0.07373046875;-0.37548828125;27.0625;7.5625;-19.9375;
1441975257303741;-0.84222412109375;0.09619140625;-0.51947021484375;-0.10809326171875;2.640131151164642;17.467804972248274;8.678992884488977;0.92041015625;0.09716796875;-0.39208984375;32.4375;15.5;-16.875;
1441975257326742;-0.84033203125;0.09014892578125;-0.5242919921875;-0.1043701171875;2.585212414132347;17.465550840446806;8.723196980600957;0.93212890625;0.12060546875;-0.3955078125;36.4375;22.5625;-13.8125;
1441975257335743;-0.83807373046875;0.08416748046875;-0.52972412109375;-0.10015869140625;2.52206566907144;17.467812473675817;8.764686146848886;0.9130859375;0.1259765625;-0.38671875;39.0;27.25;-11.25;
1441975257357744;-0.83526611328125;0.07830810546875;-0.535888671875;-0.09552001953125;2.4482746939970177;17.47422120419296;8.80326591301787;0.88916015625;0.12939453125;-0.36572265625;41.5625;31.375;-8.5;
1441975257378745;-0.83203125;0.07257080078125;-0.5426025390625;-0.09039306640625;2.366265333329409;17.485771105911912;8.838138665258384;0.89013671875;0.13623046875;-0.34912109375;43.4375;36.0;-5.125;
1441975257395746;-0.82843017578125;0.0670166015625;-0.5496826171875;-0.0849609375;2.278122928025026;17.501177791681144;8.869510344124535;0.89794921875;0.14013671875;-0.33740234375;45.5625;39.6875;-2.1875;
1441975257416747;-0.82464599609375;0.06182861328125;-0.55670166015625;-0.07952880859375;2.1890185276796377;17.518883380002265;8.896825742625273;0.91650390625;0.158203125;-0.32080078125;47.125;41.6875;1.375;
1441975257447749;-0.82086181640625;0.05755615234375;-0.56341552734375;-0.07476806640625;2.10231714999407;17.535737331285166;8.918226683649854;0.96044921875;0.18212890625;-0.314453125;46.25;41.375;5.25;
1441975257455749;-0.81707763671875;0.0546875;-0.56964111328125;-0.07110595703125;2.019634503654253;17.55102305436485;8.93064822345404;1.00927734375;0.2099609375;-0.31884765625;40.75;39.5;8.875;
1441975257477751;-0.81341552734375;0.05364990234375;-0.5751953125;-0.0684814453125;1.9432393151300484;17.57055100469351;8.926813533009636;1.05224609375;0.23095703125;-0.30078125;31.3125;36.125;13.3125;
1441975257523753;-0.81011962890625;0.05413818359375;-0.58001708984375;-0.06707763671875;1.8756610175811352;17.589901686234064;8.911756489054348;1.1162109375;0.2119140625;-0.302734375;19.8125;31.6875;17.25;
1441975257529754;-0.80718994140625;0.05560302734375;-0.58392333984375;-0.0665283203125;1.81885131580884;17.609058644597642;8.889205452927243;1.14404296875;0.16650390625;-0.28857421875;7.9375;26.1875;17.3125;
1441975257536754;-0.804931640625;0.0576171875;-0.5867919921875;-0.06695556640625;1.7762377515012473;17.62169075105469;8.86681959992424;1.12255859375;0.10009765625;-0.26220703125;-0.6875;20.1875;14.5625;
1441975257558755;-0.80328369140625;0.05999755859375;-0.58868408203125;-0.068603515625;1.7469198257234158;17.62125381817433;8.850900529113277;1.0791015625;0.04541015625;-0.2509765625;-8.4375;14.125;9.75;
1441975257575756;-0.8023681640625;0.06243896484375;-0.58929443359375;-0.07147216796875;1.734611468697464;17.603805795771997;8.846564333985697;1.0283203125;0.00732421875;-0.24609375;-16.0625;8.8125;4.1875;
1441975257596757;-0.80224609375;0.06488037109375;-0.58880615234375;-0.07513427734375;1.7379949396398882;17.575093998664634;8.8501382073004;0.9775390625;-0.001953125;-0.26220703125;-22.375;3.1875;-0.875;
1441975257618759;-0.80267333984375;0.06707763671875;-0.58734130859375;-0.07916259765625;1.754375742475384;17.53909636897617;8.860317344987093;0.93994140625;-0.00341796875;-0.27587890625;-26.4375;-2.75;-4.4375;
1441975257635760;-0.8035888671875;0.06842041015625;-0.58544921875;-0.0830078125;1.7785634992097854;17.49762995142088;8.880207843893496;0.92333984375;0.0078125;-0.29345703125;-27.0;-7.25;-6.9375;
1441975257656761;-0.8050537109375;0.0689697265625;-0.5828857421875;-0.0863037109375;1.813154824110839;17.45776896235979;8.903898172234738;0.91455078125;0.03369140625;-0.30419921875;-22.9375;-10.1875;-9.0625;
1441975257686763;-0.80682373046875;0.0693359375;-0.5799560546875;-0.08941650390625;1.853424030612428;17.420563168635724;8.926382767942778;0.900390625;0.06787109375;-0.32470703125;-17.375;-13.0;-9.6875;
1441975257695763;-0.8087158203125;0.0701904296875;-0.57666015625;-0.092529296875;1.8976209857895252;17.39011797970865;8.939982160913878;0.8798828125;0.109375;-0.33740234375;-14.9375;-15.25;-7.625;
1441975257717764;-0.810546875;0.07183837890625;-0.57342529296875;-0.0955810546875;1.940127277362968;17.36922689235659;8.941016293254584;0.8642578125;0.13671875;-0.35400390625;-16.125;-16.5625;-3.6875;
1441975257738766;-0.812255859375;0.07421875;-0.57025146484375;-0.098388671875;1.9803905662757482;17.358997507368287;8.929341446558803;0.8505859375;0.1474609375;-0.35107421875;-18.5;-16.8125;0.6875;
1441975257755767;-0.81378173828125;0.07720947265625;-0.5672607421875;-0.100830078125;2.016913842017264;17.359049810597327;8.906363063339132;0.84765625;0.140625;-0.361328125;-19.875;-16.4375;4.1875;
1441975257776768;-0.81500244140625;0.08062744140625;-0.564697265625;-0.1024169921875;2.0466142298588808;17.37337744489245;8.870894108498726;0.841796875;0.12744140625;-0.35205078125;-20.375;-16.125;7.5;
1441975257798769;-0.8157958984375;0.08447265625;-0.5628662109375;-0.10302734375;2.06603878315983;17.40297800329994;8.822542972478002;0.85107421875;0.12451171875;-0.36328125;-17.9375;-13.75;12.375;
1441975257815770;-0.81597900390625;0.08843994140625;-0.56201171875;-0.10272216796875;2.0723329815116602;17.444165650623752;8.766037929908206;0.8857421875;0.12939453125;-0.3779296875;-14.5;-9.5;18.375;
1441975257836771;-0.815673828125;0.09228515625;-0.56207275390625;-0.1014404296875;2.0673681224893143;17.49642730251164;8.70318148297375;0.94287109375;0.15234375;-0.39794921875;-9.875;-4.0625;24.25;
1441975257858772;-0.81494140625;0.0960693359375;-0.56280517578125;-0.0999755859375;2.0541440395935613;17.550696805421914;8.639455860149743;1.0439453125;0.17724609375;-0.427734375;-4.125;0.9375;29.4375;
1441975257875773;-0.81390380859375;0.10009765625;-0.56378173828125;-0.09906005859375;2.037310866914477;17.600600422996045;8.576832178377906;1.10693359375;0.18701171875;-0.44482421875;-2.5;4.9375;31.4375;
1441975257896775;-0.8125;0.1046142578125;-0.56500244140625;-0.0986328125;2.0163525633193897;17.6495572806181;8.51111354252693;1.0615234375;0.15478515625;-0.41162109375;-6.5;6.6875;29.75;
1441975257920776;-0.81109619140625;0.10931396484375;-0.56622314453125;-0.09820556640625;1.9962113473571286;17.70145610590845;8.441718129824235;0.97509765625;0.07861328125;-0.34814453125;-11.75;6.6875;26.1875;
1441975257935777;-0.809814453125;0.1134033203125;-0.5673828125;-0.0972900390625;1.978488169358813;17.75522570783614;8.37496712712908;0.9130859375;0.0087890625;-0.31298828125;-13.9375;6.3125;22.9375;
1441975257963778;-0.80908203125;0.11627197265625;-0.56817626953125;-0.095703125;1.968680825544014;17.80651825193982;8.318503000180868;0.8779296875;-0.02490234375;-0.29443359375;-10.3125;5.4375;19.875;
1441975257978779;-0.8089599609375;0.11773681640625;-0.568359375;-0.09375;1.9687882832019181;17.848188062329772;8.278855695389481;0.8828125;-0.03271484375;-0.28955078125;-3.1875;1.5625;15.9375;
1441975258001781;-0.8094482421875;0.1180419921875;-0.56781005859375;-0.0921630859375;1.9789337537994387;17.871755307729238;8.260460452953447;0.900390625;-0.0166015625;-0.27490234375;3.75;-4.0;11.125;
1441975258016781;-0.810546875;0.11822509765625;-0.5662841796875;-0.0919189453125;2.0007277644704753;17.87344156360673;8.258757224344432;0.9111328125;0.0146484375;-0.27294921875;6.1875;-8.9375;6.0;
1441975258038783;-0.81195068359375;0.118896484375;-0.56390380859375;-0.09326171875;2.031122862099108;17.85671720418168;8.2666803027108;0.927734375;0.044921875;-0.29248046875;0.875;-13.875;2.0625;
1441975258062784;-0.8135986328125;0.12030029296875;-0.56072998046875;-0.095947265625;2.069629533491545;17.827948618439525;8.277846571587792;0.94677734375;0.0556640625;-0.31396484375;-8.3125;-17.375;-0.75;
1441975258076785;-0.81561279296875;0.1220703125;-0.55682373046875;-0.09930419921875;2.1170069286405755;17.793227831718667;8.290481385703597;0.955078125;0.03955078125;-0.3369140625;-17.6875;-20.75;-3.875;
1441975258099786;-0.81781005859375;0.12396240234375;-0.552490234375;-0.103271484375;2.169207879601235;17.752181215361208;8.30626363413718;0.935546875;0.01220703125;-0.36279296875;-23.4375;-23.25;-7.25;
1441975258122788;-0.81982421875;0.1258544921875;-0.54827880859375;-0.10711669921875;2.2193330769266186;17.714166379105805;8.319426767350718;0.93408203125;0.0087890625;-0.38232421875;-27.1875;-24.875;-9.125;
1441975258137788;-0.8218994140625;0.12725830078125;-0.54425048828125;-0.110595703125;2.268407821897841;17.677894100721964;8.33445576413454;0.93701171875;-0.01171875;-0.38671875;-27.125;-24.1875;-10.6875;
1441975258158790;-0.82391357421875;0.1279296875;-0.5404052734375;-0.11322021484375;2.315984410878678;17.647314263519743;8.350308611034372;0.93798828125;-0.025390625;-0.396484375;-24.0625;-23.4375;-12.6875;
1441975258182791;-0.8260498046875;0.12811279296875;-0.53662109375;-0.1153564453125;2.364161685196865;17.619672780390015;8.367309366269152;0.9130859375;-0.025390625;-0.39794921875;-18.1875;-22.3125;-13.9375;
1441975258197792;-0.8282470703125;0.12811279296875;-0.53289794921875;-0.116943359375;2.412589156535667;17.59798749753115;8.381411068658407;0.89892578125;-0.02978515625;-0.3994140625;-14.125;-22.375;-14.875;
1441975258234794;-0.83026123046875;0.12799072265625;-0.529541015625;-0.11810302734375;2.4566880250418737;17.581249524062773;8.39292856682066;0.88330078125;-0.033203125;-0.40625;-11.8125;-22.1875;-14.5625;
1441975258244795;-0.83209228515625;0.12774658203125;-0.52655029296875;-0.11871337890625;2.496487770848445;17.57058439769799;8.401241488205851;0.86572265625;-0.044921875;-0.3994140625;-8.9375;-20.75;-14.375;
1441975258271796;-0.8338623046875;0.12744140625;-0.5238037109375;-0.1190185546875;2.5337497354039096;17.563354931264822;8.40774718577034;0.87353515625;-0.03955078125;-0.41162109375;-6.375;-18.8125;-12.875;
1441975258278796;-0.83538818359375;0.1273193359375;-0.5213623046875;-0.11895751953125;2.566747184222091;17.561850609800146;8.409320631658852;0.88671875;-0.02392578125;-0.43408203125;-4.0;-16.625;-11.1875;
1441975258302798;-0.83660888671875;0.12738037109375;-0.51934814453125;-0.1190185546875;2.593660508959517;17.560529110716054;8.409553639707065;0.92041015625;-0.033203125;-0.46630859375;-3.125;-14.25;-9.6875;
1441975258318799;-0.837646484375;0.1278076171875;-0.51751708984375;-0.119384765625;2.617477041786272;17.558480239170986;8.407765390470255;0.947265625;-0.03955078125;-0.48193359375;-4.625;-11.875;-8.9375;
1441975258338800;-0.83843994140625;0.1285400390625;-0.515869140625;-0.12017822265625;2.637763876887198;17.553926346780372;8.405435064238786;0.95458984375;-0.044921875;-0.4931640625;-7.25;-9.9375;-8.5;
1441975258354801;-0.83905029296875;0.12957763671875;-0.5145263671875;-0.120849609375;2.654000998311649;17.552936787601535;8.398877697301995;0.9345703125;-0.0478515625;-0.48974609375;-10.75;-8.375;-8.0625;
1441975258377802;-0.83941650390625;0.13055419921875;-0.51361083984375;-0.12103271484375;2.6648915803989572;17.557023489905035;8.389627492978823;0.912109375;-0.05859375;-0.48583984375;-10.875;-6.1875;-6.625;
1441975258406804;-0.83978271484375;0.13067626953125;-0.5133056640625;-0.11956787109375;2.6709230191179225;17.57353415713231;8.3786601517171;0.869140625;-0.0791015625;-0.47021484375;-9.0;-3.3125;-5.875;
1441975258414804;-0.84033203125;0.1298828125;-0.51318359375;-0.11700439453125;2.6770725213176254;17.59584833281035;8.370416047956578;0.83837890625;-0.08447265625;-0.4599609375;1.875;-1.375;-4.75;
1441975258437806;-0.84100341796875;0.128662109375;-0.512939453125;-0.11468505859375;2.685032102172321;17.61252395287503;8.36856481955495;0.82861328125;-0.05322265625;-0.47119140625;11.1875;0.0;-4.0;
1441975258468807;-0.84149169921875;0.1279296875;-0.51263427734375;-0.11309814453125;2.6920036722762064;17.624481652656353;8.366251398813949;0.81396484375;0.00732421875;-0.4794921875;13.0;0.6875;-2.6875;
1441975258475808;-0.84185791015625;0.1278076171875;-0.51220703125;-0.11248779296875;2.6987806219599872;17.629885637644854;8.36380711768398;0.82373046875;0.04052734375;-0.490234375;9.3125;0.8125;-0.4375;
1441975258505809;-0.84197998046875;0.12811279296875;-0.511962890625;-0.1126708984375;2.701773277840479;17.629749608919838;8.361851200257973;0.845703125;0.05224609375;-0.49267578125;2.5625;0.8125;0.6875;
1441975258519810;-0.842041015625;0.12847900390625;-0.5115966796875;-0.11322021484375;2.705333298983352;17.626003376484064;8.361618873098113;0.861328125;0.05126953125;-0.48388671875;-2.125;1.25;0.25;
1441975258543812;-0.84210205078125;0.12872314453125;-0.51129150390625;-0.11395263671875;2.708170180166091;17.619545052503977;8.363892365547413;0.86572265625;0.04150390625;-0.49755859375;-4.5;1.9375;-1.1875;
1441975258557812;-0.84210205078125;0.12860107421875;-0.5111083984375;-0.11474609375;2.7094163505757867;17.610120947015506;8.370427905031491;0.8642578125;0.046875;-0.49169921875;-5.1875;2.25;-2.0625;
1441975258578814;-0.84222412109375;0.12823486328125;-0.5108642578125;-0.1153564453125;2.71213442843758;17.601013739944698;8.37844369191776;0.8623046875;0.05419921875;-0.4833984375;-4.0;2.375;-3.25;
1441975258594815;-0.84234619140625;0.12750244140625;-0.51068115234375;-0.11614990234375;2.714191196507926;17.587601398128854;8.39156061926223;0.857421875;0.044921875;-0.48828125;-3.0;2.4375;-4.8125;
1441975258617816;-0.842529296875;0.12640380859375;-0.51043701171875;-0.11712646484375;2.7172022194848826;17.569818877979714;8.409798771550104;0.84423828125;0.05029296875;-0.47607421875;-2.0625;2.8125;-6.6875;
1441975258638817;-0.84283447265625;0.12469482421875;-0.5101318359375;-0.11810302734375;2.7217496256307068;17.548063427696945;8.434558847156469;0.82568359375;0.04736328125;-0.46728515625;-2.1875;2.6875;-9.75;
1441975258654818;-0.84307861328125;0.12237548828125;-0.5101318359375;-0.11883544921875;2.723380692397463;17.525114995516958;8.464197855391097;0.80712890625;0.0458984375;-0.46533203125;-0.75;3.0;-12.6875;
1441975258683820;-0.84326171875;0.11956787109375;-0.51019287109375;-0.1197509765625;2.7243665640027763;17.497053316240027;8.500203166363226;0.8232421875;0.05029296875;-0.46923828125;2.5;4.5625;-14.6875;
1441975258706821;-0.84356689453125;0.11627197265625;-0.51019287109375;-0.1209716796875;2.727143194758269;17.462615076118773;8.543381879429395;0.82421875;0.06298828125;-0.47265625;3.4375;5.625;-17.125;
1441975258721822;-0.84381103515625;0.11285400390625;-0.51025390625;-0.12237548828125;2.729481061040305;17.425489704393414;8.588997757298237;0.8251953125;0.08154296875;-0.4755859375;3.5625;5.625;-19.3125;
1441975258737823;-0.84381103515625;0.109375;-0.5106201171875;-0.12408447265625;2.7279702512399258;17.384618770710105;8.637399914484604;0.8427734375;0.091796875;-0.47216796875;3.25;5.875;-20.5625;
1441975258766824;-0.8436279296875;0.10565185546875;-0.51123046875;-0.1259765625;2.7238427987655407;17.339969478672792;8.689873437293059;0.87109375;0.1064453125;-0.4658203125;2.3125;7.125;-21.0625;
1441975258774825;-0.84344482421875;0.101806640625;-0.5118408203125;-0.1279296875;2.7205984076638985;17.293741584480035;8.744175102673278;0.90625;0.12841796875;-0.46630859375;2.5625;7.75;-21.5;
1441975258797826;-0.84320068359375;0.09820556640625;-0.51239013671875;-0.13006591796875;2.7182051771562676;17.247015028134587;8.797133760619513;0.93212890625;0.1416015625;-0.462890625;2.8125;7.3125;-22.125;
1441975258826828;-0.8427734375;0.09490966796875;-0.51318359375;-0.13214111328125;2.71274254609689;17.202460429479522;8.846958397825428;0.93603515625;0.14892578125;-0.45654296875;1.25;7.0;-21.5625;
1441975258841829;-0.84228515625;0.09185791015625;-0.5140380859375;-0.1341552734375;2.7066703884268564;17.159838713514986;8.894096309903263;0.92529296875;0.1435546875;-0.43505859375;0.25;7.125;-20.4375;
1441975258857830;-0.84173583984375;0.08880615234375;-0.5150146484375;-0.1358642578125;2.699448345174776;17.12007169354691;8.939674191883206;0.8994140625;0.13037109375;-0.4033203125;-0.625;6.75;-19.9375;
1441975258886831;-0.841064453125;0.085693359375;-0.51629638671875;-0.1370849609375;2.6887778915875122;17.084369384485257;8.983567247139383;0.88671875;0.12841796875;-0.3876953125;1.1875;6.9375;-19.125;
1441975258910833;-0.8402099609375;0.08258056640625;-0.517822265625;-0.13824462890625;2.675110867088065;17.048397271975936;9.028018263723391;0.900390625;0.13818359375;-0.39453125;3.625;8.5625;-17.9375;
1441975258916833;-0.83929443359375;0.07952880859375;-0.51959228515625;-0.13934326171875;2.659071324403809;17.012645740609383;9.07236561829211;0.91162109375;0.1435546875;-0.3935546875;3.9375;10.375;-17.25;
1441975258939834;-0.838134765625;0.07672119140625;-0.5216064453125;-0.14044189453125;2.6393078503270218;16.977191061132327;9.115406283294337;0.923828125;0.15869140625;-0.39404296875;4.3125;11.5;-15.9375;
1441975258968836;-0.836669921875;0.07403564453125;-0.5240478515625;-0.141357421875;2.613664094594991;16.942613381186625;9.157893743503742;0.94482421875;0.15771484375;-0.38818359375;3.625;12.5625;-14.9375;
1441975258976836;-0.8349609375;0.0712890625;-0.5269775390625;-0.14190673828125;2.5819863404819476;16.909452741168966;9.20086784815177;0.947265625;0.154296875;-0.3681640625;3.6875;14.625;-13.75;
1441975259000838;-0.8331298828125;0.06842041015625;-0.53021240234375;-0.14208984375;2.546825466944227;16.87767358365287;9.244568625727922;0.943359375;0.15283203125;-0.35302734375;5.8125;17.125;-12.75;
1441975259021839;-0.83111572265625;0.0655517578125;-0.53369140625;-0.14227294921875;2.5087163663008667;16.843880104907466;9.290304975258207;0.9482421875;0.158203125;-0.34716796875;8.0;18.875;-11.9375;
1441975259036840;-0.8289794921875;0.06280517578125;-0.53729248046875;-0.1424560546875;2.468930464870904;16.809135772248226;9.336473511820213;0.94921875;0.1640625;-0.322265625;8.4375;19.5625;-11.3125;
1441975259075842;-0.82666015625;0.0601806640625;-0.54107666015625;-0.14251708984375;2.4263057963312695;16.774369305220183;9.382646538611885;0.94677734375;0.158203125;-0.30322265625;7.4375;19.9375;-11.0625;
1441975259081842;-0.8243408203125;0.05731201171875;-0.54498291015625;-0.14227294921875;2.383020506381965;16.739561397717335;9.431166938004809;0.9521484375;0.140625;-0.28515625;7.6875;20.5;-11.25;
1441975259096843;-0.82196044921875;0.0543212890625;-0.5489501953125;-0.1417236328125;2.3389647386154424;16.705478808384445;9.480689583017767;0.958984375;0.12939453125;-0.28076171875;9.3125;21.375;-11.8125;
1441975259119845;-0.81964111328125;0.05126953125;-0.55291748046875;-0.1412353515625;2.296064841396361;16.668847878706888;9.532771778477146;0.9609375;0.13427734375;-0.275390625;11.25;21.9375;-11.6875;
1441975259141846;-0.8172607421875;0.04852294921875;-0.5567626953125;-0.140869140625;2.253875621341017;16.63162975976705;9.583564274936146;0.9609375;0.1552734375;-0.27001953125;11.5625;22.125;-10.625;
1441975259156847;-0.81500244140625;0.0458984375;-0.5604248046875;-0.14044189453125;2.2140607413683964;16.595548629579213;9.63291622951009;0.96142578125;0.15576171875;-0.2685546875;10.0;22.0;-9.6875;
1441975259180848;-0.8128662109375;0.04302978515625;-0.56396484375;-0.13958740234375;2.17615244868621;16.562079729416897;9.682382649210945;0.95068359375;0.1416015625;-0.26416015625;9.5625;21.3125;-10.0625;
1441975259201849;-0.81072998046875;0.03997802734375;-0.5675048828125;-0.13824462890625;2.137907793984791;16.531619575675837;9.731564560203102;0.93505859375;0.1279296875;-0.259765625;11.9375;21.0;-10.5625;
1441975259216850;-0.8087158203125;0.03668212890625;-0.57098388671875;-0.1365966796875;2.1012246126640814;16.502272379367124;9.781888289155484;0.93408203125;0.1220703125;-0.24609375;15.0;20.6875;-10.3125;
1441975259240851;-0.806884765625;0.03326416015625;-0.57421875;-0.1348876953125;2.0683615580838515;16.473181255128946;9.83264880369766;0.94140625;0.1337890625;-0.2412109375;17.375;20.125;-10.0;
1441975259261853;-0.80517578125;0.0299072265625;-0.5771484375;-0.13311767578125;2.0388393380862326;16.44606318317122;9.88132390561474;0.94384765625;0.14453125;-0.23876953125;18.5;19.0625;-9.5;
1441975259276854;-0.80364990234375;0.02655029296875;-0.57989501953125;-0.13134765625;2.012292567652315;16.41964195279629;9.929283223591973;0.94482421875;0.14208984375;-0.24609375;18.3125;17.625;-9.625;
1441975259300855;-0.80224609375;0.023193359375;-0.5823974609375;-0.12939453125;1.9882532688004417;16.396390600039325;9.974746661163369;0.93994140625;0.14404296875;-0.23583984375;18.5;15.9375;-9.8125;
1441975259321856;-0.801025390625;0.02008056640625;-0.5845947265625;-0.12750244140625;1.9674345070675288;16.376177966784347;10.015854277629636;0.951171875;0.15576171875;-0.232421875;19.4375;14.5625;-8.75;
1441975259336857;-0.79998779296875;0.01727294921875;-0.58648681640625;-0.12603759765625;1.950795958815175;16.355141977227504;10.054725816636168;0.95703125;0.16943359375;-0.24267578125;19.0625;13.1875;-7.25;
1441975259359858;-0.79901123046875;0.01470947265625;-0.58807373046875;-0.12493896484375;1.9376447038230533;16.333038745356475;10.092058061303568;0.93798828125;0.1669921875;-0.23095703125;15.875;10.75;-7.4375;
1441975259381860;-0.79815673828125;0.0123291015625;-0.5894775390625;-0.1239013671875;1.9264258468463813;16.313068802825594;10.126228846339544;0.92431640625;0.17431640625;-0.2236328125;13.75;9.375;-7.0625;
1441975259396860;-0.79730224609375;0.010498046875;-0.59088134765625;-0.1231689453125;1.914320493244546;16.293646029113983;10.156353499688915;0.9306640625;0.18896484375;-0.23828125;12.5625;8.5625;-5.8125;
1441975259419862;-0.79656982421875;0.0089111328125;-0.592041015625;-0.12249755859375;1.9043220360862232;16.277406158385375;10.181995458738989;0.94482421875;0.21533203125;-0.2412109375;9.9375;8.5625;-2.75;
1441975259441863;-0.79595947265625;0.0079345703125;-0.5928955078125;-0.12225341796875;1.8967893204475523;16.2633343311461;10.20115336478587;0.943359375;0.23583984375;-0.24658203125;9.375;7.1875;-0.4375;
1441975259456864;-0.7952880859375;0.007568359375;-0.5936279296875;-0.1229248046875;1.8910054283771764;16.24308058897241;10.220182577039726;0.9267578125;0.240234375;-0.232421875;5.5625;4.8125;0.5625;
1441975259487866;-0.79449462890625;0.00823974609375;-0.59442138671875;-0.12432861328125;1.8826773487094455;16.221205702455332;10.233572927659418;0.90966796875;0.2421875;-0.2158203125;-0.75;3.1875;0.9375;
1441975259494866;-0.7935791015625;0.00970458984375;-0.59521484375;-0.1263427734375;1.872813552140078;16.197479137248408;10.243031954737589;0.91015625;0.22509765625;-0.21435546875;-8.0;3.1875;1.875;
1441975259516867;-0.79266357421875;0.0111083984375;-0.595947265625;-0.12835693359375;1.8637577007757051;16.173428692539694;10.253043584118807;0.89990234375;0.20703125;-0.21240234375;-13.5;3.6875;2.125;
1441975259540869;-0.7918701171875;0.01239013671875;-0.5965576171875;-0.13043212890625;1.8571922516901083;16.148957135552948;10.263728765204203;0.89111328125;0.20263671875;-0.20947265625;-14.0625;3.5;1.75;
1441975259562870;-0.791015625;0.0137939453125;-0.59710693359375;-0.13275146484375;1.8513041458813455;16.122280497755078;10.275074798676886;0.88671875;0.21875;-0.21875;-13.3125;3.375;1.875;
1441975259576871;-0.79010009765625;0.01544189453125;-0.5977783203125;-0.13525390625;1.8438436664241007;16.094057638574174;10.286252634453865;0.857421875;0.21630859375;-0.2041015625;-14.875;2.875;1.625;
1441975259601872;-0.78900146484375;0.01708984375;-0.59857177734375;-0.1376953125;1.8342176708160227;16.06437353124321;10.299117881187412;0.83984375;0.2138671875;-0.2041015625;-16.875;3.9375;2.375;
1441975259620873;-0.78778076171875;0.01837158203125;-0.599609375;-0.14007568359375;1.823444840478677;16.029553257760817;10.318921538651935;0.8369140625;0.203125;-0.20751953125;-16.875;5.6875;1.75;
1441975259637874;-0.78656005859375;0.0194091796875;-0.6007080078125;-0.14190673828125;1.8111123510915086;15.998892302395355;10.33783309941505;0.83642578125;0.21728515625;-0.212890625;-15.0625;7.75;1.5625;
1441975259660875;-0.78533935546875;0.02020263671875;-0.60186767578125;-0.1435546875;1.7987608081273536;15.967684178758986;10.359065126624301;0.85595703125;0.22998046875;-0.2275390625;-12.0;9.6875;2.75;
1441975259681877;-0.78399658203125;0.02117919921875;-0.6031494140625;-0.14544677734375;1.7851553415288222;15.932789907446145;10.382246830256783;0.861328125;0.25;-0.228515625;-10.125;10.0;3.375;
1441975259696878;-0.78240966796875;0.0228271484375;-0.604736328125;-0.1475830078125;1.765947197742742;15.896058952887628;10.403574648122477;0.857421875;0.26318359375;-0.220703125;-11.875;10.5625;4.5625;
1441975259719879;-0.780517578125;0.025146484375;-0.6064453125;-0.14971923828125;1.741118511402449;15.861260662298506;10.420156174048675;0.86767578125;0.26416015625;-0.20947265625;-15.1875;11.8125;6.9375;
1441975259741880;-0.7786865234375;0.02801513671875;-0.60821533203125;-0.1519775390625;1.7141452795144836;15.829087369500044;10.431458764474383;0.89208984375;0.275390625;-0.220703125;-18.0;13.625;10.1875;
1441975259756881;-0.77685546875;0.03125;-0.60980224609375;-0.154052734375;1.6860097772802254;15.803423806292535;10.43542696384;0.927734375;0.2783203125;-0.23828125;-20.6875;14.125;12.25;
1441975259779882;-0.7752685546875;0.0343017578125;-0.6112060546875;-0.15582275390625;1.6600691911389542;15.783225807040902;10.435958413618685;0.92431640625;0.25341796875;-0.2373046875;-21.25;13.1875;12.75;
1441975259800884;-0.77362060546875;0.037353515625;-0.61273193359375;-0.1573486328125;1.631753392375223;15.764449094379486;10.43610612401297;0.89697265625;0.22119140625;-0.20947265625;-19.5625;10.9375;11.4375;
1441975259816884;-0.77191162109375;0.04046630859375;-0.61419677734375;-0.15948486328125;1.6061188013071719;15.737584552302586;10.441565478104154;0.89111328125;0.19482421875;-0.20458984375;-18.9375;11.1875;10.5625;
1441975259840886;-0.77008056640625;0.04437255859375;-0.6153564453125;-0.16265869140625;1.5830445235923902;15.70515766043653;10.444938206336493;0.8984375;0.22216796875;-0.21240234375;-21.5;12.125;10.625;
1441975259861887;-0.768310546875;0.04931640625;-0.6160888671875;-0.166748046875;1.5625624888862932;15.674045749362758;10.43889011242911;0.90576171875;0.248046875;-0.2265625;-28.875;11.875;11.9375;
1441975259876888;-0.76654052734375;0.0548095703125;-0.61669921875;-0.17083740234375;1.540150648503957;15.649150204007547;10.424348494111374;0.908203125;0.22998046875;-0.2275390625;-37.125;9.5;11.6875;
1441975259899889;-0.7646484375;0.06024169921875;-0.61749267578125;-0.17462158203125;1.5145355383845602;15.624956524847384;10.410644700814904;0.91552734375;0.20654296875;-0.216796875;-39.375;8.25;12.0;
1441975259921890;-0.76300048828125;0.0650634765625;-0.61810302734375;-0.1778564453125;1.4920189136957964;15.606300563671388;10.396137395543038;0.9208984375;0.17431640625;-0.205078125;-37.875;8.125;11.1875;
1441975259936891;-0.76153564453125;0.06988525390625;-0.61834716796875;-0.18133544921875;1.47428358931975;15.589325259210556;10.378852032762175;0.9033203125;0.1552734375;-0.205078125;-33.6875;7.6875;9.5625;
1441975259959893;-0.76025390625;0.07476806640625;-0.61834716796875;-0.1849365234375;1.4595351921591464;15.575386478368596;10.35776305287191;0.85693359375;0.1513671875;-0.1875;-34.3125;5.25;8.125;
1441975259981894;-0.75885009765625;0.07965087890625;-0.61834716796875;-0.1884765625;1.4437945934853298;15.561175671512869;10.337111001544127;0.81640625;0.126953125;-0.18408203125;-35.375;3.625;7.125;
1441975259996895;-0.757568359375;0.083984375;-0.61859130859375;-0.191162109375;1.4256429386344707;15.552721616364083;10.316627221011759;0.81201171875;0.12109375;-0.181640625;-35.1875;4.375;6.5;
1441975260019896;-0.75640869140625;0.08721923828125;-0.618896484375;-0.1932373046875;1.4104089047360964;15.542143968345512;10.30526580778598;0.8232421875;0.09326171875;-0.1943359375;-29.9375;5.9375;5.9375;
1441975260049898;-0.755615234375;0.08935546875;-0.61895751953125;-0.19512939453125;1.4036784801422808;15.528345914826827;10.302355427950685;0.82177734375;0.099609375;-0.19384765625;-22.8125;6.9375;3.6875;
1441975260056898;-0.755126953125;0.09112548828125;-0.61859130859375;-0.197265625;1.4047468427903893;15.514150482273248;10.300230020456999;0.7958984375;0.12744140625;-0.18017578125;-17.625;5.0;1.25;
1441975260079899;-0.7547607421875;0.093017578125;-0.6180419921875;-0.1995849609375;1.4080430671423958;15.501637185382046;10.295151410499217;0.76953125;0.1240234375;-0.1630859375;-17.1875;1.9375;-1.4375;
1441975260102901;-0.75396728515625;0.094482421875;-0.61798095703125;-0.2017822265625;1.4071099307524382;15.476962725600414;10.304477889097614;0.74560546875;0.09033203125;-0.1416015625;-18.0625;-0.5;-4.125;
1441975260117902;-0.753173828125;0.0955810546875;-0.61798095703125;-0.20440673828125;1.4097523868340016;15.4413061723118;10.324594946794345;0.74462890625;0.05810546875;-0.111328125;-16.5625;1.375;-7.0625;
1441975260139903;-0.75286865234375;0.09722900390625;-0.61700439453125;-0.20751953125;1.4215810493208745;15.419464633312074;10.3263301941037;0.74755859375;0.099609375;-0.10498046875;-16.6875;1.875;-7.375;
1441975260169905;-0.7532958984375;0.099365234375;-0.614990234375;-0.2110595703125;1.4442442137397995;15.414679804066584;10.307081016142392;0.7890625;0.10205078125;-0.12109375;-20.5;-3.4375;-8.3125;
1441975260183905;-0.75390625;0.101806640625;-0.61260986328125;-0.21478271484375;1.4697905480895124;15.415566873219502;10.280038246650337;0.8310546875;0.060546875;-0.14404296875;-24.9375;-9.9375;-13.3125;
1441975260199906;-0.75457763671875;0.10394287109375;-0.61077880859375;-0.2164306640625;1.4834094788830063;15.438008266581308;10.241466417575797;0.865234375;0.06884765625;-0.154296875;-26.5;-12.625;-13.3125;
1441975260222908;-0.75506591796875;0.10455322265625;-0.61016845703125;-0.21612548828125;1.4859241188976415;15.459244742977912;10.218902160420482;0.91455078125;0.0244140625;-0.19921875;-17.5625;-8.5;-10.4375;
1441975260252909;-0.755615234375;0.10430908203125;-0.60986328125;-0.21527099609375;1.4884077587981273;15.477259569197232;10.20548508847008;0.89892578125;-0.01806640625;-0.169921875;-3.0625;-4.1875;-10.9375;
1441975260259910;-0.75555419921875;0.10595703125;-0.60968017578125;-0.21502685546875;1.47994769288957;15.499195640494834;10.177737538073925;0.87109375;0.1015625;-0.1357421875;4.0625;-4.1875;-4.125;
1441975260282911;-0.75469970703125;0.11029052734375;-0.60955810546875;-0.21636962890625;1.4605543708841333;15.518635444784277;10.134816429120006;0.908203125;0.18212890625;-0.14208984375;-4.75;-3.6875;7.8125;
1441975260303912;-0.75286865234375;0.11651611328125;-0.6099853515625;-0.21820068359375;1.4246231495098347;15.538163900358395;10.081963981074797;0.939453125;0.13525390625;-0.1337890625;-22.0625;-3.6875;10.875;
1441975260327914;-0.75079345703125;0.12335205078125;-0.6104736328125;-0.22039794921875;1.3856857539882408;15.55799516733699;10.024788138218995;0.9609375;0.04345703125;-0.095703125;-32.5625;-2.9375;12.5;
1441975260342915;-0.74859619140625;0.13043212890625;-0.61083984375;-0.22265625;1.3462889120374275;15.581948169519034;9.962071213803057;0.98095703125;0.037109375;-0.06591796875;-36.125;-4.125;14.125;
1441975260363916;-0.74566650390625;0.1385498046875;-0.61187744140625;-0.22467041015625;1.2919312308024227;15.612570662985737;9.889526784305376;1.00390625;0.05712890625;-0.0224609375;-36.6875;-7.625;15.9375;
1441975260379917;-0.7425537109375;0.14617919921875;-0.613525390625;-0.2257080078125;1.2304341078667216;15.650804038660919;9.81563537388896;1.01123046875;-0.0126953125;0.01171875;-39.9375;-5.8125;19.0625;
1441975260402918;-0.73980712890625;0.15191650390625;-0.6156005859375;-0.22509765625;1.1701415870224285;15.697483258263704;9.748096482436091;0.99609375;-0.06201171875;0.0283203125;-34.3125;-3.1875;18.375;
1441975260430920;-0.73748779296875;0.15582275390625;-0.6175537109375;-0.22491455078125;1.1232567036493009;15.71801710132906;9.712561649068483;1.00390625;-0.06005859375;0.02294921875;-19.75;-1.0;16.9375;
1441975260439920;-0.73504638671875;0.159912109375;-0.61920166015625;-0.22540283203125;1.0798419198038685;15.7318428546961;9.67992908831381;1.01611328125;0.05322265625;0.03857421875;-13.25;-1.375;15.5;
1441975260471922;-0.732177734375;0.1644287109375;-0.620849609375;-0.22705078125;1.0363394254624294;15.72525939051417;9.661034744793298;1.041015625;0.08740234375;0.04443359375;-16.875;-1.8125;16.25;
1441975260483923;-0.72930908203125;0.1685791015625;-0.622802734375;-0.227783203125;0.9885619711560896;15.729666077375029;9.636520206046619;1.05712890625;0.10498046875;0.03662109375;-23.9375;0.6875;15.625;
1441975260499923;-0.7265625;0.17193603515625;-0.62530517578125;-0.22711181640625;0.935394080830937;15.748402927803866;9.607028593800335;1.10107421875;0.07958984375;0.02685546875;-19.0625;2.25;16.125;
1441975260522925;-0.72406005859375;0.1734619140625;-0.62811279296875;-0.22625732421875;0.8882301920306902;15.735483735498512;9.617682304595657;1.1474609375;0.05517578125;0.01318359375;-9.5;5.125;17.0;
1441975260543926;-0.72210693359375;0.17376708984375;-0.63055419921875;-0.22552490234375;0.8529256439288455;15.703650256801975;9.651742590738412;1.15283203125;0.130859375;0.03955078125;-1.25;6.0625;15.5625;
1441975260559927;-0.72027587890625;0.1746826171875;-0.63232421875;-0.2255859375;0.8241081072236117;15.672721873965246;9.67879642049155;1.1552734375;0.1904296875;0.0244140625;3.3125;5.75;13.75;
1441975260589929;-0.7183837890625;0.1759033203125;-0.63409423828125;-0.22589111328125;0.7946479265328892;15.639218046437957;9.70621778297548;1.173828125;0.19140625;-0.037109375;-2.8125;7.4375;12.3125;
1441975260603929;-0.71630859375;0.17742919921875;-0.63568115234375;-0.22674560546875;0.7663716018011665;15.595184792208139;9.740421538270292;1.18359375;0.1572265625;-0.05859375;-5.8125;9.125;10.6875;
1441975260619930;-0.7144775390625;0.1793212890625;-0.63671875;-0.22808837890625;0.7442246807488353;15.556338799639523;9.765762058341021;1.2021484375;0.16796875;-0.05859375;-9.5;9.1875;10.625;
1441975260648932;-0.71246337890625;0.1824951171875;-0.63714599609375;-0.230712890625;0.7250851608997052;15.51749545840567;9.780210233850765;1.22021484375;0.205078125;-0.07275390625;-12.9375;7.625;12.125;
1441975260670933;-0.71051025390625;0.1861572265625;-0.637451171875;-0.2330322265625;0.7037552102087037;15.502047084299187;9.770486437094725;1.17919921875;0.19921875;-0.0791015625;-24.0625;6.625;12.25;
1441975260679934;-0.70843505859375;0.19122314453125;-0.63720703125;-0.23583984375;0.6813963314313931;15.51647688939594;9.722748755620684;1.1318359375;0.181640625;-0.095703125;-24.875;6.125;14.0;
1441975260710936;-0.706298828125;0.19708251953125;-0.63629150390625;-0.23980712890625;0.6649013604897033;15.52897467419959;9.668495025512891;1.0927734375;0.15576171875;-0.13330078125;-32.9375;6.3125;16.125;
1441975260748938;-0.70361328125;0.20428466796875;-0.63525390625;-0.244384765625;0.6424864843707144;15.553861508768595;9.593480552462296;1.10498046875;0.181640625;-0.1357421875;-41.1875;4.1875;16.3125;
1441975260751938;-0.70025634765625;0.21197509765625;-0.63433837890625;-0.24981689453125;0.6161496248351179;15.552725597115888;9.53862721360819;1.1201171875;0.119140625;-0.1337890625;-49.875;4.5;15.5;
1441975260764939;-0.6971435546875;0.2198486328125;-0.6329345703125;-0.25518798828125;0.5941163481408825;15.575916294281527;9.458667988703931;1.1337890625;0.13037109375;-0.068359375;-55.5;3.4375;16.6875;
1441975260783940;-0.69427490234375;0.22900390625;-0.63037109375;-0.26129150390625;0.5803613207352885;15.644174313914178;9.324707257773401;1.13671875;0.14599609375;-0.07421875;-56.0;0.625;17.75;
1441975260799941;-0.69146728515625;0.23919677734375;-0.6265869140625;-0.26849365234375;0.5770593506001239;15.73162823120271;9.161794317630697;1.15283203125;0.162109375;-0.0810546875;-64.625;-5.5;19.8125;
1441975260821942;-0.6888427734375;0.24981689453125;-0.6221923828125;-0.2757568359375;0.579742811326322;15.844460885578963;8.971030479503023;1.18896484375;0.17236328125;-0.12451171875;-74.5625;-7.9375;18.6875;
1441975260843943;-0.6865234375;0.2593994140625;-0.61810302734375;-0.281982421875;0.5840219008474569;15.959843141699567;8.78645477324193;1.216796875;0.10400390625;-0.14697265625;-77.125;-10.375;13.8125;
1441975260860944;-0.683349609375;0.2689208984375;-0.61395263671875;-0.28955078125;0.5868714921872243;16.00764665830231;8.663228660391919;1.28271484375;0.015625;-0.18310546875;-69.0625;-8.3125;7.625;
1441975260881945;-0.68231201171875;0.2760009765625;-0.60809326171875;-0.297607421875;0.6266377119887553;15.990136992949484;8.613262092691757;1.3427734375;0.0595703125;-0.12060546875;-75.125;-8.375;6.6875;
1441975260904947;-0.68292236328125;0.281494140625;-0.5999755859375;-0.307373046875;0.7044757421660384;15.900831724102046;8.63359316556086;1.41748046875;0.1533203125;-0.126953125;-66.875;-18.0625;-5.0;
1441975260919948;-0.68634033203125;0.279052734375;-0.59521484375;-0.31121826171875;0.7836077793053275;15.791382582717011;8.73558680049413;1.3681640625;0.291015625;-0.1474609375;-68.1875;-25.8125;-15.0;
1441975260941949;-0.6689453125;0.29400634765625;-0.60955810546875;-0.3074951171875;0.49360415377568556;16.100382352134258;8.380045388241706;1.27978515625;-0.06787109375;-0.064453125;-9.3125;-24.4375;-49.9375;
1441975260966950;-0.67498779296875;0.2913818359375;-0.6051025390625;-0.3056640625;0.5781927615844145;16.17224578412576;8.32727638820066;1.443359375;-0.833984375;0.45703125;-46.6875;43.0625;60.8125;
1441975260979951;-0.6824951171875;0.2877197265625;-0.59710693359375;-0.3082275390625;0.7119766650943192;16.076111569132124;8.426614244009745;1.482421875;0.75830078125;-0.587890625;20.9375;-3.75;26.125;
1441975261010953;-0.68731689453125;0.288330078125;-0.5897216796875;-0.31109619140625;0.8126738662201871;16.0862295160961;8.399291920836006;1.19580078125;0.49169921875;-0.3271484375;4.1875;-31.1875;-21.5625;
1441975261024954;-0.6883544921875;0.28594970703125;-0.5882568359375;-0.313720703125;0.8424435178787786;15.966638565465106;8.517247627787995;1.22998046875;0.14404296875;-0.251953125;-17.375;-34.0625;-26.0;
1441975261039954;-0.6932373046875;0.27325439453125;-0.5899658203125;-0.3111572265625;0.8922187361316369;15.767987799223695;8.78340891490825;1.45263671875;0.115234375;-0.0419921875;-2.625;-9.25;-24.25;
1441975261062956;-0.6982421875;0.25555419921875;-0.59332275390625;-0.30853271484375;0.9534439033867718;15.480779978812329;9.159905235656035;1.4482421875;0.1650390625;-0.23095703125;64.0625;14.0;-46.0625;
1441975261084957;-0.7020263671875;0.2462158203125;-0.59222412109375;-0.3096923828125;1.0290127002345661;15.336164166457074;9.339380315892884;1.2763671875;0.55712890625;-0.20458984375;87.125;28.125;-35.5625;
1441975261099958;-0.70477294921875;0.2403564453125;-0.5904541015625;-0.3114013671875;1.0922214524101719;15.253345576546256;9.4392873306142;1.29296875;0.40185546875;-0.2998046875;32.0625;11.6875;-33.75;
1441975261123959;-0.7093505859375;0.23248291015625;-0.58831787109375;-0.31103515625;1.1711399522645278;15.214488741775261;9.512912923460611;1.36376953125;0.2333984375;-0.234375;14.625;2.125;-35.125;
1441975261152961;-0.7158203125;0.22076416015625;-0.5869140625;-0.30743408203125;1.261112605135993;15.200743951656861;9.59222931671923;1.32275390625;0.169921875;-0.259765625;31.6875;-3.0625;-44.75;
1441975261174962;-0.722412109375;0.208251953125;-0.585205078125;-0.3038330078125;1.358091669970084;15.187601997224048;9.67378305019237;1.23974609375;0.1953125;-0.26806640625;62.0;-3.625;-48.875;
1441975261189963;-0.7265625;0.20025634765625;-0.58367919921875;-0.3023681640625;1.4266325309681247;15.17305088514037;9.728207540672429;1.16064453125;0.341796875;-0.26220703125;66.0;-4.4375;-43.125;
1441975261206964;-0.72918701171875;0.19671630859375;-0.5821533203125;-0.30120849609375;1.4655673953704227;15.190384439194153;9.7304046833124;1.1640625;0.32080078125;-0.232421875;38.0;-3.1875;-30.625;
1441975261225965;-0.73138427734375;0.19390869140625;-0.581298828125;-0.2994384765625;1.4907808091406467;15.214498119748573;9.725723600609319;1.17578125;0.22900390625;-0.25732421875;17.8125;-4.6875;-18.125;
1441975261241966;-0.7344970703125;0.1890869140625;-0.580322265625;-0.2967529296875;1.5281874267006925;15.23960774082989;9.732411064293723;1.1904296875;0.14697265625;-0.24755859375;17.3125;-3.125;-17.6875;
1441975261264967;-0.738037109375;0.185302734375;-0.57916259765625;-0.29248046875;1.5576626569764263;15.302955193200596;9.703339940815402;1.12744140625;0.19677734375;-0.24365234375;30.0625;-4.6875;-20.4375;
1441975261293969;-0.7413330078125;0.18255615234375;-0.57867431640625;-0.28692626953125;1.5708314989141656;15.386746385955192;9.655376585364337;1.072265625;0.146484375;-0.18505859375;33.875;-14.125;-13.875;
1441975261309970;-0.74456787109375;0.17919921875;-0.57781982421875;-0.28240966796875;1.5940486232799507;15.45007255725196;9.62565955647461;1.09130859375;0.10107421875;-0.2060546875;35.6875;-13.0625;-7.0;
1441975261324971;-0.7476806640625;0.17279052734375;-0.57861328125;-0.27642822265625;1.6120691982474027;15.489024839775608;9.639839523611005;1.06640625;0.12109375;-0.18701171875;33.1875;-14.0;-12.125;
1441975261347972;-0.75164794921875;0.1630859375;-0.57952880859375;-0.2696533203125;1.6458730759976605;15.511400185763732;9.6877678513124;1.0302734375;0.07861328125;-0.111328125;52.1875;-7.75;-19.625;
1441975261361973;-0.7567138671875;0.15545654296875;-0.57769775390625;-0.2637939453125;1.7016441964581075;15.568826935170152;9.686985771282163;0.958984375;0.2099609375;-0.12158203125;69.125;-5.0625;-21.9375;
1441975261384974;-0.76104736328125;0.15228271484375;-0.57464599609375;-0.25970458984375;1.7499938300392706;15.645167246181572;9.640623545583615;0.8984375;0.33984375;-0.18896484375;58.5;-18.125;-12.1875;
1441975261405975;-0.76556396484375;0.150146484375;-0.571533203125;-0.2545166015625;1.7924683165283846;15.744294913241582;9.571897925069349;0.892578125;0.24267578125;-0.14501953125;33.25;-29.4375;-6.25;
1441975261421976;-0.7698974609375;0.14794921875;-0.56939697265625;-0.2474365234375;1.8212245221529841;15.8581002997605;9.497137246129437;0.828125;0.1396484375;-0.1416015625;33.5625;-32.9375;-4.3125;
1441975261452978;-0.7723388671875;0.14593505859375;-0.5704345703125;-0.2384033203125;1.8068561902282148;15.971028531072228;9.431714874476237;0.76953125;0.09619140625;-0.11376953125;42.5;-31.1875;1.5625;
1441975261465979;-0.77435302734375;0.1436767578125;-0.57275390625;-0.22760009765625;1.7764216679453073;16.099492283707296;9.359630964740617;0.78759765625;0.0751953125;-0.0537109375;51.375;-17.8125;14.125;
1441975261495980;-0.77581787109375;0.1427001953125;-0.57452392578125;-0.218505859375;1.7496004903356999;16.219423006496164;9.283019628018847;0.78515625;0.1162109375;-0.09130859375;60.6875;-9.125;24.0;
1441975261504981;-0.77728271484375;0.1427001953125;-0.57525634765625;-0.21136474609375;1.7354732359225646;16.3279289220124;9.205111572307988;0.79248046875;0.22021484375;-0.1123046875;49.3125;-9.5625;31.5625;
1441975261525982;-0.7786865234375;0.14324951171875;-0.5755615234375;-0.204833984375;1.72630951663113;16.4359363133188;9.122588462425464;0.78369140625;0.25830078125;-0.1201171875;37.125;-12.9375;31.3125;
1441975261556984;-0.77923583984375;0.1439208984375;-0.5767822265625;-0.1986083984375;1.7054976338962962;16.535374750872982;9.046992330472875;0.73486328125;0.189453125;-0.10546875;31.4375;-15.3125;27.875;
1441975261566985;-0.77978515625;0.14361572265625;-0.57879638671875;-0.19085693359375;1.67886008617797;16.647115803527477;8.969810006231318;0.71044921875;0.16064453125;-0.0751953125;29.3125;-10.125;28.3125;
1441975261585986;-0.781982421875;0.143798828125;-0.57843017578125;-0.18255615234375;1.684980160638108;16.786482625845625;8.864517677642036;0.708984375;0.2041015625;-0.111328125;40.4375;-4.25;33.1875;
1441975261602987;-0.7794189453125;0.14666748046875;-0.58306884765625;-0.17626953125;1.6142713706262029;16.904618789853558;8.761962381287004;0.75634765625;0.28173828125;-0.3447265625;40.9375;-6.8125;38.625;
1441975261624988;-0.78240966796875;0.1510009765625;-0.58026123046875;-0.16845703125;1.6497276882897969;17.09353603518753;8.587076004775025;0.81494140625;0.13134765625;0.20361328125;23.8125;-7.6875;43.5625;
1441975261653989;-0.78314208984375;0.15478515625;-0.579345703125;-0.164794921875;1.6590545996574169;17.199381750716416;8.480572604774745;0.1162109375;0.0712890625;-0.40185546875;19.875;-8.9375;44.4375;
1441975261677991;-0.77801513671875;0.158447265625;-0.5855712890625;-0.1634521484375;1.5647098078011494;17.26138536321211;8.410360786878782;0.91015625;0.31689453125;-0.30322265625;8.125;-10.5;43.5625;
1441975261684991;-0.7818603515625;0.1644287109375;-0.58001708984375;-0.15936279296875;1.641498391473364;17.403187095147896;8.259414747621879;1.05224609375;0.22998046875;0.42236328125;1.0;-7.5625;41.875;
1441975261705992;-0.778564453125;0.16827392578125;-0.58270263671875;-0.1614990234375;1.593031879073;17.41816398929813;8.220055641881707;0.1533203125;0.1220703125;-0.6318359375;-3.75;-8.0;39.125;
1441975261729994;-0.77545166015625;0.17431640625;-0.58453369140625;-0.16339111328125;1.5542025974467597;17.466486506532554;8.138968239155963;1.3369140625;0.369140625;0.09375;-15.125;-10.1875;36.0;
1441975261744995;-0.77447509765625;0.18194580078125;-0.58282470703125;-0.16571044921875;1.5632732020914637;17.523769676609103;8.039553879776827;1.36328125;0.248046875;0.0712890625;-24.9375;-15.75;37.5625;
1441975261765996;-0.7738037109375;0.1905517578125;-0.580322265625;-0.1678466796875;1.5835208409926822;17.593421144098617;7.924115415598064;0.8447265625;0.15380859375;-0.1689453125;-36.125;-13.5625;33.25;
1441975261788997;-0.7728271484375;0.1976318359375;-0.57891845703125;-0.1690673828125;1.5932567815192042;17.660104370255546;7.822113969113831;0.75732421875;0.07373046875;-0.15380859375;-40.25;-18.5625;32.1875;
1441975261804998;-0.77239990234375;0.20281982421875;-0.57769775390625;-0.16912841796875;1.6062809999574146;17.720727568201642;7.738998721007895;0.77392578125;0.0380859375;-0.1611328125;-31.25;-12.375;28.125;
1441975261825999;-0.7728271484375;0.205810546875;-0.57611083984375;-0.16912841796875;1.626793041515349;17.751471067671652;7.695195287889218;0.80712890625;0.005859375;-0.23193359375;-19.5625;-9.0;20.75;
1441975261849001;-0.77392578125;0.207275390625;-0.5743408203125;-0.16827392578125;1.6534371573701123;17.77461122348608;7.668911728206272;0.81103515625;0.078125;-0.25830078125;-10.1875;-9.875;15.125;
1441975261865002;-0.77423095703125;0.20819091796875;-0.573486328125;-0.16845703125;1.6639669478614902;17.779092292747222;7.659493839069646;0.8125;0.09716796875;-0.2841796875;-0.8125;-10.75;11.5625;
1441975261886003;-0.779296875;0.2113037109375;-0.566162109375;-0.16595458984375;1.7726904305945368;17.817432377447833;7.616251140709517;1.318359375;0.169921875;-0.234375;-1.4375;-16.375;11.875;
1441975261902004;-0.77850341796875;0.21295166015625;-0.56658935546875;-0.16607666015625;1.7655722358738681;17.83678942985611;7.589501217390643;0.24951171875;0.03466796875;-0.69189453125;-3.25;-14.5625;10.625;
1441975261933005;-0.779541015625;0.21392822265625;-0.564697265625;-0.16656494140625;1.7898476095969915;17.831391737450577;7.588165999683248;1.123046875;0.03662109375;-0.06982421875;-5.5625;-16.3125;9.625;
1441975261951006;-0.78076171875;0.21417236328125;-0.56268310546875;-0.1671142578125;1.8153143880425957;17.81661270086109;7.598926081682343;0.89208984375;0.0556640625;-0.23974609375;-5.8125;-15.3125;2.5;
1441975261964007;-0.78240966796875;0.21417236328125;-0.55999755859375;-0.16864013671875;1.8474758243905702;17.782662206253168;7.625688766573179;0.85693359375;0.01708984375;-0.2802734375;-4.4375;-12.75;-4.1875;
1441975261985008;-0.7841796875;0.2147216796875;-0.55645751953125;-0.17156982421875;1.8864263012016742;17.732806626161743;7.6598114637534405;0.853515625;0.01220703125;-0.28369140625;-9.0;-15.5625;-10.3125;
1441975262008010;-0.78564453125;0.21649169921875;-0.55242919921875;-0.17547607421875;1.927716868146947;17.682374706716335;7.684913198207685;0.84033203125;0.05810546875;-0.298828125;-16.875;-17.5625;-10.4375;
1441975262022011;-0.787109375;0.21856689453125;-0.54815673828125;-0.1798095703125;1.9710876751296948;17.63002439467251;7.708729039620572;0.89794921875;0.0126953125;-0.330078125;-27.125;-18.8125;-11.5625;
1441975262045012;-0.78875732421875;0.2196044921875;-0.54400634765625;-0.18377685546875;2.014595686968475;17.574439740919416;7.741635878793317;0.935546875;-0.0361328125;-0.3544921875;-31.9375;-18.875;-15.75;
1441975262068013;-0.790771484375;0.22015380859375;-0.5396728515625;-0.187255859375;2.063026789714711;17.52192384054871;7.775508625025047;0.93603515625;-0.0244140625;-0.37744140625;-26.6875;-17.75;-19.1875;
1441975262082014;-0.79278564453125;0.220703125;-0.53546142578125;-0.190185546875;2.1114849251258856;17.478708785016813;7.802363875886591;0.92431640625;-0.0283203125;-0.416015625;-22.8125;-17.3125;-21.25;
1441975262112016;-0.794677734375;0.22113037109375;-0.53155517578125;-0.1925048828125;2.157320712734716;17.444341705545565;7.823454371453103;0.908203125;-0.03515625;-0.41455078125;-21.0;-17.5625;-20.0625;
1441975262128017;-0.79644775390625;0.2216796875;-0.5279541015625;-0.1944580078125;2.2001870962493166;17.41730545579594;7.838380806833839;0.892578125;-0.0302734375;-0.41455078125;-17.75;-16.6875;-18.3125;
1441975262149018;-0.79815673828125;0.221923828125;-0.52484130859375;-0.19580078125;2.2388296515753723;17.396830748737845;7.850865426773171;0.88232421875;-0.0224609375;-0.42578125;-15.875;-14.875;-16.0;
1441975262165019;-0.79986572265625;0.2220458984375;-0.52197265625;-0.1962890625;2.2762316165980394;17.386693771754302;7.857154219069585;0.890625;-0.017578125;-0.4365234375;-11.875;-13.0;-14.4375;
1441975262188020;-0.8013916015625;0.222412109375;-0.519287109375;-0.1966552734375;2.3109579043302872;17.380595873728154;7.85891766083365;0.896484375;-0.00244140625;-0.44677734375;-6.9375;-12.8125;-11.875;
1441975262210021;-0.80255126953125;0.223876953125;-0.51641845703125;-0.19805908203125;2.34407756886161;17.370823873377578;7.855238096296894;0.9013671875;0.0146484375;-0.451171875;-6.8125;-11.875;-8.6875;
1441975262233023;-0.8033447265625;0.22576904296875;-0.513671875;-0.19976806640625;2.373425969903588;17.361155560626905;7.8482443336351135;0.89697265625;0.0234375;-0.4462890625;-15.1875;-12.125;-6.1875;
1441975262249024;-0.8043212890625;0.2275390625;-0.51092529296875;-0.20086669921875;2.404637421288127;17.357640987656055;7.838198096882575;0.88623046875;0.0029296875;-0.435546875;-18.625;-11.5;-5.8125;
1441975262276025;-0.8052978515625;0.2288818359375;-0.50872802734375;-0.20098876953125;2.4317645578503013;17.36289973231097;7.825600462295383;0.8759765625;-0.0146484375;-0.47216796875;-16.375;-10.3125;-6.0;
1441975262291026;-0.806396484375;0.2291259765625;-0.50701904296875;-0.20062255859375;2.4554142039238203;17.36603111839786;7.8221632885821135;0.8701171875;-0.04052734375;-0.46826171875;-10.1875;-9.125;-6.1875;
1441975262308027;-0.80755615234375;0.228515625;-0.50543212890625;-0.20062255859375;2.4776399853791644;17.358763655087365;7.831285774002308;0.88037109375;-0.0146484375;-0.47265625;-3.4375;-6.5;-7.625;
1441975262329028;-0.80889892578125;0.22723388671875;-0.50384521484375;-0.2005615234375;2.5009954590437733;17.347362952964772;7.847668236063902;0.88427734375;0.03759765625;-0.48779296875;-1.125;-4.5625;-9.9375;
1441975262345029;-0.8101806640625;0.22607421875;-0.5023193359375;-0.20068359375;2.5232371918975978;17.33514408160689;7.863668629736397;0.8974609375;0.0478515625;-0.515625;1.25;-2.8125;-12.1875;
1441975262368030;-0.81170654296875;0.22442626953125;-0.5009765625;-0.19964599609375;2.546612114098423;17.33280807805719;7.876847373605803;0.88623046875;0.0400390625;-0.4921875;-0.0625;-3.75;-12.8125;
1441975262382031;-0.81353759765625;0.22247314453125;-0.4996337890625;-0.19775390625;2.5728511019480074;17.337873531513036;7.887610992214197;0.84716796875;0.021484375;-0.48388671875;6.9375;-4.4375;-12.875;
1441975262405032;-0.8154296875;0.21990966796875;-0.49871826171875;-0.195068359375;2.5962263308952727;17.34799448014175;7.899512361019616;0.82421875;0.02197265625;-0.4814453125;12.25;-5.5625;-11.6875;
1441975262435034;-0.81744384765625;0.21673583984375;-0.4979248046875;-0.19219970703125;2.619309283866349;17.35606012525916;7.916942853870868;0.8349609375;0.04736328125;-0.494140625;18.6875;-4.0;-10.3125;
1441975262449035;-0.819091796875;0.213623046875;-0.4974365234375;-0.18988037109375;2.6365577458880245;17.359088635490895;7.936930929143542;0.82373046875;0.0791015625;-0.50537109375;22.5;-2.5625;-10.9375;
1441975262464036;-0.8203125;0.2108154296875;-0.49737548828125;-0.18798828125;2.6466029687982022;17.360231604259237;7.9559027697228455;0.82080078125;0.10693359375;-0.49658203125;20.75;-0.5625;-9.4375;
1441975262478037;-0.82135009765625;0.20806884765625;-0.49749755859375;-0.186279296875;2.6535645894693376;17.36010103237268;7.975181856391586;0.833984375;0.09814453125;-0.48486328125;18.0;2.125;-9.0625;
1441975262501038;-0.82220458984375;0.20538330078125;-0.497802734375;-0.1844482421875;2.6577695223260775;17.361961082363003;7.992718593539804;0.8330078125;0.10205078125;-0.4873046875;16.8125;3.625;-8.4375;
1441975262524039;-0.82275390625;0.203125;-0.49847412109375;-0.18267822265625;2.6564962929600195;17.366494924489903;8.00570610064932;0.8330078125;0.10791015625;-0.50341796875;17.0625;5.75;-7.0;
1441975262547041;-0.82318115234375;0.20086669921875;-0.49945068359375;-0.18072509765625;2.651698220106434;17.37334212395758;8.017322765702788;0.84619140625;0.09130859375;-0.484375;15.5625;6.25;-5.6875;
1441975262569042;-0.8233642578125;0.1983642578125;-0.500732421875;-0.17901611328125;2.642208817261551;17.37619187114377;8.033001639614236;0.86083984375;0.08251953125;-0.47607421875;16.8125;7.1875;-5.1875;
1441975262584043;-0.82330322265625;0.19610595703125;-0.502197265625;-0.17779541015625;2.6289717274659554;17.375539951738688;8.049173492028299;0.88037109375;0.103515625;-0.46484375;16.75;8.4375;-5.125;
1441975262607044;-0.82305908203125;0.1943359375;-0.50341796875;-0.17718505859375;2.6163799974038;17.37124033361168;8.064104764991237;0.89208984375;0.10400390625;-0.443359375;13.9375;8.875;-5.1875;
1441975262621045;-0.8228759765625;0.1929931640625;-0.50421142578125;-0.1773681640625;2.607559875978444;17.360692789839277;8.079980632789423;0.90380859375;0.09765625;-0.431640625;9.125;7.5;-4.875;
1441975262644046;-0.82275390625;0.19189453125;-0.50457763671875;-0.17791748046875;2.602945367953759;17.347338642730005;8.09580778789248;0.91650390625;0.109375;-0.416015625;4.125;4.5625;-5.1875;
1441975262658047;-0.82281494140625;0.191162109375;-0.5045166015625;-0.1787109375;2.6033785739900246;17.333458476773046;8.109443469905772;0.9306640625;0.08447265625;-0.40966796875;0.5;1.5625;-7.5;
1441975262681048;-0.82305908203125;0.19024658203125;-0.5042724609375;-0.1793212890625;2.6069383907633945;17.32020439144756;8.123920033075427;0.93115234375;0.0595703125;-0.38720703125;-2.4375;-2.5;-8.5;
1441975262705050;-0.82354736328125;0.18890380859375;-0.503662109375;-0.18011474609375;2.615570485102322;17.301786833408702;8.14440242144285;0.91943359375;0.0439453125;-0.3720703125;-1.9375;-4.4375;-10.6875;
1441975262718050;-0.8243408203125;0.187255859375;-0.502685546875;-0.180908203125;2.6298247607235945;17.281232564651994;8.168177769306446;0.9091796875;0.05517578125;-0.3896484375;-1.125;-4.75;-12.9375;
1441975262741052;-0.8251953125;0.18548583984375;-0.50164794921875;-0.1817626953125;2.6452045841575256;17.259403480765;8.19347463159017;0.90771484375;0.068359375;-0.40576171875;-0.125;-6.1875;-14.75;
1441975262764053;-0.82598876953125;0.18389892578125;-0.500732421875;-0.1826171875;2.6591147740718735;17.239129682537392;8.216551241149567;0.90673828125;0.07470703125;-0.40673828125;-0.4375;-6.6875;-15.4375;
1441975262786054;-0.82666015625;0.18212890625;-0.49993896484375;-0.18316650390625;2.6714830428728216;17.221124601776456;8.239320472824035;0.9189453125;0.08056640625;-0.4208984375;-0.5625;-5.4375;-14.4375;
1441975262801055;-0.827392578125;0.1800537109375;-0.49951171875;-0.18328857421875;2.6811550068299583;17.206049373271785;8.262575393237483;0.93408203125;0.083984375;-0.43505859375;1.125;-4.3125;-14.0625;
1441975262824056;-0.827880859375;0.17779541015625;-0.49957275390625;-0.18310546875;2.6849468043394156;17.19318716908093;8.28584934085028;0.939453125;0.08935546875;-0.42626953125;4.9375;-3.625;-13.9375;
1441975262838057;-0.82818603515625;0.17578125;-0.49981689453125;-0.1829833984375;2.6857656109978825;17.181287786931787;8.306934964657572;0.9248046875;0.08984375;-0.4091796875;6.875;-1.75;-13.25;
1441975262861059;-0.82855224609375;0.17388916015625;-0.49993896484375;-0.182861328125;2.688130893912283;17.170227934068805;8.32662443572315;0.9091796875;0.1025390625;-0.396484375;6.5;-0.4375;-10.9375;
1441975262884060;-0.8287353515625;0.17254638671875;-0.4998779296875;-0.1832275390625;2.6907107897149163;17.15744209745369;8.3434710102797;0.88671875;0.12060546875;-0.3935546875;6.4375;-1.0;-9.375;
1441975262898061;-0.82879638671875;0.17169189453125;-0.49993896484375;-0.183837890625;2.6910078828764954;17.14525366298256;8.356773334095656;0.87841796875;0.14111328125;-0.37744140625;2.9375;-2.25;-7.0;
1441975262930062;-0.8287353515625;0.17095947265625;-0.49993896484375;-0.18463134765625;2.6910803762565996;17.13180395109689;8.36991171693372;0.89453125;0.1455078125;-0.376953125;0.5625;-2.0;-5.0625;
1441975262944063;-0.82855224609375;0.17071533203125;-0.4998779296875;-0.18572998046875;2.690608190188972;17.11822744058446;8.379786759001643;0.9052734375;0.1533203125;-0.3916015625;-0.875;-1.375;-4.5625;
1441975262960064;-0.8282470703125;0.17108154296875;-0.50006103515625;-0.1866455078125;2.6865610517143006;17.11060451254509;8.382121814235395;0.89404296875;0.166015625;-0.39501953125;-3.3125;-0.625;-2.4375;
1441975262990066;-0.82781982421875;0.17205810546875;-0.49993896484375;-0.18756103515625;2.6842054621969926;17.106908081077307;8.37761354452121;0.89453125;0.158203125;-0.404296875;-4.8125;0.4375;0.75;
1441975263004067;-0.82733154296875;0.17315673828125;-0.500244140625;-0.18817138671875;2.6772700000428764;17.107313230783447;8.37013976870549;0.89697265625;0.14501953125;-0.41845703125;-7.3125;-0.3125;2.8125;
1441975263019068;-0.82684326171875;0.17364501953125;-0.50067138671875;-0.1885986328125;2.6696978338859707;17.105607337131335;8.368100666803592;0.912109375;0.125;-0.40380859375;-6.6875;-0.0625;3.0625;
1441975263041069;-0.82635498046875;0.17388916015625;-0.50128173828125;-0.18896484375;2.660569122917297;17.102932177852626;8.368458365009504;0.91650390625;0.1416015625;-0.39892578125;-3.0625;0.6875;2.25;
1441975263064070;-0.8258056640625;0.17413330078125;-0.501953125;-0.18927001953125;2.6504867237879677;17.100857978943214;8.368461063799646;0.9130859375;0.13916015625;-0.39306640625;-2.0625;1.875;1.1875;
1441975263078071;-0.82501220703125;0.17425537109375;-0.50299072265625;-0.18988037109375;2.635448292906062;17.094428677997215;8.372219140931657;0.90283203125;0.1376953125;-0.38720703125;-1.6875;2.3125;1.25;
1441975263101072;-0.82427978515625;0.17449951171875;-0.50384521484375;-0.19061279296875;2.6224391736711072;17.08749551887585;8.375368958095606;0.90771484375;0.1650390625;-0.37158203125;-1.75;4.1875;2.4375;
1441975263132074;-0.82373046875;0.1746826171875;-0.50445556640625;-0.19110107421875;2.6129862854249044;17.082929844521285;8.377309509849965;0.8916015625;0.15283203125;-0.39013671875;-3.25;4.875;1.8125;
1441975263138074;-0.8233642578125;0.1748046875;-0.50482177734375;-0.191650390625;2.6070620661951076;17.077414188546964;8.380133443463267;0.8642578125;0.1435546875;-0.390625;-2.4375;3.9375;1.125;
1441975263160076;-0.82305908203125;0.175048828125;-0.5050048828125;-0.1922607421875;2.6031668357188353;17.072113076548032;8.381874442142735;0.86083984375;0.146484375;-0.3935546875;-2.625;2.5625;0.6875;
1441975263184077;-0.8228759765625;0.1751708984375;-0.505126953125;-0.19268798828125;2.6007326089594924;17.06808688329898;8.383631647461398;0.8681640625;0.146484375;-0.4013671875;-3.4375;2.0;0.6875;
1441975263206078;-0.82257080078125;0.17535400390625;-0.50531005859375;-0.19342041015625;2.596894849148661;17.060998091623684;8.386916802069319;0.87060546875;0.15380859375;-0.4091796875;-2.0;1.8125;0.625;
1441975263221079;-0.82171630859375;0.17559814453125;-0.50628662109375;-0.1943359375;2.5819909128090166;17.05172307035801;8.391683547995099;0.87255859375;0.16015625;-0.40478515625;-3.5;2.625;0.625;
1441975263244080;-0.82098388671875;0.17559814453125;-0.5074462890625;-0.19439697265625;2.566328756086415;17.050260073587577;8.39337861132841;0.89306640625;0.1728515625;-0.375;-3.625;5.375;2.625;
1441975263258081;-0.82049560546875;0.175537109375;-0.50811767578125;-0.19451904296875;2.5569239432422495;17.047931501488133;8.39566701736178;0.90185546875;0.15673828125;-0.40234375;0.5;7.125;2.875;
1441975263281083;-0.82000732421875;0.175537109375;-0.50897216796875;-0.19451904296875;2.54570109419536;17.0473867978363;8.396619819175314;0.89208984375;0.18115234375;-0.41650390625;0.6875;5.4375;3.0625;
1441975263304084;-0.8193359375;0.17572021484375;-0.5098876953125;-0.19464111328125;2.5325868042248683;17.04658209430042;8.39647571611452;0.89697265625;0.1591796875;-0.40380859375;0.8125;5.5;2.75;
1441975263318085;-0.818603515625;0.17584228515625;-0.51092529296875;-0.19482421875;2.5179818904405864;17.044571865179677;8.397605620255357;0.88623046875;0.142578125;-0.40234375;-0.75;6.4375;2.4375;
1441975263341086;-0.81787109375;0.17584228515625;-0.51226806640625;-0.19464111328125;2.5005628018424773;17.04579225540116;8.397797285632112;0.88427734375;0.16015625;-0.39501953125;-0.3125;7.375;3.5;
1441975263364087;-0.817138671875;0.17584228515625;-0.51348876953125;-0.19439697265625;2.4843134929306014;17.047717283654855;8.397391385658343;0.9150390625;0.1591796875;-0.39599609375;2.0;7.625;4.125;
1441975263378088;-0.81640625;0.17608642578125;-0.5145263671875;-0.1944580078125;2.469590314941339;17.047985866497573;8.39624276071488;0.92138671875;0.1708984375;-0.39453125;2.5;7.0625;4.8125;
1441975263401089;-0.815673828125;0.17657470703125;-0.51544189453125;-0.1947021484375;2.455807416072085;17.04799255254563;8.393514268767913;0.935546875;0.1787109375;-0.39111328125;0.4375;5.875;5.1875;
1441975263424091;-0.8148193359375;0.1771240234375;-0.51641845703125;-0.19500732421875;2.440621680433422;17.047632536401654;8.390598543249382;0.93701171875;0.16015625;-0.38720703125;-1.6875;5.0;4.875;
1441975263438092;-0.8140869140625;0.17755126953125;-0.51739501953125;-0.1953125;2.4263134133217363;17.046496313352424;8.389084203050249;0.93701171875;0.1416015625;-0.3779296875;-2.6875;5.0625;3.6875;
1441975263461093;-0.81341552734375;0.17791748046875;-0.5181884765625;-0.19561767578125;2.4141927449635814;17.044967549939063;8.388070923373382;0.92431640625;0.1455078125;-0.38037109375;-2.0625;5.8125;3.5;
1441975263484094;-0.81292724609375;0.17816162109375;-0.518798828125;-0.19586181640625;2.405080921040631;17.04342291645193;8.387804775992446;0.9140625;0.1357421875;-0.39599609375;-2.5625;5.9375;2.6875;
1441975263498095;-0.8125;0.17816162109375;-0.5194091796875;-0.19586181640625;2.3965754168572895;17.042917328567192;8.388515416063871;0.892578125;0.13330078125;-0.39453125;-1.9375;5.3125;1.75;
1441975263521096;-0.81219482421875;0.1778564453125;-0.52001953125;-0.19580078125;2.389122106486186;17.04089308268702;8.39234132671555;0.87939453125;0.12548828125;-0.390625;-0.125;5.375;0.8125;
1441975263544098;-0.81195068359375;0.17742919921875;-0.520751953125;-0.19549560546875;2.380998264418224;17.040841729776844;8.395858307291823;0.86279296875;0.1328125;-0.38525390625;1.5625;5.625;0.25;
1441975263568099;-0.81158447265625;0.17657470703125;-0.52178955078125;-0.19500732421875;2.369595615160491;17.03942889372737;8.403372602019223;0.87451171875;0.14892578125;-0.390625;3.375;6.0625;1.3125;
1441975263582100;-0.8111572265625;0.17559814453125;-0.52294921875;-0.19427490234375;2.356748560809826;17.03982634473279;8.410602032425134;0.9091796875;0.181640625;-0.390625;6.625;7.0625;2.5625;
1441975263604101;-0.810791015625;0.17498779296875;-0.52374267578125;-0.1942138671875;2.3474716691033852;17.03519574298239;8.41838209616698;0.921875;0.19091796875;-0.39501953125;8.5;8.0;2.875;
1441975263618102;-0.81005859375;0.17510986328125;-0.52471923828125;-0.19464111328125;2.333479221742889;17.030041390733366;8.421615621159896;0.9140625;0.2041015625;-0.40380859375;4.125;7.375;3.375;
1441975263641103;-0.809326171875;0.1756591796875;-0.5255126953125;-0.1949462890625;2.3207965948729488;17.029775717902996;8.418542858398412;0.91162109375;0.16650390625;-0.373046875;-1.25;6.8125;3.4375;
1441975263664104;-0.80877685546875;0.176025390625;-0.526123046875;-0.19549560546875;2.311217846840482;17.025343416995593;8.419394967433497;0.8994140625;0.13134765625;-0.373046875;-3.25;6.4375;3.375;
1441975263678105;-0.808349609375;0.1759033203125;-0.5267333984375;-0.19561767578125;2.3028488543060037;17.022249678110672;8.422691686694805;0.9033203125;0.13232421875;-0.37060546875;-3.75;4.9375;1.625;
1441975263701107;-0.80810546875;0.17547607421875;-0.52728271484375;-0.1956787109375;2.2965228527746264;17.01762801501786;8.42911001205188;0.9150390625;0.11962890625;-0.3671875;-0.375;4.375;-0.5625;
1441975263724108;-0.80804443359375;0.17462158203125;-0.527587890625;-0.19573974609375;2.294119520303833;17.009774137712192;8.440394351506146;0.923828125;0.11474609375;-0.36181640625;1.1875;3.5;-2.4375;
1441975263738109;-0.8079833984375;0.17376708984375;-0.5279541015625;-0.1956787109375;2.2911389030893945;17.003369169126213;8.450783267391204;0.92529296875;0.1318359375;-0.37109375;2.25;2.5625;-3.625;
1441975263760110;-0.8079833984375;0.1727294921875;-0.52825927734375;-0.19580078125;2.2893797496186723;16.993317520565526;8.464818575197352;0.93212890625;0.1171875;-0.37158203125;2.625;2.8125;-4.5625;
1441975263783111;-0.80804443359375;0.17144775390625;-0.52850341796875;-0.1959228515625;2.2888971073548214;16.981358831399326;8.481733663274102;0.92529296875;0.125;-0.37255859375;2.75;3.1875;-5.4375;
1441975263798112;-0.8079833984375;0.1702880859375;-0.52880859375;-0.19647216796875;2.2871076456119974;16.964988590661854;8.500803917863555;0.90771484375;0.130859375;-0.3642578125;3.3125;2.8125;-6.3125;
1441975263821113;-0.80792236328125;0.1693115234375;-0.52911376953125;-0.19683837890625;2.2851154581336224;16.952318326116256;8.516173908187508;0.890625;0.14306640625;-0.34423828125;1.6875;3.0;-5.9375;
1441975263843115;-0.807861328125;0.16815185546875;-0.52935791015625;-0.197265625;2.2840052102973925;16.93741471431589;8.534197121467692;0.8896484375;0.13525390625;-0.35498046875;1.3125;3.0625;-5.125;
1441975263858116;-0.807861328125;0.16668701171875;-0.52972412109375;-0.19775390625;2.2826265908477277;16.91928657175793;8.556617481224833;0.89990234375;0.15673828125;-0.35498046875;2.1875;3.125;-5.0;
1441975263881117;-0.80718994140625;0.16497802734375;-0.53082275390625;-0.19891357421875;2.2708875723246775;16.889259422748445;8.589298700018801;0.912109375;0.17041015625;-0.34521484375;3.5;3.125;-5.875;
1441975263903118;-0.806884765625;0.163330078125;-0.53094482421875;-0.2010498046875;2.27146672483433;16.849014896210868;8.627397699499436;0.93359375;0.171875;-0.326171875;1.0;7.625;-8.3125;
1441975263918119;-0.80718994140625;0.161376953125;-0.52996826171875;-0.2041015625;2.2878355265942383;16.797584571254898;8.673717411431603;0.9541015625;0.19677734375;-0.357421875;-4.0;4.9375;-10.9375;
1441975263941120;-0.80804443359375;0.15863037109375;-0.52801513671875;-0.20770263671875;2.319368979851081;16.736368851321387;8.730326228267092;0.9365234375;0.2158203125;-0.37939453125;-7.5;0.6875;-16.1875;
1441975263963122;-0.80963134765625;0.15509033203125;-0.5250244140625;-0.21185302734375;2.3682641936202633;16.667400459585735;8.79532154752276;0.908203125;0.22265625;-0.38671875;-8.1875;-2.875;-23.125;
1441975263986123;-0.811767578125;0.1507568359375;-0.521240234375;-0.216064453125;2.4309513445005577;16.597253360690186;8.864145966158738;0.8779296875;0.267578125;-0.4169921875;-7.9375;-5.875;-27.5625;
1441975264001124;-0.81488037109375;0.1458740234375;-0.51593017578125;-0.22039794921875;2.5165743064449053;16.530703779329656;8.930474088779285;0.8369140625;0.3134765625;-0.43896484375;-5.25;-8.5;-30.75;
1441975264023125;-0.8177490234375;0.14117431640625;-0.5106201171875;-0.22509765625;2.6020999105762317;16.46508927856108;8.99339479594759;0.7978515625;0.3583984375;-0.46630859375;-3.875;-15.0;-33.8125;
1441975264046126;-0.81982421875;0.13629150390625;-0.506103515625;-0.23089599609375;2.679255067454564;16.387001903548946;9.06510413113827;0.89013671875;0.35693359375;-0.45361328125;-6.3125;-18.5;-36.375;
1441975264061127;-0.82135009765625;0.13165283203125;-0.50213623046875;-0.236572265625;2.748884611572747;16.31287417268723;9.132343738245245;0.72900390625;0.287109375;-0.25830078125;-10.625;-19.625;-41.5625;
1441975264083128;-0.82293701171875;0.12713623046875;-0.4981689453125;-0.2418212890625;2.8191003481701165;16.24732217398747;9.192283111506857;1.2451171875;0.39013671875;-0.29833984375;-9.375;-27.9375;-42.6875;
1441975264106130;-0.82415771484375;0.1224365234375;-0.49505615234375;-0.24652099609375;2.8800190224061253;16.185815640416884;9.251660891994531;1.3388671875;0.3828125;-0.32177734375;-8.4375;-29.75;-44.6875;
1441975264129131;-0.82513427734375;0.1173095703125;-0.4925537109375;-0.2506103515625;2.9352089552918663;16.127905972720075;9.312034227038996;1.35888671875;0.3779296875;-0.265625;-4.3125;-29.0625;-44.875;
1441975264144132;-0.825927734375;0.112548828125;-0.4901123046875;-0.25506591796875;2.989627073645148;16.069860334314164;9.369454041461342;1.3408203125;0.376953125;-0.21337890625;0.4375;-28.625;-44.875;
1441975264166133;-0.82659912109375;0.1082763671875;-0.487548828125;-0.25958251953125;3.043980148103484;16.01561913166523;9.420570791430455;1.23974609375;0.36962890625;-0.16943359375;-1.6875;-27.6875;-43.5625;
1441975264180134;-0.82769775390625;0.1043701171875;-0.484375;-0.26361083984375;3.1042584379930007;15.972525925343701;9.460817738107181;1.07421875;0.314453125;-0.138671875;-4.625;-26.3125;-42.625;
1441975264203135;-0.8294677734375;0.10052490234375;-0.48028564453125;-0.2669677734375;3.1747105656723504;15.942067955898041;9.49061794076012;0.88134765625;0.2314453125;-0.15478515625;-6.0;-24.8125;-41.875;
1441975264226137;-0.83160400390625;0.09686279296875;-0.4761962890625;-0.2689208984375;3.2425872401963494;15.927085689087757;9.510316411145958;0.64990234375;0.189453125;-0.197265625;-4.5;-22.75;-39.125;
1441975264241137;-0.8343505859375;0.0924072265625;-0.47259521484375;-0.26849365234375;3.305522250744195;15.930412369829728;9.525888264501889;0.45654296875;0.1220703125;-0.23193359375;-0.625;-17.625;-34.75;
1441975264263139;-0.837158203125;0.08770751953125;-0.469482421875;-0.26666259765625;3.361277649879681;15.943644126628502;9.538954477062118;0.3427734375;0.111328125;-0.31396484375;11.6875;-9.6875;-28.875;
1441975264286140;-0.8397216796875;0.08428955078125;-0.46685791015625;-0.26422119140625;3.4044981705500974;15.965225433581177;9.541266363513682;0.27001953125;0.13818359375;-0.4052734375;18.0625;-0.625;-22.6875;
1441975264302141;-0.8414306640625;0.0831298828125;-0.4658203125;-0.26104736328125;3.418058983295286;15.995197305976259;9.52977487825189;0.25537109375;0.17333984375;-0.4990234375;15.875;5.875;-11.6875;
1441975264323142;-0.8399658203125;0.08551025390625;-0.4703369140625;-0.2569580078125;3.3488504509163177;16.023443594637158;9.511807522516769;0.37841796875;0.1787109375;-0.56103515625;11.5625;11.625;1.375;
1441975264346143;-0.836669921875;0.0889892578125;-0.47808837890625;-0.2520751953125;3.2346337961370057;16.050044252943472;9.495688725325442;0.927734375;0.1787109375;-0.33740234375;10.5;11.9375;17.5;
1441975264361144;-0.8323974609375;0.0936279296875;-0.4871826171875;-0.24713134765625;3.098815438407458;16.077391109601734;9.474673819748686;1.00927734375;0.150390625;-0.29443359375;10.5625;26.8125;27.875;
1441975264392146;-0.8272705078125;0.099609375;-0.4970703125;-0.2421875;2.9466498278747633;16.10870402416462;9.444138787195369;1.01416015625;0.14501953125;-0.259765625;7.5;33.0625;37.0;
1441975264406147;-0.8211669921875;0.10736083984375;-0.507568359375;-0.23785400390625;2.7793700495140397;16.142160010134138;9.401453810995147;0.9765625;0.13232421875;-0.255859375;3.125;39.25;46.1875;
1441975264421148;-0.814208984375;0.116455078125;-0.518798828125;-0.2333984375;2.5963946067828156;16.184856714029824;9.344558330306883;0.95654296875;0.1025390625;-0.24853515625;-6.375;44.1875;54.8125;
1441975264443149;-0.80682373046875;0.1256103515625;-0.5302734375;-0.2283935546875;2.40817902978702;16.23913393501761;9.277952090184103;0.96728515625;0.0751953125;-0.23974609375;-10.625;48.9375;62.4375;
1441975264466150;-0.79913330078125;0.13446044921875;-0.541748046875;-0.22332763671875;2.2201621788549737;16.300580178691146;9.20540158194319;0.96484375;0.0634765625;-0.23486328125;-8.25;52.25;66.0;
1441975264481151;-0.79083251953125;0.1435546875;-0.55352783203125;-0.21826171875;2.0263664279245153;16.373088760777193;9.120566186402762;0.9404296875;0.08984375;-0.232421875;-7.0;55.5;68.8125;
1441975264505153;-0.7822265625;0.1529541015625;-0.56512451171875;-0.213134765625;1.833230092678991;16.465288689031567;9.014625446171848;0.93798828125;0.0927734375;-0.21533203125;-7.5;58.9375;72.5625;
1441975264526154;-0.7730712890625;0.16339111328125;-0.57635498046875;-0.20867919921875;1.6412074698084544;16.581019757429576;8.87749491467346;0.94482421875;0.130859375;-0.22802734375;-7.875;61.375;78.4375;
1441975264541155;-0.76324462890625;0.1751708984375;-0.58721923828125;-0.2052001953125;1.450668320050502;16.729418204779194;8.697543514169592;0.98974609375;0.17578125;-0.2353515625;-14.3125;62.0;85.625;
1441975264572156;-0.752685546875;0.18798828125;-0.59771728515625;-0.202392578125;1.2635904892607484;16.92829208232044;8.45933041059996;1.07275390625;0.19189453125;-0.22509765625;-23.5625;61.3125;90.9375;
1441975264587157;-0.7415771484375;0.20111083984375;-0.6080322265625;-0.1998291015625;1.0837495023662507;17.20021719229202;8.145227501887323;1.07861328125;0.1513671875;-0.2099609375;-31.625;62.5;92.8125;
1441975264601158;-0.73016357421875;0.21429443359375;-0.61834716796875;-0.19683837890625;0.9179135814304696;17.59588278296074;7.7085801246999255;1.0693359375;0.1298828125;-0.1884765625;-34.875;64.0625;94.375;
1441975264623159;-0.7177734375;0.2286376953125;-0.62890625;-0.19244384765625;0.7780945652013705;0.23983041918179318;7.023820859110407;1.1259765625;0.125;-0.19189453125;-33.0625;65.875;98.1875;
1441975264646161;-0.7047119140625;0.24420166015625;-0.63897705078125;-0.1884765625;0.6986824810841639;1.1219911945119845;6.093112863179007;1.22998046875;0.1337890625;-0.18701171875;-33.0625;66.8125;105.25;
1441975264661161;-0.6907958984375;0.26129150390625;-0.6483154296875;-0.18524169921875;0.7062513782491315;2.1185802519188908;5.037298134446928;1.236328125;0.13623046875;-0.20849609375;-40.75;67.375;109.9375;
1441975264691163;-0.676025390625;0.27960205078125;-0.65692138671875;-0.1826171875;0.8015748320725217;2.9865915180637597;4.100933096335485;1.19287109375;0.14599609375;-0.21923828125;-51.0;67.625;114.625;
1441975264707164;-0.66064453125;0.29779052734375;-0.66534423828125;-0.17962646484375;0.9593045491964832;3.623819894999838;3.3960589991664314;1.16845703125;0.1220703125;-0.21728515625;-59.6875;67.875;118.125;
1441975264721165;-0.64483642578125;0.31500244140625;-0.67401123046875;-0.17529296875;1.158401732089929;4.070106544256105;2.890579074609732;1.16552734375;0.04833984375;-0.22900390625;-58.875;69.5625;119.125;
1441975264743166;-0.62860107421875;0.33087158203125;-0.68316650390625;-0.16937255859375;1.3846295185896258;4.389703998532361;2.522854987624823;1.18359375;0.0244140625;-0.224609375;-49.875;71.125;121.75;
1441975264767168;-0.61175537109375;0.3460693359375;-0.69256591796875;-0.162353515625;1.6317657436679116;4.622366950089028;2.2480554389776533;1.18310546875;0.04150390625;-0.20556640625;-38.4375;73.3125;125.8125;
1441975264805170;-0.5943603515625;0.36126708984375;-0.7015380859375;-0.15521240234375;1.8905239779375889;4.787556067823448;2.0394717020106654;1.146484375;0.064453125;-0.2392578125;-31.6875;75.9375;129.6875;
1441975264807170;-0.57672119140625;0.3758544921875;-0.710205078125;-0.1475830078125;2.1553117669373143;4.909204094977655;1.8774680220365785;1.07763671875;0.0927734375;-0.22705078125;-32.5625;76.5625;132.0;
1441975264827171;-0.55908203125;0.38983154296875;-0.71826171875;-0.14007568359375;2.4176339899810726;4.998993802501857;1.7478899146761904;1.03369140625;0.0810546875;-0.19482421875;-29.1875;76.0;132.4375;
1441975264841172;-0.5421142578125;0.4022216796875;-0.725830078125;-0.13250732421875;2.6682472083457247;5.0697075104084295;1.6436357273660973;0.978515625;0.02490234375;-0.201171875;-28.1875;74.5625;128.75;
1441975264863173;-0.5260009765625;0.4124755859375;-0.7332763671875;-0.12469482421875;2.9046470310161725;5.133091520744445;1.5567425469421978;0.9248046875;-0.01611328125;-0.15478515625;-22.3125;71.125;121.625;
1441975264885174;-0.5106201171875;0.4228515625;-0.73944091796875;-0.11724853515625;3.132235597616875;5.172845267674549;1.490435500477;0.85693359375;0.02197265625;-0.17822265625;-12.1875;68.4375;114.5;
1441975264912176;-0.4962158203125;0.4332275390625;-0.7442626953125;-0.11077880859375;3.3434253325064267;5.19449999221905;1.4375359662414904;0.794921875;0.0546875;-0.15771484375;-16.375;62.3125;110.6875;
1441975264923176;-0.48553466796875;0.44158935546875;-0.74688720703125;-0.107177734375;3.4927536932985355;5.200322156025463;1.3994546795161233;0.75048828125;-0.00244140625;-0.134765625;-21.8125;56.25;103.0625;
1441975264947178;-0.4759521484375;0.4483642578125;-0.74951171875;-0.103759765625;3.6251292261280548;5.20951083559331;1.365128472883089;0.70068359375;-0.01416015625;-0.11181640625;-21.125;52.0;93.375;
1441975264960179;-0.4674072265625;0.45465087890625;-0.75152587890625;-0.10028076171875;3.7467037917392023;5.212162518926234;1.3400493039277837;0.64208984375;0.005859375;-0.08447265625;-15.625;46.875;85.3125;
1441975264985180;-0.45947265625;0.461669921875;-0.7525634765625;-0.09716796875;3.862515243972008;5.202454230583056;1.3222277242891238;0.60595703125;0.03173828125;-0.09912109375;-13.5625;41.375;81.8125;
1441975265014182;-0.45166015625;0.4681396484375;-0.753662109375;-0.093994140625;3.975299872998456;5.195323335685389;1.3043534306039062;0.6015625;-0.01025390625;-0.08984375;-19.9375;36.0;78.25;
1441975265021182;-0.44427490234375;0.47174072265625;-0.75634765625;-0.0897216796875;4.082764871950683;5.209135639578011;1.284584439869442;0.576171875;-0.11572265625;-0.0615234375;-17.0;34.1875;70.4375;
1441975265043183;-0.4378662109375;0.47137451171875;-0.76092529296875;-0.08465576171875;4.17458616212483;5.249589933009264;1.2621019935812925;0.53125;-0.18701171875;-0.0625;3.4375;34.625;62.6875;
1441975265065185;-0.43310546875;0.46868896484375;-0.7657470703125;-0.0802001953125;4.240137079654679;5.298558499739059;1.2413956147166059;0.47900390625;-0.14990234375;-0.0029296875;25.625;31.75;54.4375;
1441975265081186;-0.42999267578125;0.4666748046875;-0.7689208984375;-0.0777587890625;4.2788802285451375;5.332403239418081;1.2252893771310975;0.46240234375;-0.0244140625;-0.03564453125;35.5625;29.6875;47.4375;
1441975265103187;-0.42950439453125;0.46319580078125;-0.7713623046875;-0.07720947265625;4.2765076826356605;5.365105721413143;1.212059204235753;0.451171875;-0.0400390625;-0.0390625;24.0625;23.9375;33.6875;
1441975265136189;-0.43243408203125;0.45648193359375;-0.773681640625;-0.0782470703125;4.222516657779877;5.407355417746352;1.2016437079250695;0.462890625;-0.13818359375;-0.01416015625;25.5625;15.3125;10.125;
1441975265140189;-0.43975830078125;0.44842529296875;-0.7738037109375;-0.0826416015625;4.100658135854901;5.438433140166715;1.1981000189302637;0.46142578125;-0.12451171875;0.0048828125;36.1875;4.9375;-13.8125;
1441975265163190;-0.45074462890625;0.44268798828125;-0.76983642578125;-0.09075927734375;3.925539233428725;5.429549533072086;1.209707427508945;0.49755859375;0.04248046875;-0.009765625;28.25;-9.4375;-34.6875;
1441975265194192;-0.46484375;0.43646240234375;-0.76373291015625;-0.10107421875;3.7041746687329518;5.403793344288705;1.2331344952218015;0.5771484375;-0.03173828125;0.05029296875;-1.6875;-29.8125;-58.0625;
1441975265201192;-0.48199462890625;0.4256591796875;-0.7576904296875;-0.11175537109375;3.4363657443898146;5.392753257982766;1.2635304466754425;0.66552734375;-0.24462890625;0.0869140625;-7.6875;-44.625;-87.6875;
1441975265223194;-0.5037841796875;0.411376953125;-0.7493896484375;-0.12445068359375;3.0977903681215158;5.370635982958273;1.3143228219398313;0.740234375;-0.1904296875;0.0283203125;13.8125;-56.5625;-117.875;
1441975265246195;-0.5289306640625;0.397705078125;-0.736328125;-0.14129638671875;2.696929918968986;5.294689342319385;1.3979055215161482;0.873046875;0.10546875;-0.05419921875;20.875;-74.375;-144.0;
1441975265262196;-0.55609130859375;0.381591796875;-0.7205810546875;-0.1610107421875;2.2438767537505093;5.184308673613799;1.5130783224159328;1.0615234375;0.1181640625;-0.0576171875;-2.875;-93.0625;-170.6875;
1441975265291198;-0.58544921875;0.3587646484375;-0.704345703125;-0.1802978515625;1.7442817442689438;5.049488140118177;1.6822905374289119;1.21923828125;-0.00439453125;-0.052734375;-5.375;-101.6875;-199.1875;
1441975265314199;-0.616943359375;0.33294677734375;-0.68438720703125;-0.2005615234375;1.206055561030671;4.735220200837127;2.035557219238971;1.35498046875;-0.02197265625;-0.10693359375;24.9375;-107.0;-225.25;
1441975265321199;-0.6492919921875;0.30914306640625;-0.65704345703125;-0.22625732421875;0.6749149672736022;3.6528264226509517;3.118550937060119;1.50732421875;0.32080078125;-0.1162109375;28.0;-123.25;-243.125;
1441975265343201;-0.679443359375;0.29144287109375;-0.6207275390625;-0.26104736328125;0.5359216403831404;0.21734496353698712;6.480413398514123;1.8037109375;0.66943359375;-0.1162109375;-12.125;-146.375;-263.25;
1441975265366202;-0.70697021484375;0.2708740234375;-0.5816650390625;-0.2974853515625;1.039391507177568;16.21049898605357;8.409487957134553;2.1357421875;0.4697265625;-0.17724609375;-87.875;-164.6875;-289.1875;
1441975265381203;-0.73583984375;0.23895263671875;-0.543212890625;-0.32623291015625;1.719968306261762;15.589244071445707;9.026796794952366;2.27783203125;0.166015625;-0.1845703125;-93.0;-161.5;-316.1875;
1441975265403204;-0.76470947265625;0.200439453125;-0.5054931640625;-0.34588623046875;2.426388393072969;15.37150764407525;9.30119445485287;2.35693359375;0.09521484375;-0.35107421875;-21.625;-155.5625;-343.75;
1441975265425205;-0.79132080078125;0.1568603515625;-0.46929931640625;-0.35919189453125;3.119914563564634;15.279787128652213;9.4939712211386;2.37451171875;0.1806640625;-0.49072265625;37.625;-152.4375;-344.9375;
1441975265440206;-0.81268310546875;0.12005615234375;-0.431396484375;-0.37298583984375;3.775223908255842;15.241120444089358;9.596984527334333;2.32177734375;0.66748046875;-0.509765625;78.8125;-138.8125;-339.6875;
1441975265471208;-0.82672119140625;0.0860595703125;-0.39666748046875;-0.3896484375;4.370555802969537;15.176609657887344;9.698560504646412;2.35595703125;0.90380859375;-0.2109375;46.5;-141.625;-301.8125;
1441975265487209;-0.83221435546875;0.061767578125;-0.36602783203125;-0.41192626953125;4.869418482554647;15.075962096739262;9.767030449717193;2.30712890625;1.32568359375;0.17919921875;12.5;-112.375;-283.75;
1441975265501210;-0.8355712890625;0.04473876953125;-0.33612060546875;-0.432373046875;5.31064335927575;15.001404805210395;9.78298458787228;2.18408203125;0.51611328125;0.0166015625;-53.4375;-92.5625;-237.0625;
1441975265523211;-0.83453369140625;0.031982421875;-0.3072509765625;-0.45635986328125;5.718423933447517;14.900755605335474;9.783600660098468;2.17236328125;0.16845703125;-0.65087890625;-64.625;-102.1875;-196.0;
1441975265546212;-0.83221435546875;0.01629638671875;-0.28167724609375;-0.4774169921875;6.103101103927985;14.807326527343063;9.802223918163913;2.08349609375;-0.13916015625;-0.22607421875;-100.3125;-98.6875;-178.5;
1441975265562213;-0.83416748046875;-0.0076904296875;-0.2584228515625;-0.48724365234375;6.493751660652137;14.780946420360776;9.849319157387512;1.9140625;-0.3046875;-0.15771484375;-83.875;-73.5;-178.875;
1441975265583214;-0.83868408203125;-0.0333251953125;-0.24102783203125;-0.48736572265625;6.8175539134906105;14.80645960879114;9.912767332748235;1.56689453125;-0.26171875;-0.10595703125;-4.6875;-47.375;-194.1875;
1441975265605215;-0.84283447265625;-0.05743408203125;-0.22637939453125;-0.48492431640625;7.098132981750414;14.843311558065931;9.977449806793866;1.27587890625;0.12744140625;-0.1962890625;48.375;-26.0;-188.75;
1441975265622216;-0.84698486328125;-0.07965087890625;-0.21588134765625;-0.47930908203125;7.318265688321804;14.893094364107956;10.04618271731666;1.0205078125;0.28662109375;-0.26513671875;57.4375;-14.0625;-166.0;
1441975265653218;-0.85235595703125;-0.10015869140625;-0.2091064453125;-0.46881103515625;7.477907072611269;14.967701968350363;10.11705553281697;0.77587890625;0.26171875;-0.2744140625;68.8125;3.0625;-138.0;
1441975265683220;-0.855712890625;-0.1131591796875;-0.20892333984375;-0.45977783203125;7.5316655469122304;15.021549980699795;10.175055996632288;0.64404296875;0.32958984375;-0.36767578125;91.5;17.9375;-110.4375;
1441975265686220;-0.856689453125;-0.12091064453125;-0.21173095703125;-0.4547119140625;7.535770182699962;15.0450560418356;10.219932878247434;0.6806640625;0.552734375;-0.2861328125;70.8125;17.375;-81.75;
