1441976024771637;0.04193115234375;-0.7742919921875;-0.63153076171875;1.8310546875E-4;9.301927387248325;14.084782031658102;0.18705493630226017;-0.3408203125;-0.2138671875;0.03125;-53.25;44.375;17.375;
1441976024787638;0.04913330078125;-0.76934814453125;-0.636962890625;-0.00238037109375;9.379876118868605;14.044696226289467;0.20852827163163887;-0.21337890625;-0.1455078125;0.08447265625;-40.375;26.6875;-10.9375;
1441976024810640;0.05889892578125;-0.76470947265625;-0.6417236328125;-0.008056640625;9.504308100506968;14.009866971500212;0.22954565240583982;-0.10400390625;0.01025390625;0.126953125;-32.8125;15.375;-35.5;
1441976024831641;0.07159423828125;-0.759033203125;-0.64691162109375;-0.0179443359375;9.6884146314446;13.970819093488792;0.24691323989236683;-0.15380859375;0.2744140625;0.068359375;-28.375;11.5;-56.4375;
1441976024848642;0.085205078125;-0.75189208984375;-0.653076171875;-0.0313720703125;9.911709629737487;13.922515846382803;0.2531761479293878;-0.31884765625;0.50634765625;0.0078125;-34.5625;4.875;-76.25;
1441976024870643;0.09710693359375;-0.74407958984375;-0.65948486328125;-0.045654296875;10.130341333344653;13.869325533060227;0.24654343032671844;-0.41650390625;0.6396484375;-0.0302734375;-44.8125;-7.0625;-89.8125;
1441976024891644;0.10858154296875;-0.736083984375;-0.665283203125;-0.062255859375;10.365679521646992;13.816456011963187;0.22726873038830436;-0.396484375;0.78515625;-0.1064453125;-52.0;-21.0625;-103.6875;
1441976024907645;0.11834716796875;-0.7310791015625;-0.66717529296875;-0.08038330078125;10.598771533789947;13.789234220741758;0.1961764523888177;-0.4306640625;0.744140625;-0.07666015625;-48.6875;-32.3125;-110.4375;
1441976024937647;0.12615966796875;-0.730712890625;-0.66357421875;-0.09906005859375;10.819193194525774;13.801243545367669;0.15962005736228477;-0.46240234375;0.69775390625;-0.0302734375;-18.4375;-41.6875;-108.5;
1441976024951648;0.134033203125;-0.73382568359375;-0.6551513671875;-0.1199951171875;11.05915999513444;13.84614561418506;0.12085879971346031;-0.54052734375;0.603515625;0.00927734375;23.75;-45.0625;-100.3125;
1441976024967649;0.14111328125;-0.73834228515625;-0.64447021484375;-0.14019775390625;11.288553120097543;13.905776678683495;0.08605952241982756;-0.61962890625;0.662109375;-0.00146484375;62.875;-45.375;-91.1875;
1441976024990650;0.14788818359375;-0.74163818359375;-0.63470458984375;-0.1591796875;11.507482929951452;13.956425999783491;0.054700167115226794;-0.61279296875;0.8505859375;-0.07568359375;75.5;-43.6875;-93.3125;
1441976025011651;0.15643310546875;-0.74200439453125;-0.62713623046875;-0.17816162109375;11.74235593072562;13.986415756917964;0.02802835451346121;-0.623046875;0.87744140625;-0.10546875;63.625;-44.25;-100.5625;
1441976025027652;0.166015625;-0.7401123046875;-0.62152099609375;-0.1962890625;11.9791430958613;13.999292840672386;0.005759072124609901;-0.66796875;0.82275390625;-0.1708984375;41.625;-42.625;-108.5625;
1441976025051653;0.1767578125;-0.7376708984375;-0.61553955078125;-0.21392822265625;12.222126446309236;14.013186946596337;17.991249020426103;-0.75927734375;0.6005859375;-0.13916015625;22.75;-38.875;-107.3125;
1441976025071654;0.18914794921875;-0.73480224609375;-0.60870361328125;-0.23211669921875;12.48428303155689;14.031148769691661;17.9839175794452;-0.81298828125;0.57861328125;-0.16943359375;20.25;-32.875;-111.0625;
1441976025087655;0.20306396484375;-0.73004150390625;-0.6024169921875;-0.2509765625;12.766541660883117;14.03984143031285;17.978668175834734;-0.85400390625;0.755859375;-0.25244140625;20.5;-30.0625;-123.5625;
1441976025110657;0.21868896484375;-0.7225341796875;-0.597412109375;-0.27069091796875;13.072473759809185;14.031115101645293;17.97199948929019;-0.8740234375;0.77099609375;-0.2509765625;10.375;-30.875;-134.4375;
1441976025131658;0.235107421875;-0.712646484375;-0.59405517578125;-0.28985595703125;13.382219268829866;14.003747316887239;17.96313803830559;-0.81396484375;0.81103515625;-0.25341796875;-5.875;-34.4375;-148.0;
1441976025153659;0.25054931640625;-0.70428466796875;-0.5887451171875;-0.3077392578125;13.675300248339699;13.993546829247286;17.960515708990243;-0.84130859375;0.525390625;-0.1630859375;-22.1875;-34.3125;-147.125;
1441976025170660;0.2647705078125;-0.69866943359375;-0.5799560546875;-0.3248291015625;13.954595916041056;14.016586507929663;17.96998286655995;-0.88720703125;0.439453125;-0.15185546875;-9.4375;-27.1875;-139.25;
1441976025191661;0.27777099609375;-0.6949462890625;-0.56817626953125;-0.34228515625;14.230845659152184;14.066478064688209;17.98648450352763;-0.9384765625;0.47705078125;-0.1201171875;15.75;-18.25;-134.75;
1441976025207662;0.29119873046875;-0.68902587890625;-0.55780029296875;-0.35968017578125;14.513152641887975;14.100884947059091;1.3783276795120643E-4;-0.93408203125;0.7021484375;-0.19189453125;36.3125;-16.4375;-137.6875;
1441976025230664;0.30621337890625;-0.6796875;-0.5509033203125;-0.3753662109375;14.794468691728918;14.10544082312424;0.01445233963812586;-0.8935546875;0.72607421875;-0.21875;22.8125;-21.75;-141.375;
1441976025251665;0.3223876953125;-0.668212890625;-0.54510498046875;-0.3905029296875;15.084248654437513;14.097028994900363;0.030086337698786086;-0.94921875;0.60009765625;-0.18505859375;-7.8125;-22.5;-139.5625;
1441976025267666;0.337646484375;-0.6568603515625;-0.53851318359375;-0.40576171875;15.371642208019685;14.091770884602237;0.04241813578082464;-0.9365234375;0.56298828125;-0.14111328125;-22.3125;-23.125;-144.3125;
1441976025290667;0.35211181640625;-0.64581298828125;-0.5311279296875;-0.420654296875;15.652952112052569;14.094084216887962;0.05721268620998036;-0.94873046875;0.52001953125;-0.1513671875;-16.5625;-24.6875;-142.8125;
1441976025311668;0.3662109375;-0.63470458984375;-0.52398681640625;-0.4342041015625;15.921360245952878;14.100628212895622;0.07941497680608606;-0.96240234375;0.51953125;-0.1796875;-11.625;-24.4375;-140.5625;
1441976025327669;0.3797607421875;-0.6236572265625;-0.516845703125;-0.44696044921875;16.180319138743567;14.112495754832615;0.10700035860700825;-0.9658203125;0.498046875;-0.150390625;-14.375;-20.75;-135.375;
1441976025349670;0.392333984375;-0.613037109375;-0.50927734375;-0.45928955078125;16.429917136283144;14.134279359762598;0.13998874361818803;-0.97607421875;0.42919921875;-0.07470703125;-14.0625;-18.375;-130.625;
1441976025371672;0.40362548828125;-0.6033935546875;-0.50164794921875;-0.47052001953125;16.65904485785391;14.172678349112722;0.18565585886955216;-0.92724609375;0.376953125;-0.04736328125;-9.5;-17.5;-125.875;
1441976025386673;0.4151611328125;-0.5936279296875;-0.4945068359375;-0.4803466796875;16.877551309773086;14.236322632049394;0.26281820339726003;-0.96044921875;0.4150390625;-0.0390625;-5.5;-14.5;-117.75;
1441976025400673;0.4281005859375;-0.58282470703125;-0.489013671875;-0.48785400390625;17.084852413868553;14.337095347440089;0.39534141000512146;-0.9306640625;0.47119140625;-0.05224609375;-11.75;-10.6875;-114.6875;
1441976025423675;0.4420166015625;-0.57122802734375;-0.48468017578125;-0.493408203125;17.280437191800722;14.511471773629005;0.615217415447437;-0.9599609375;0.46337890625;-0.0634765625;-29.4375;-5.8125;-111.8125;
1441976025446676;0.45611572265625;-0.55950927734375;-0.4808349609375;-0.49774169921875;17.460727642083373;14.832050814768857;0.9868321585898501;-0.955078125;0.44140625;-0.05517578125;-43.1875;-1.625;-108.1875;
1441976025460677;0.46795654296875;-0.5499267578125;-0.47808837890625;-0.50006103515625;17.587607377025208;15.32479107114158;1.5266940909658655;-0.92041015625;0.35400390625;-0.03759765625;-48.6875;1.25;-103.625;
1441976025483678;0.4776611328125;-0.54205322265625;-0.4747314453125;-0.50274658203125;17.68059641720976;16.095585767213606;2.3306753450653948;-0.90673828125;0.3046875;-0.0537109375;-44.5625;3.8125;-94.8125;
1441976025506679;0.4842529296875;-0.536376953125;-0.47125244140625;-0.5057373046875;17.73028962565092;17.02371057407729;3.2754542091564773;-0.90771484375;0.2509765625;-0.04736328125;-31.125;4.125;-84.375;
1441976025520680;0.4886474609375;-0.53271484375;-0.46881103515625;-0.5076904296875;17.741243513623587;17.789034363908215;4.051291806302363;-0.8701171875;0.28125;-0.03271484375;-14.5625;2.3125;-72.8125;
1441976025543681;0.4918212890625;-0.52972412109375;-0.46807861328125;-0.5084228515625;17.741527750050263;0.2672542664774769;4.542988401739601;-0.85595703125;0.3642578125;-0.033203125;-8.4375;2.0625;-61.4375;
1441976025566683;0.49468994140625;-0.5267333984375;-0.4691162109375;-0.50775146484375;17.74192050713319;0.5220636895081382;4.819495375706946;-0.81591796875;0.38671875;-0.02197265625;-11.9375;0.625;-49.625;
1441976025580684;0.4971923828125;-0.52392578125;-0.47186279296875;-0.50567626953125;17.747023563767485;0.5481553276213145;4.874637841407658;-0.798828125;0.38818359375;-0.01611328125;-20.0;-0.6875;-39.8125;
1441976025603685;0.49945068359375;-0.5211181640625;-0.4759521484375;-0.5025634765625;17.75738936042626;0.40442311905503286;4.766078070946939;-0.79150390625;0.39111328125;-0.01318359375;-27.875;-1.5;-29.8125;
1441976025626686;0.50091552734375;-0.5184326171875;-0.481201171875;-0.49884033203125;17.77478352319391;0.05926463243666235;4.458529030704375;-0.79638671875;0.36083984375;-0.00830078125;-34.125;-2.9375;-20.4375;
1441976025640687;0.50140380859375;-0.51666259765625;-0.4869384765625;-0.49456787109375;17.78600701362171;17.443421168503306;3.8778402063637136;-0.814453125;0.32958984375;-0.0107421875;-37.3125;-6.125;-10.0625;
1441976025666689;0.5001220703125;-0.51654052734375;-0.49285888671875;-0.4901123046875;17.777908570340163;16.53793801869521;2.998764419317182;-0.83935546875;0.30322265625;-0.01513671875;-34.75;-6.75;0.875;
1441976025686690;0.49749755859375;-0.51763916015625;-0.49896240234375;-0.48553466796875;17.73959018663946;15.628996421805116;2.1097591589289535;-0.8671875;0.294921875;-0.0341796875;-26.3125;-8.0625;12.8125;
1441976025700690;0.49334716796875;-0.519775390625;-0.5052490234375;-0.48089599609375;17.67050598454937;14.901947305643072;1.3960001332049337;-0.888671875;0.28271484375;-0.046875;-20.1875;-9.75;23.375;
1441976025723692;0.4874267578125;-0.52313232421875;-0.5115966796875;-0.4765625;17.57477920744677;14.379487804368914;0.8775631897448593;-0.9130859375;0.26171875;-0.05078125;-14.0625;-12.0;34.0;
1441976025746693;0.4793701171875;-0.5283203125;-0.51739501953125;-0.47271728515625;17.453993504658897;14.037785843545391;0.5255327015082928;-0.92529296875;0.244140625;-0.04443359375;-4.625;-14.5625;44.625;
1441976025760694;0.46942138671875;-0.534912109375;-0.52301025390625;-0.4691162109375;17.312029436730057;13.808549017974494;0.2752684442165276;-0.93359375;0.24365234375;-0.0546875;8.875;-16.75;54.625;
1441976025783695;0.4581298828125;-0.54278564453125;-0.52789306640625;-0.4656982421875;17.15682065152123;13.675024112592041;0.1105037759492605;-0.95703125;0.244140625;-0.044921875;19.375;-18.4375;65.0625;
1441976025806697;0.44580078125;-0.552001953125;-0.5318603515625;-0.46234130859375;16.99172541668216;13.61144877191348;0.005952335363549952;-0.97802734375;0.2216796875;-0.04296875;29.5;-17.75;73.8125;
1441976025828698;0.43280029296875;-0.5623779296875;-0.5350341796875;-0.45849609375;16.81694417059875;13.599291065939292;17.946517435240082;-0.98876953125;0.2001953125;-0.052734375;39.1875;-15.9375;81.1875;
1441976025843699;0.41943359375;-0.5733642578125;-0.537841796875;-0.45404052734375;16.63472507798832;13.612218768099416;17.909846249718125;-1.00732421875;0.2197265625;-0.05859375;45.625;-11.6875;87.25;
1441976025866700;0.40643310546875;-0.58416748046875;-0.5408935546875;-0.44842529296875;16.447157457679264;13.636886593296984;17.890292135978868;-1.013671875;0.2392578125;-0.05517578125;47.875;-7.9375;91.9375;
1441976025888701;0.39434814453125;-0.59442138671875;-0.54425048828125;-0.44158935546875;16.258734764436564;13.66893517378722;17.886510623938875;-1.00732421875;0.25537109375;-0.041015625;42.9375;-2.6875;95.375;
1441976025903702;0.3834228515625;-0.6041259765625;-0.5477294921875;-0.43365478515625;16.072506367618754;13.707738325124646;17.89775337609532;-0.994140625;0.263671875;-0.025390625;35.625;3.5;97.0;
1441976025926703;0.3740234375;-0.61285400390625;-0.55157470703125;-0.42474365234375;15.892307320021247;13.745960589512702;17.919444453218457;-0.98193359375;0.26806640625;-0.01220703125;28.0625;10.25;97.625;
1441976025948705;0.36614990234375;-0.6204833984375;-0.55584716796875;-0.41485595703125;15.718224446079303;13.781082895431263;17.949673814587914;-0.98095703125;0.26806640625;-0.0068359375;18.25;16.375;96.375;
1441976025963706;0.3597412109375;-0.626953125;-0.56048583984375;-0.40423583984375;15.551941597789774;13.811238547572184;17.98579228303598;-0.974609375;0.28466796875;-0.0146484375;7.625;20.8125;93.8125;
1441976025986707;0.35516357421875;-0.632080078125;-0.565673828125;-0.39300537109375;15.396675307343916;13.83509798277828;0.028443032747506827;-0.962890625;0.29296875;-0.0244140625;-2.875;24.375;90.3125;
1441976026008708;0.3521728515625;-0.635986328125;-0.5709228515625;-0.38165283203125;15.255777288896184;13.854522054115982;0.07562450153782267;-0.9462890625;0.294921875;-0.0400390625;-14.875;27.6875;85.4375;
1441976026023709;0.350341796875;-0.6387939453125;-0.5762939453125;-0.37030029296875;15.126599345527902;13.867838316270308;0.12391642340272505;-0.9365234375;0.279296875;-0.05419921875;-23.4375;29.875;80.25;
1441976026046710;0.34967041015625;-0.64068603515625;-0.5814208984375;-0.35955810546875;15.014286636046712;13.877492515300359;0.17242852758102767;-0.92529296875;0.27783203125;-0.0595703125;-29.9375;31.0625;74.75;
1441976026068712;0.34979248046875;-0.641845703125;-0.586181640625;-0.3494873046875;14.916609733351645;13.884383935548371;0.21985599601200642;-0.9267578125;0.27197265625;-0.0693359375;-33.875;31.0;68.3125;
1441976026083712;0.3505859375;-0.64251708984375;-0.59039306640625;-0.34027099609375;14.833727590388335;13.89079669168549;0.26629581420145443;-0.91650390625;0.27392578125;-0.076171875;-35.1875;30.1875;61.3125;
1441976026105714;0.3521728515625;-0.64251708984375;-0.5941162109375;-0.33197021484375;14.767504773135355;13.895967424957027;0.3118595485135286;-0.8974609375;0.2822265625;-0.08544921875;-35.125;28.9375;53.6875;
1441976026128715;0.35455322265625;-0.641845703125;-0.59735107421875;-0.32489013671875;14.720324338732684;13.899482995037257;0.35519288177525654;-0.89111328125;0.29345703125;-0.09326171875;-35.375;27.5625;45.125;
1441976026143716;0.35748291015625;-0.6407470703125;-0.599853515625;-0.31915283203125;14.691263098331962;13.903648810535046;0.39598797612296954;-0.8857421875;0.28857421875;-0.08935546875;-34.6875;25.625;36.5625;
1441976026165717;0.36090087890625;-0.63916015625;-0.60174560546875;-0.31494140625;14.681273222444654;13.906894885204057;0.4324373511103102;-0.8798828125;0.28759765625;-0.09326171875;-32.0625;23.1875;27.75;
1441976026188718;0.36480712890625;-0.6373291015625;-0.60284423828125;-0.31207275390625;14.68833681518921;13.912812740844094;0.4673541799439502;-0.87939453125;0.2841796875;-0.08984375;-29.0625;20.4375;18.8125;
1441976026203719;0.369140625;-0.6351318359375;-0.603271484375;-0.310546875;14.712245152641112;13.919884136782704;0.49973498208766937;-0.875;0.2861328125;-0.08935546875;-25.3125;17.9375;10.1875;
1441976026225720;0.37384033203125;-0.6324462890625;-0.603271484375;-0.3104248046875;14.752977338813716;13.925475560706039;0.5276452695276905;-0.87109375;0.28955078125;-0.08935546875;-21.75;15.1875;1.4375;
1441976026248722;0.37890625;-0.62945556640625;-0.60260009765625;-0.31170654296875;14.810388398578137;13.932627188520438;0.552835922316185;-0.87060546875;0.2861328125;-0.0791015625;-19.0625;12.375;-7.125;
1441976026263723;0.38409423828125;-0.62628173828125;-0.60125732421875;-0.31427001953125;14.881431741874128;13.94145816382975;0.5747139132924549;-0.8740234375;0.28369140625;-0.0673828125;-15.1875;9.75;-15.0625;
1441976026285724;0.38934326171875;-0.62286376953125;-0.5994873046875;-0.31805419921875;14.96486545274451;13.94971442171;0.5919415408844863;-0.87890625;0.28466796875;-0.06591796875;-10.75;6.75;-22.6875;
1441976026308725;0.3944091796875;-0.619384765625;-0.5970458984375;-0.32318115234375;15.060018831131554;13.958771067514649;0.6035753963813887;-0.88427734375;0.29296875;-0.06396484375;-6.8125;3.4375;-29.25;
1441976026323726;0.39892578125;-0.61602783203125;-0.59393310546875;-0.3297119140625;15.164322759713812;13.967460656857765;0.6066950705609255;-0.888671875;0.28076171875;-0.064453125;-1.8125;-0.9375;-34.8125;
1441976026345727;0.40283203125;-0.61285400390625;-0.59027099609375;-0.33740234375;15.274870165486627;13.975125620602538;0.6014293952103368;-0.90087890625;0.28564453125;-0.0556640625;5.5;-5.5;-39.6875;
1441976026368729;0.406494140625;-0.60968017578125;-0.5860595703125;-0.345947265625;15.392385265596774;13.983235711282699;0.5918224350052905;-0.90576171875;0.30517578125;-0.046875;12.625;-9.6875;-44.625;
1441976026383730;0.4100341796875;-0.6063232421875;-0.58154296875;-0.35516357421875;15.516373604844583;13.989471395695672;0.5777384811059112;-0.91455078125;0.33349609375;-0.0458984375;16.875;-12.25;-50.375;
1441976026405731;0.41375732421875;-0.60211181640625;-0.57733154296875;-0.36474609375;15.647816779887862;13.985966708421943;0.5568706122487901;-0.9248046875;0.35107421875;-0.04052734375;19.3125;-14.4375;-55.625;
1441976026428732;0.4173583984375;-0.59747314453125;-0.5732421875;-0.3746337890625;15.782747832850768;13.974301699354324;0.5282871688901267;-0.93212890625;0.36279296875;-0.0244140625;16.875;-16.75;-61.125;
1441976026443733;0.42120361328125;-0.59185791015625;-0.56964111328125;-0.384521484375;15.922516584661974;13.948942423836144;0.49107222128573164;-0.93408203125;0.3798828125;-0.021484375;15.5625;-19.5625;-64.875;
1441976026465734;0.42498779296875;-0.58575439453125;-0.56658935546875;-0.39410400390625;16.060002035674035;13.910022522054712;0.4440802932639476;-0.94091796875;0.353515625;-0.01708984375;10.25;-22.3125;-67.0;
1441976026488736;0.42889404296875;-0.5791015625;-0.56427001953125;-0.40301513671875;16.192909219199564;13.856316330500317;0.3883604177776126;-0.94921875;0.3603515625;-0.0185546875;6.0;-23.9375;-67.5625;
1441976026503736;0.43310546875;-0.5716552734375;-0.56256103515625;-0.411376953125;16.324681577855497;13.785330977332535;0.321914663388232;-0.95703125;0.3544921875;-0.01416015625;-0.125;-25.0625;-66.5;
1441976026527738;0.437255859375;-0.56427001953125;-0.56103515625;-0.41912841796875;16.449634784427545;13.705564998661155;0.24862249227310776;-0.970703125;0.30029296875;0.00244140625;-7.125;-25.0;-64.1875;
1441976026548739;0.44061279296875;-0.55792236328125;-0.55914306640625;-0.42657470703125;16.562673943271438;13.624789837386732;0.16884908850485167;-0.96923828125;0.26708984375;0.01611328125;-8.4375;-23.5625;-60.25;
1441976026563740;0.4432373046875;-0.55291748046875;-0.556640625;-0.43365478515625;16.66352632413162;13.552941864997637;0.09131921748156464;-0.97900390625;0.2421875;0.0341796875;-3.125;-20.6875;-54.9375;
1441976026585741;0.44403076171875;-0.54998779296875;-0.5538330078125;-0.4400634765625;16.73853620108547;13.490332995350736;0.012850103183625165;-0.97509765625;0.22216796875;0.0341796875;4.3125;-17.5;-49.125;
1441976026608742;0.444580078125;-0.54754638671875;-0.5511474609375;-0.44586181640625;16.804316604460297;13.429502227202134;17.936182922614233;-0.9599609375;0.28564453125;0.0380859375;14.125;-15.375;-42.4375;
1441976026623743;0.4442138671875;-0.54632568359375;-0.54864501953125;-0.45086669921875;16.85169136771411;13.377737074201184;17.865260478846206;-0.953125;0.2470703125;0.03662109375;14.625;-13.625;-36.25;
1441976026645745;0.44329833984375;-0.5457763671875;-0.5467529296875;-0.45465087890625;16.881143209252485;13.333655285908028;17.8037883832546;-0.94580078125;0.27978515625;0.0224609375;18.0;-12.6875;-30.1875;
1441976026668746;0.44293212890625;-0.54547119140625;-0.545654296875;-0.4566650390625;16.898038233401564;13.311714838487992;17.772717209620577;-0.93505859375;0.3310546875;0.00830078125;16.125;-11.375;-25.5625;
1441976026682747;0.444091796875;-0.5439453125;-0.5458984375;-0.45709228515625;16.914062477558826;13.289299090319576;17.757508435008262;-0.9296875;0.36669921875;-0.0283203125;7.6875;-8.1875;-21.6875;
1441976026705748;0.44561767578125;-0.5419921875;-0.54705810546875;-0.45660400390625;16.924075465132976;13.262978906654325;17.745943889837264;-0.9345703125;0.34716796875;-0.029296875;-8.3125;-5.3125;-19.8125;
1441976026728749;0.44708251953125;-0.5404052734375;-0.548095703125;-0.455810546875;16.930891687238486;13.248737781528458;17.74575243759988;-0.9326171875;0.32568359375;-0.0166015625;-15.5625;-3.75;-15.5625;
1441976026743750;0.4476318359375;-0.53961181640625;-0.54901123046875;-0.455078125;16.928908198705855;13.238316755965883;17.74393639783584;-0.9384765625;0.28564453125;-0.0205078125;-14.75;-2.625;-10.9375;
1441976026765751;0.447265625;-0.5399169921875;-0.5496826171875;-0.454345703125;16.917053869545427;13.240105254394823;17.747832733459337;-0.9443359375;0.2666015625;-0.01220703125;-8.875;-2.3125;-5.375;
1441976026788753;0.44610595703125;-0.5411376953125;-0.55029296875;-0.4532470703125;16.89385824978272;13.25462581063343;17.760422665276078;-0.93505859375;0.25341796875;-0.01513671875;-2.875;-2.0625;0.8125;
1441976026803754;0.44439697265625;-0.54315185546875;-0.5509033203125;-0.4517822265625;16.861127204179127;13.280753955891035;17.78180822071316;-0.92578125;0.24658203125;-0.0205078125;1.5625;-1.0;6.9375;
1441976026834755;0.44232177734375;-0.54571533203125;-0.55169677734375;-0.44970703125;16.81869472142544;13.315838646477292;17.811795686789964;-0.921875;0.2451171875;-0.01953125;4.625;0.5;12.625;
1441976026848756;0.4400634765625;-0.548583984375;-0.5528564453125;-0.44696044921875;16.767457869717397;13.35468266703246;17.84712038123971;-0.921875;0.24560546875;-0.01611328125;5.0;2.3125;17.875;
1441976026863757;0.43780517578125;-0.55169677734375;-0.553955078125;-0.4439697265625;16.713683945129688;13.397900445536896;17.886639082085875;-0.92333984375;0.25390625;-0.01416015625;4.125;4.25;22.1875;
1441976026885758;0.43524169921875;-0.55548095703125;-0.55499267578125;-0.4404296875;16.65129410462786;13.45085454795074;17.934479842233568;-0.931640625;0.2314453125;-0.0048828125;4.5625;6.5;26.125;
1441976026908760;0.43267822265625;-0.5596923828125;-0.55596923828125;-0.43646240234375;16.58398523589499;13.51012645625528;17.98845498027994;-0.9404296875;0.2509765625;-0.01171875;6.0;9.125;29.5;
1441976026923760;0.43035888671875;-0.56378173828125;-0.55718994140625;-0.43194580078125;16.513576459607066;13.567237027738967;0.04360930898122559;-0.95068359375;0.2705078125;-0.01904296875;6.4375;11.375;31.6875;
1441976026945762;0.428466796875;-0.56744384765625;-0.55889892578125;-0.42681884765625;16.441148093575567;13.617647934422804;0.09770646480026068;-0.95703125;0.28173828125;-0.0302734375;3.375;12.75;33.125;
1441976026968763;0.4273681640625;-0.57025146484375;-0.56103515625;-0.42132568359375;16.37313040947031;13.659128297481193;0.14994402503092416;-0.95458984375;0.29248046875;-0.02734375;-2.25;14.25;33.8125;
1441976026983764;0.42657470703125;-0.57269287109375;-0.5633544921875;-0.4156494140625;16.306423400366008;13.69496125834221;0.19955736456154685;-0.95947265625;0.26708984375;-0.01611328125;-8.9375;15.625;34.1875;
1441976027005765;0.4259033203125;-0.57525634765625;-0.56536865234375;-0.4100341796875;16.24121844182686;13.732931895026825;0.25027060936745077;-0.95703125;0.2529296875;-0.009765625;-11.25;17.0625;34.75;
1441976027028766;0.42523193359375;-0.577880859375;-0.56732177734375;-0.404296875;16.17470541861782;13.769819005850195;0.29992407131568477;-0.94970703125;0.24169921875;-0.0068359375;-10.5;18.4375;35.5;
1441976027042767;0.42486572265625;-0.58026123046875;-0.56927490234375;-0.39849853515625;16.110490864111455;13.804321676816873;0.348988933127424;-0.953125;0.25390625;-0.01171875;-10.0;19.375;35.1875;
1441976027065769;0.4248046875;-0.5821533203125;-0.5714111328125;-0.39263916015625;16.04916952955755;13.832602536897786;0.3948761773161707;-0.95654296875;0.2763671875;-0.02099609375;-11.8125;19.625;33.875;
1441976027088770;0.425048828125;-0.58349609375;-0.57379150390625;-0.38690185546875;15.992267901432625;13.853073147931482;0.4358216504940717;-0.947265625;0.26123046875;-0.02490234375;-14.9375;19.125;33.625;
1441976027103771;0.42559814453125;-0.58441162109375;-0.5760498046875;-0.381591796875;15.942872933738126;13.869708834937578;0.47349032189474594;-0.935546875;0.248046875;-0.03076171875;-17.8125;18.0625;32.5;
1441976027125772;0.42608642578125;-0.58526611328125;-0.5780029296875;-0.37664794921875;15.897154122662627;13.885440964996167;0.5083347341645279;-0.93310546875;0.23828125;-0.02490234375;-18.6875;17.5625;30.0625;
1441976027148773;0.42657470703125;-0.58612060546875;-0.57965087890625;-0.37225341796875;15.856510620319966;13.90057026837322;0.5400974563303617;-0.9375;0.24560546875;-0.0244140625;-17.0625;16.875;28.25;
1441976027163774;0.427001953125;-0.5869140625;-0.5809326171875;-0.368408203125;15.821159709154895;13.915070421568117;0.568577677661038;-0.93115234375;0.23779296875;-0.02978515625;-14.1875;15.625;26.625;
1441976027185775;0.42767333984375;-0.58740234375;-0.58203125;-0.36517333984375;15.794016600117297;13.927447725893046;0.5942088625325687;-0.93603515625;0.26416015625;-0.03564453125;-11.9375;13.9375;22.9375;
1441976027208777;0.4283447265625;-0.58734130859375;-0.5831298828125;-0.3626708984375;15.775389240012963;13.932030561130308;0.611505862909592;-0.9453125;0.26953125;-0.04541015625;-11.5625;12.125;19.1875;
1441976027223778;0.42926025390625;-0.58697509765625;-0.58404541015625;-0.3607177734375;15.764596850777531;13.93535984915419;0.6269935571626706;-0.93408203125;0.2626953125;-0.03076171875;-11.3125;9.8125;15.5625;
1441976027245779;0.43017578125;-0.58648681640625;-0.58465576171875;-0.3594970703125;15.761074892437495;13.937573107387419;0.6386659907102215;-0.9296875;0.26318359375;-0.0322265625;-10.5625;8.0;11.8125;
1441976027268780;0.43133544921875;-0.5858154296875;-0.58477783203125;-0.35894775390625;15.766675477471253;13.942178876101009;0.6505681738939475;-0.9130859375;0.26611328125;-0.0283203125;-8.4375;6.6875;7.75;
1441976027283781;0.43255615234375;-0.5850830078125;-0.5845947265625;-0.35906982421875;15.779087621716783;13.946992429860401;0.6601440339819129;-0.9130859375;0.27001953125;-0.02734375;-6.0625;5.9375;3.125;
1441976027305782;0.43414306640625;-0.583984375;-0.58416748046875;-0.359619140625;15.79963325984129;13.952509099705061;0.6705783125908574;-0.90771484375;0.291015625;-0.02783203125;-3.8125;4.6875;-1.9375;
1441976027328784;0.43603515625;-0.58221435546875;-0.5838623046875;-0.360595703125;15.828473942004551;13.952308660198623;0.6772282542738886;-0.90087890625;0.314453125;-0.044921875;-3.8125;2.875;-7.6875;
1441976027342784;0.43853759765625;-0.57965087890625;-0.583740234375;-0.36199951171875;15.867795239195296;13.947024345520195;0.6821153894104733;-0.89599609375;0.32080078125;-0.0458984375;-6.25;0.9375;-12.9375;
1441976027365786;0.4415283203125;-0.576416015625;-0.58355712890625;-0.36376953125;15.916585050078714;13.93934896323009;0.686713495413883;-0.89453125;0.3212890625;-0.0458984375;-9.625;-0.875;-18.125;
1441976027387787;0.44482421875;-0.57257080078125;-0.58349609375;-0.365966796875;15.97334657395595;13.925850831552399;0.6872119630727364;-0.8955078125;0.31005859375;-0.0556640625;-12.375;-2.625;-22.5625;
1441976027402788;0.44830322265625;-0.568359375;-0.583251953125;-0.36871337890625;16.03796888549667;13.909795758862813;0.6845705485143742;-0.90185546875;0.30419921875;-0.05322265625;-14.0;-4.25;-26.5625;
1441976027433790;0.451904296875;-0.56378173828125;-0.5830078125;-0.3717041015625;16.10716637841989;13.88978131622476;0.6786507797450478;-0.9150390625;0.29248046875;-0.052734375;-14.0625;-5.875;-29.875;
1441976027448790;0.4554443359375;-0.55914306640625;-0.58258056640625;-0.37493896484375;16.178820346259627;13.868489836775336;0.6701967149515249;-0.9130859375;0.28564453125;-0.0478515625;-14.5;-7.1875;-32.5;
1441976027462791;0.45892333984375;-0.5545654296875;-0.58203125;-0.37835693359375;16.251547633784803;13.846361509330775;0.6596343930445842;-0.92431640625;0.2822265625;-0.04443359375;-13.6875;-7.8125;-33.8125;
1441976027486793;0.462158203125;-0.550048828125;-0.58154296875;-0.38177490234375;16.322289548641088;13.820213283892544;0.6443431204358983;-0.93359375;0.2734375;-0.0439453125;-12.125;-8.3125;-34.5625;
1441976027507794;0.4652099609375;-0.545654296875;-0.58111572265625;-0.38507080078125;16.390101096795302;13.791635171865444;0.6262696157599542;-0.93359375;0.27685546875;-0.03466796875;-11.5;-8.75;-34.375;
1441976027526795;0.46807861328125;-0.5413818359375;-0.58074951171875;-0.3880615234375;16.453641209671833;13.76176771064088;0.6071175562390914;-0.931640625;0.267578125;-0.03271484375;-11.6875;-8.9375;-33.25;
1441976027545796;0.47076416015625;-0.53741455078125;-0.5804443359375;-0.3907470703125;16.511870870764284;13.732655252449323;0.588374782899571;-0.93603515625;0.25830078125;-0.0302734375;-11.625;-8.6875;-31.125;
1441976027568797;0.47320556640625;-0.5338134765625;-0.5802001953125;-0.3931884765625;16.564546292685282;13.70411048894924;0.5693177996454125;-0.9404296875;0.244140625;-0.02978515625;-11.25;-8.0625;-28.5;
1441976027583798;0.47528076171875;-0.53070068359375;-0.57989501953125;-0.395263671875;16.609941727344115;13.67925980590519;0.5524186112286659;-0.9501953125;0.2392578125;-0.02099609375;-10.25;-7.25;-25.5625;
1441976027605799;0.47698974609375;-0.5281982421875;-0.57958984375;-0.39697265625;16.64715144962199;13.659292931304195;0.5386624528014485;-0.953125;0.22998046875;-0.0283203125;-8.625;-6.3125;-22.1875;
1441976027628801;0.4783935546875;-0.5262451171875;-0.57928466796875;-0.39825439453125;16.67648434290097;13.645428412103561;0.5298100366276628;-0.96240234375;0.2294921875;-0.0244140625;-6.6875;-5.3125;-18.5;
1441976027643802;0.47943115234375;-0.52496337890625;-0.5791015625;-0.3990478515625;16.69598228791812;13.637716652035689;0.5258905115568978;-0.95849609375;0.22705078125;-0.02978515625;-5.6875;-4.125;-14.5;
1441976027665803;0.4801025390625;-0.52423095703125;-0.57891845703125;-0.39947509765625;16.707725460331396;13.635697670198214;0.526118112743048;-0.95166015625;0.2236328125;-0.0283203125;-4.3125;-2.75;-10.25;
1441976027687804;0.48046875;-0.52423095703125;-0.57867431640625;-0.3994140625;16.710431910352465;13.64475420357433;0.5356893210732067;-0.95654296875;0.22509765625;-0.02783203125;-2.375;-1.125;-6.0625;
1441976027702805;0.48052978515625;-0.5247802734375;-0.57855224609375;-0.39886474609375;16.70433302968855;13.659615675730379;0.5503872336525796;-0.94677734375;0.228515625;-0.0302734375;-0.625;0.5625;-2.375;
1441976027725806;0.48040771484375;-0.525634765625;-0.57855224609375;-0.3978271484375;16.691486802531678;13.678448543402608;0.5694556539900355;-0.95263671875;0.24609375;-0.033203125;0.1875;1.8125;0.9375;
1441976027747808;0.48028564453125;-0.52667236328125;-0.57861328125;-0.39642333984375;16.674692202957907;13.701520522452567;0.5934897516887017;-0.94775390625;0.2490234375;-0.04638671875;-0.3125;2.6875;3.9375;
1441976027762808;0.48004150390625;-0.52789306640625;-0.578857421875;-0.39483642578125;16.654023529524796;13.723461555092054;0.6165568760144622;-0.94287109375;0.24609375;-0.04638671875;-0.875;3.625;6.25;
1441976027785810;0.479736328125;-0.5294189453125;-0.57891845703125;-0.39306640625;16.630581216757353;13.751806648382257;0.6449985496002436;-0.93505859375;0.24365234375;-0.04443359375;-0.6875;4.1875;8.4375;
1441976027807811;0.47930908203125;-0.53118896484375;-0.57891845703125;-0.3912353515625;16.604708843863875;13.781850401837927;0.6740845355581887;-0.9365234375;0.2392578125;-0.05908203125;0.125;5.0;10.3125;
1441976027823812;0.47869873046875;-0.53302001953125;-0.5789794921875;-0.389404296875;16.57711818870967;13.808371649730036;0.699132179197784;-0.93505859375;0.2431640625;-0.052734375;1.125;5.9375;11.3125;
1441976027845813;0.47808837890625;-0.53497314453125;-0.57891845703125;-0.38751220703125;16.548705028383715;13.837447867632344;0.7262183360838049;-0.92333984375;0.24365234375;-0.0380859375;1.8125;6.8125;12.25;
1441976027867814;0.47747802734375;-0.53717041015625;-0.5787353515625;-0.385498046875;16.518245722040184;13.870597452146622;0.75667287313392;-0.9306640625;0.24267578125;-0.03857421875;2.8125;7.5625;13.125;
1441976027883815;0.47711181640625;-0.53924560546875;-0.57855224609375;-0.38336181640625;16.488708913202778;13.90491572982371;0.7897021104979838;-0.93359375;0.25244140625;-0.046875;3.4375;8.375;13.5;
1441976027905817;0.47686767578125;-0.54107666015625;-0.57855224609375;-0.38104248046875;16.459069968550015;13.935604470690123;0.8212370980988537;-0.9375;0.25;-0.056640625;1.9375;9.0625;13.6875;
1441976027928818;0.47674560546875;-0.54278564453125;-0.5784912109375;-0.3787841796875;16.431287929623895;13.965822324345181;0.8526540085543193;-0.9248046875;0.240234375;-0.0478515625;0.125;9.6875;13.9375;
1441976027942819;0.47662353515625;-0.544677734375;-0.578369140625;-0.37646484375;16.401948219923035;13.997846676708624;0.8853378588786631;-0.9169921875;0.232421875;-0.04345703125;-0.3125;10.3125;14.125;
1441976027965820;0.47662353515625;-0.5465087890625;-0.57806396484375;-0.37420654296875;16.374449992107156;14.031665189778847;0.9196520450011585;-0.916015625;0.24169921875;-0.04931640625;0.4375;11.1875;13.8125;
1441976027987821;0.4766845703125;-0.54827880859375;-0.5777587890625;-0.3719482421875;16.347406171172874;14.06449672323956;0.9533321775493574;-0.923828125;0.25146484375;-0.0498046875;0.8125;11.5625;13.0;
1441976028003822;0.4769287109375;-0.54974365234375;-0.57757568359375;-0.36981201171875;16.323506841789232;14.093414206502052;0.9844854852058456;-0.931640625;0.26123046875;-0.06201171875;0.25;11.375;11.8125;
1441976028025823;0.47723388671875;-0.5509033203125;-0.57745361328125;-0.36785888671875;16.30287986596685;14.11792291909518;1.0119367660556258;-0.939453125;0.267578125;-0.06787109375;-1.125;10.5;10.5625;
1441976028048825;0.4776611328125;-0.5517578125;-0.577392578125;-0.3662109375;16.28682574568285;14.138373276468787;1.0358237620605228;-0.93896484375;0.26123046875;-0.072265625;-2.125;9.3125;9.5625;
1441976028062826;0.47796630859375;-0.5523681640625;-0.5772705078125;-0.364990234375;16.27517794877151;14.153978457165161;1.0538082764650514;-0.947265625;0.25048828125;-0.07275390625;-2.625;8.0;8.5;
1441976028085827;0.4781494140625;-0.5531005859375;-0.576904296875;-0.36431884765625;16.267158256251967;14.169684727369665;1.0688334808685402;-0.95263671875;0.2392578125;-0.06591796875;-1.75;6.5;7.625;
1441976028107828;0.47796630859375;-0.553955078125;-0.57635498046875;-0.3641357421875;16.261004951626834;14.18250008561937;1.0776028452325508;-0.955078125;0.232421875;-0.06298828125;1.0625;5.3125;6.8125;
1441976028123829;0.47760009765625;-0.55487060546875;-0.57568359375;-0.36419677734375;16.255873109539248;14.194279424717815;1.0835707150749447;-0.947265625;0.23046875;-0.056640625;4.3125;4.4375;6.0625;
1441976028145830;0.4771728515625;-0.555908203125;-0.57501220703125;-0.36431884765625;16.25016063721771;14.206018656896033;1.0887676256229588;-0.935546875;0.240234375;-0.04248046875;6.5625;3.875;5.1875;
1441976028167832;0.4769287109375;-0.55657958984375;-0.574462890625;-0.36444091796875;16.247257525211605;14.215248361147086;1.093407864915653;-0.9326171875;0.2548828125;-0.052734375;7.0625;3.625;4.1875;
1441976028184833;0.47698974609375;-0.55682373046875;-0.57421875;-0.36431884765625;16.24567442789827;14.221500514924463;1.0987890146345074;-0.93115234375;0.265625;-0.04833984375;5.0625;3.375;2.625;
1441976028205834;0.47735595703125;-0.556640625;-0.57415771484375;-0.36419677734375;16.24768603076848;14.22532355812345;1.1043773846411307;-0.9208984375;0.27685546875;-0.04736328125;1.625;3.25;0.5625;
1441976028228835;0.47802734375;-0.5560302734375;-0.57421875;-0.3642578125;16.254918029142168;14.226739997074153;1.109465349772878;-0.921875;0.2822265625;-0.0517578125;-1.25;2.875;-1.6875;
1441976028244836;0.4788818359375;-0.55517578125;-0.57415771484375;-0.3643798828125;16.265336116045855;14.229651307506813;1.1167769307053752;-0.927734375;0.28466796875;-0.05126953125;-2.875;2.3125;-3.875;
1441976028265837;0.4798583984375;-0.55413818359375;-0.57421875;-0.36474609375;16.279087235033092;14.229815512781668;1.1218095701249957;-0.9296875;0.28466796875;-0.0576171875;-3.8125;1.625;-6.0;
1441976028287838;0.48089599609375;-0.5528564453125;-0.57415771484375;-0.3653564453125;16.296937668338224;14.229373975874115;1.126069956772026;-0.92724609375;0.28857421875;-0.056640625;-4.25;0.6875;-8.0;
1441976028304839;0.48199462890625;-0.55126953125;-0.57427978515625;-0.3660888671875;16.317495803279982;14.22421795955234;1.1268357283167687;-0.9248046875;0.2919921875;-0.06103515625;-4.4375;-0.3125;-10.0625;
1441976028325841;0.483154296875;-0.549560546875;-0.57440185546875;-0.3670654296875;16.341047745570098;14.217586194163214;1.1259086881289857;-0.9287109375;0.28955078125;-0.0615234375;-5.3125;-1.6875;-11.375;
1441976028348842;0.48419189453125;-0.54766845703125;-0.5745849609375;-0.3681640625;16.36602416951243;14.206552432894027;1.120601174003671;-0.9267578125;0.28076171875;-0.064453125;-5.8125;-3.0625;-12.25;
1441976028364843;0.48516845703125;-0.5457763671875;-0.57476806640625;-0.36944580078125;16.39216137244326;14.193645007899633;1.1126864204551876;-0.93115234375;0.2783203125;-0.06103515625;-6.0625;-4.125;-12.5625;
1441976028385844;0.48583984375;-0.5440673828125;-0.5748291015625;-0.3709716796875;16.417991933804736;14.178822244100866;1.100388346108088;-0.93896484375;0.26416015625;-0.06591796875;-5.25;-5.4375;-12.3125;
1441976028407845;0.486083984375;-0.5426025390625;-0.57489013671875;-0.3726806640625;16.44171754415565;14.159542958029716;1.081168302082271;-0.9443359375;0.2548828125;-0.06787109375;-3.1875;-6.6875;-11.5625;
1441976028424846;0.486083984375;-0.54150390625;-0.5748291015625;-0.37445068359375;16.46274989216806;14.14135965960794;1.060743920919941;-0.9453125;0.2587890625;-0.0556640625;-0.6875;-7.5625;-10.4375;
1441976028445847;0.4857177734375;-0.54058837890625;-0.57476806640625;-0.37628173828125;16.48132276075069;14.11946257638376;1.0348734387528782;-0.9560546875;0.25927734375;-0.064453125;1.5625;-8.125;-9.375;
1441976028467849;0.4852294921875;-0.539794921875;-0.57476806640625;-0.37799072265625;16.497313162088396;14.096407471428368;1.0076832431588116;-0.95703125;0.2578125;-0.0576171875;2.875;-8.6875;-8.0;
1441976028484850;0.48468017578125;-0.5391845703125;-0.57476806640625;-0.37945556640625;16.509867564843937;14.075256580364133;0.9824236594180406;-0.95849609375;0.255859375;-0.052734375;3.25;-8.625;-6.5625;
1441976028513851;0.48406982421875;-0.53875732421875;-0.57489013671875;-0.3807373046875;16.519088980580584;14.054004926608336;0.9572276512638261;-0.95166015625;0.25244140625;-0.05517578125;3.3125;-8.0625;-5.0625;
1441976028528852;0.4835205078125;-0.53857421875;-0.574951171875;-0.38165283203125;16.52438976289743;14.038805597437921;0.9384613525845683;-0.94873046875;0.24853515625;-0.044921875;3.125;-6.9375;-3.75;
1441976028544853;0.4830322265625;-0.53851318359375;-0.57513427734375;-0.382080078125;16.52505924592164;14.026745099214668;0.9244539369734208;-0.94140625;0.25439453125;-0.05029296875;2.6875;-5.625;-2.1875;
1441976028573855;0.48260498046875;-0.53851318359375;-0.575439453125;-0.38214111328125;16.52243207524059;14.016572185351814;0.9137655932750133;-0.93603515625;0.25634765625;-0.05615234375;1.5625;-4.375;-0.8125;
1441976028587856;0.48248291015625;-0.53851318359375;-0.57574462890625;-0.38189697265625;16.51896841729893;14.012135332231828;0.9105721828371518;-0.94189453125;0.2626953125;-0.0595703125;-0.125;-3.1875;0.375;
1441976028604857;0.4822998046875;-0.53857421875;-0.5760498046875;-0.38153076171875;16.51389772639996;14.008353958711496;0.9080588713998946;-0.93798828125;0.25244140625;-0.0673828125;-1.8125;-2.3125;1.375;
1441976028625858;0.4820556640625;-0.5389404296875;-0.57611083984375;-0.38116455078125;16.507442889494957;14.010367852232012;0.9095818947369276;-0.935546875;0.24609375;-0.06689453125;-1.75;-1.5625;2.5;
1441976028647859;0.48162841796875;-0.53961181640625;-0.5760498046875;-0.380859375;16.499061676933735;14.014463996934841;0.9112395390301651;-0.94287109375;0.2421875;-0.0703125;0.125;-1.0625;3.5;
1441976028664860;0.48101806640625;-0.54046630859375;-0.575927734375;-0.380615234375;16.489310449353535;14.01857469534929;0.9115035958975649;-0.9404296875;0.24462890625;-0.0712890625;1.9375;-0.6875;4.1875;
1441976028685861;0.48040771484375;-0.5413818359375;-0.57574462890625;-0.38037109375;16.479380960827203;14.024114194148693;0.9128436379935809;-0.93994140625;0.25048828125;-0.06982421875;3.25;-0.5625;4.5625;
1441976028707862;0.4798583984375;-0.54241943359375;-0.575439453125;-0.38006591796875;16.468924176851377;14.033599012293447;0.9177760176159867;-0.939453125;0.25439453125;-0.07080078125;3.8125;-0.3125;4.625;
1441976028724863;0.47930908203125;-0.54339599609375;-0.57513427734375;-0.37982177734375;16.4593048549663;14.042055076354417;0.9216785952202651;-0.935546875;0.25146484375;-0.07470703125;4.3125;0.0625;4.75;
1441976028745865;0.4788818359375;-0.54443359375;-0.57476806640625;-0.37945556640625;16.449154696188582;14.054018719523366;0.9294398721855731;-0.93798828125;0.2509765625;-0.07080078125;4.375;0.5625;4.625;
1441976028768866;0.4786376953125;-0.54522705078125;-0.57452392578125;-0.3790283203125;16.44053651172235;14.064398216318779;0.9373771283160524;-0.935546875;0.2548828125;-0.07373046875;3.75;1.3125;4.625;
1441976028784867;0.478515625;-0.54595947265625;-0.57427978515625;-0.37841796875;16.43146271677118;14.076610866550407;0.9482266977738665;-0.93310546875;0.244140625;-0.0615234375;2.625;2.3125;4.5625;
1441976028806868;0.4786376953125;-0.546630859375;-0.5740966796875;-0.3775634765625;16.42183885123516;14.091493930979514;0.9635078251214167;-0.93408203125;0.24853515625;-0.0595703125;1.375;3.1875;4.4375;
1441976028827869;0.4788818359375;-0.54718017578125;-0.573974609375;-0.376708984375;16.41333028132814;14.105669860669181;0.9789512547064024;-0.9345703125;0.24951171875;-0.06396484375;0.125;4.25;4.3125;
1441976028845870;0.47930908203125;-0.547607421875;-0.57379150390625;-0.37579345703125;16.406122076886202;14.121934903795793;0.997376403361625;-0.94189453125;0.2490234375;-0.0615234375;-1.0625;4.875;4.0625;
1441976028865872;0.47967529296875;-0.54803466796875;-0.5736083984375;-0.37493896484375;16.399047364912526;14.137016824097177;1.0142664824293968;-0.9423828125;0.2412109375;-0.06103515625;-1.75;5.4375;3.875;
1441976028887873;0.4801025390625;-0.548583984375;-0.57330322265625;-0.37408447265625;16.391792121166883;14.155400969721494;1.033918891714223;-0.93798828125;0.24169921875;-0.04833984375;-1.0625;5.9375;3.8125;
1441976028904874;0.48040771484375;-0.54913330078125;-0.57305908203125;-0.373291015625;16.384210484433787;14.171044853813717;1.0504788162875134;-0.939453125;0.24365234375;-0.056640625;-0.3125;6.3125;3.6875;
1441976028925875;0.4808349609375;-0.549560546875;-0.5728759765625;-0.3724365234375;16.377259032110185;14.186382938266748;1.0677904216957828;-0.9384765625;0.248046875;-0.04833984375;-0.125;6.4375;3.5;
1441976028947876;0.4813232421875;-0.54986572265625;-0.57269287109375;-0.37152099609375;16.37082975630885;14.201595773668833;1.0857056219821364;-0.9365234375;0.25244140625;-0.048828125;-1.0;6.5;3.0625;
1441976028964877;0.48193359375;-0.54998779296875;-0.5726318359375;-0.37066650390625;16.36621393229769;14.214593812857338;1.1024402890256468;-0.9375;0.25341796875;-0.05419921875;-2.0;6.375;2.75;
1441976028985878;0.482421875;-0.55010986328125;-0.5726318359375;-0.36993408203125;16.36181413958143;14.224673778500025;1.1157164831524853;-0.93701171875;0.251953125;-0.0556640625;-2.75;6.0625;2.1875;
1441976029007880;0.48291015625;-0.5501708984375;-0.572509765625;-0.36932373046875;16.359078680711917;14.235347226798195;1.1290697432806056;-0.93701171875;0.2529296875;-0.048828125;-2.5625;5.625;1.75;
1441976029024881;0.48333740234375;-0.55010986328125;-0.572509765625;-0.36883544921875;16.357478516393243;14.242043745686752;1.1386104239579269;-0.93603515625;0.2548828125;-0.0517578125;-1.875;4.9375;1.1875;
1441976029045882;0.4837646484375;-0.5499267578125;-0.57244873046875;-0.36859130859375;16.358758693065433;14.247492496585993;1.1463624906762009;-0.93896484375;0.26318359375;-0.052734375;-1.875;4.0625;0.3125;
1441976029067883;0.484130859375;-0.54962158203125;-0.57244873046875;-0.36859130859375;16.362334908725558;14.24930141844191;1.1500975865372185;-0.93408203125;0.25537109375;-0.05712890625;-2.0;2.9375;-0.375;
1441976029084884;0.484375;-0.54937744140625;-0.5723876953125;-0.3687744140625;16.366600790152273;14.250201100754376;1.1516774056158687;-0.93408203125;0.2529296875;-0.05322265625;-1.4375;1.6875;-1.1875;
1441976029105885;0.48455810546875;-0.549072265625;-0.572265625;-0.36920166015625;16.37309880585063;14.249641738686995;1.1509047555212009;-0.9267578125;0.25146484375;-0.0576171875;-0.5;0.6875;-1.75;
1441976029128887;0.48468017578125;-0.54876708984375;-0.5721435546875;-0.36968994140625;16.379814927337396;14.248080012258239;1.1487774279629344;-0.927734375;0.25537109375;-0.060546875;0.375;-0.25;-2.5;
1441976029150888;0.48486328125;-0.54827880859375;-0.572021484375;-0.37030029296875;16.38895148070268;14.2451807264085;1.1456649617571948;-0.93115234375;0.2607421875;-0.06103515625;0.625;-1.0;-3.375;
1441976029166889;0.485107421875;-0.54766845703125;-0.5718994140625;-0.37109375;16.40059755015356;14.241098761199902;1.1413452047484334;-0.92578125;0.25830078125;-0.056640625;0.3125;-1.5;-4.0625;
1441976029187890;0.4853515625;-0.5469970703125;-0.57177734375;-0.37188720703125;16.412634410454437;14.23646522573374;1.136662378675423;-0.9345703125;0.25537109375;-0.06005859375;0.1875;-2.0;-5.0;
1441976029210891;0.4857177734375;-0.5462646484375;-0.57177734375;-0.3726806640625;16.425266671792958;14.230938280322047;1.1319295727783587;-0.93798828125;0.2587890625;-0.06201171875;0.0;-2.375;-5.6875;
1441976029226892;0.48626708984375;-0.54522705078125;-0.5716552734375;-0.37347412109375;16.4410071315457;14.226824941714696;1.129715776467252;-0.94140625;0.267578125;-0.0615234375;-0.875;-2.5;-6.6875;
1441976029247893;0.48687744140625;-0.544189453125;-0.571533203125;-0.37445068359375;16.458463217705855;14.222439198341604;1.1268273103850723;-0.943359375;0.25439453125;-0.0673828125;-1.9375;-2.6875;-7.5;
1441976029270895;0.4874267578125;-0.5433349609375;-0.5712890625;-0.37542724609375;16.47480012045101;14.220582887272304;1.1254118107213582;-0.93896484375;0.244140625;-0.06591796875;-1.8125;-2.9375;-7.75;
1441976029292896;0.48797607421875;-0.54254150390625;-0.5709228515625;-0.37640380859375;16.491079762795476;14.221054759883769;1.1258089757325758;-0.93017578125;0.24365234375;-0.0673828125;-0.4375;-2.8125;-7.8125;
1441976029307897;0.488525390625;-0.54180908203125;-0.570556640625;-0.3773193359375;16.50648196129126;14.222385623306195;1.1270651590770568;-0.92822265625;0.2431640625;-0.06787109375;-0.125;-2.3125;-7.9375;
1441976029330898;0.4891357421875;-0.541015625;-0.57012939453125;-0.37823486328125;16.522718089959373;14.224941927707016;1.1297351222473075;-0.931640625;0.248046875;-0.06494140625;0.0;-1.8125;-8.25;
1441976029346899;0.48974609375;-0.54046630859375;-0.56964111328125;-0.3790283203125;16.53656969413138;14.231285315952746;1.135652169983087;-0.92529296875;0.23681640625;-0.06103515625;-0.125;-1.25;-8.0;
1441976029376901;0.490478515625;-0.5399169921875;-0.56903076171875;-0.37969970703125;16.55031663190533;14.241938768832314;1.1462559064987732;-0.927734375;0.24072265625;-0.064453125;0.6875;-0.625;-7.75;
1441976029390902;0.4913330078125;-0.53924560546875;-0.568603515625;-0.38018798828125;16.563419412770607;14.251458617624575;1.1574839842661175;-0.93505859375;0.24365234375;-0.07470703125;0.1875;-0.1875;-7.875;
1441976029406902;0.49237060546875;-0.53839111328125;-0.56829833984375;-0.3804931640625;16.576706814099776;14.261094851885836;1.1707738593994181;-0.94189453125;0.24755859375;-0.07568359375;-1.75;0.125;-8.0625;
1441976029428904;0.49346923828125;-0.53753662109375;-0.56793212890625;-0.38092041015625;16.59135946476476;14.272089316532597;1.1850441294950038;-0.93994140625;0.240234375;-0.080078125;-3.25;0.3125;-8.0;
1441976029450905;0.49444580078125;-0.536865234375;-0.56732177734375;-0.38140869140625;16.60539679380265;14.28692279447372;1.2014208163762004;-0.9384765625;0.22265625;-0.07568359375;-3.125;0.5625;-7.75;
1441976029466906;0.495361328125;-0.5364990234375;-0.56646728515625;-0.38201904296875;16.618720104019946;14.307233570953958;1.2211409394125763;-0.93505859375;0.2197265625;-0.07373046875;-1.4375;1.125;-7.5;
1441976029487907;0.49609375;-0.5364990234375;-0.5654296875;-0.3826904296875;16.629740037466924;14.331212117214942;1.2422329490894901;-0.92919921875;0.2080078125;-0.076171875;0.9375;1.75;-7.0;
1441976029510908;0.49658203125;-0.5367431640625;-0.56414794921875;-0.38348388671875;16.63965192608863;14.357610710444128;1.2633119029781539;-0.91552734375;0.2080078125;-0.07373046875;3.5625;2.5;-6.5;
1441976029526909;0.4971923828125;-0.53729248046875;-0.562744140625;-0.384033203125;16.646223441978936;14.39203941525986;1.292233638494295;-0.91455078125;0.2099609375;-0.0693359375;5.6875;3.1875;-6.0625;
1441976029547911;0.49786376953125;-0.53765869140625;-0.56146240234375;-0.384521484375;16.653328307728582;14.424367505355924;1.320297355819342;-0.921875;0.2216796875;-0.08740234375;6.0625;3.75;-5.9375;
1441976029570912;0.49871826171875;-0.53790283203125;-0.5601806640625;-0.38494873046875;16.661306558016918;14.459039171771328;1.3517590859310888;-0.92529296875;0.220703125;-0.08837890625;4.8125;4.125;-6.1875;
1441976029586913;0.4996337890625;-0.53802490234375;-0.55889892578125;-0.385498046875;16.67115887899549;14.493467540379982;1.3831417259534824;-0.9296875;0.21337890625;-0.09521484375;3.6875;4.0;-6.4375;
1441976029607914;0.50048828125;-0.53814697265625;-0.5574951171875;-0.38623046875;16.682371121895436;14.528779356496852;1.4143548778495547;-0.93359375;0.203125;-0.08935546875;3.6875;4.0625;-7.0;
1441976029630915;0.50128173828125;-0.53839111328125;-0.55584716796875;-0.38720703125;16.69484091075156;14.567955248208328;1.4474896702403262;-0.9306640625;0.19873046875;-0.09130859375;4.625;4.0625;-7.3125;
1441976029646916;0.50189208984375;-0.5389404296875;-0.55401611328125;-0.38836669921875;16.70621644612345;14.609778749580583;1.480792282342358;-0.9306640625;0.1884765625;-0.087890625;6.5625;4.0;-7.625;
1441976029667917;0.50250244140625;-0.53955078125;-0.552001953125;-0.3895263671875;16.717277921280193;14.656095121854804;1.5179101795244068;-0.92041015625;0.1884765625;-0.08984375;9.0625;4.3125;-7.9375;
1441976029690919;0.50323486328125;-0.54010009765625;-0.550048828125;-0.39056396484375;16.727761064391473;14.703998402210052;1.5576701065363459;-0.92626953125;0.20263671875;-0.09228515625;10.125;4.75;-8.6875;
1441976029706920;0.5042724609375;-0.54022216796875;-0.54840087890625;-0.3914794921875;16.740385533340792;14.749353713919481;1.598209121921768;-0.92431640625;0.20654296875;-0.09814453125;8.875;5.0625;-9.6875;
1441976029728921;0.505615234375;-0.53985595703125;-0.54693603515625;-0.39227294921875;16.75579426363657;14.794320663546538;1.641542582523397;-0.919921875;0.2041015625;-0.09423828125;5.875;4.9375;-10.6875;
1441976029750922;0.507080078125;-0.53936767578125;-0.5455322265625;-0.3929443359375;16.771006320713266;14.840877430819821;1.6877056759871554;-0.9150390625;0.18994140625;-0.08984375;2.6875;4.9375;-11.4375;
1441976029766923;0.50872802734375;-0.538818359375;-0.5440673828125;-0.39349365234375;16.785854673248263;14.892957413865517;1.740280302927978;-0.90673828125;0.1796875;-0.0908203125;1.375;5.375;-11.75;
1441976029787924;0.51043701171875;-0.53826904296875;-0.54278564453125;-0.3939208984375;16.799203778943646;14.944006819601459;1.7928558476911505;-0.9130859375;0.17333984375;-0.09765625;0.8125;6.0625;-11.6875;
1441976029810926;0.51226806640625;-0.53759765625;-0.54156494140625;-0.3941650390625;16.81171528645082;14.996891392767564;1.848691214165053;-0.916015625;0.173828125;-0.09130859375;-0.375;6.625;-11.5;
1441976029826926;0.51422119140625;-0.536865234375;-0.5404052734375;-0.3941650390625;16.822376790142506;15.052034874879755;1.9082100223092622;-0.92431640625;0.16748046875;-0.10009765625;-1.8125;6.9375;-10.9375;
1441976029847928;0.51629638671875;-0.53607177734375;-0.539306640625;-0.39404296875;16.83216916225737;15.10906902116164;1.9706712816361962;-0.93603515625;0.1689453125;-0.1083984375;-3.25;7.0625;-10.875;
1441976029870929;0.518310546875;-0.53515625;-0.5384521484375;-0.393798828125;16.841085816135315;15.160400306139817;2.0286676512991546;-0.94384765625;0.16064453125;-0.125;-4.625;6.875;-10.5625;
1441976029886930;0.520263671875;-0.53424072265625;-0.53765869140625;-0.39361572265625;16.84997926071755;15.210050281389726;2.0847948698219056;-0.94970703125;0.16357421875;-0.12548828125;-5.375;6.0625;-10.1875;
1441976029907931;0.522216796875;-0.5330810546875;-0.53692626953125;-0.39349365234375;16.86081388820105;15.258251095063562;2.1401962575281126;-0.9541015625;0.16552734375;-0.13623046875;-5.75;4.9375;-10.375;
1441976029930932;0.52410888671875;-0.531982421875;-0.5361328125;-0.3935546875;16.872309349325167;15.30775082680798;2.1958201722952553;-0.9375;0.14697265625;-0.13525390625;-6.6875;4.125;-10.3125;
1441976029946933;0.52587890625;-0.53094482421875;-0.53509521484375;-0.39404296875;16.886469300129846;15.36157416015637;2.253288604458037;-0.93310546875;0.1357421875;-0.1357421875;-5.375;3.625;-10.25;
1441976029967935;0.52734375;-0.5302734375;-0.53369140625;-0.39483642578125;16.89968196449094;15.420079773803373;2.3115829664041776;-0.919921875;0.11181640625;-0.12744140625;-3.0;3.4375;-10.0625;
1441976029990936;0.52862548828125;-0.5301513671875;-0.53179931640625;-0.39599609375;16.911088176378726;15.48889373325795;2.375581932197557;-0.88427734375;0.09716796875;-0.1142578125;0.75;4.3125;-9.6875;
1441976030006937;0.5294189453125;-0.53070068359375;-0.52923583984375;-0.39752197265625;16.919293601439044;15.56614400779002;2.4417335004699554;-0.8681640625;0.0830078125;-0.10498046875;5.6875;5.9375;-8.8125;
1441976030027938;0.5299072265625;-0.531982421875;-0.52630615234375;-0.39910888671875;16.92140894768882;15.647489804070625;2.507752442946615;-0.86083984375;0.0732421875;-0.09130859375;11.9375;7.8125;-7.9375;
1441976030050939;0.5301513671875;-0.533935546875;-0.52301025390625;-0.40045166015625;16.915261021347376;15.732120088987932;2.5741086195520757;-0.837890625;0.080078125;-0.083984375;16.4375;10.375;-6.625;
1441976030066940;0.5306396484375;-0.53619384765625;-0.51959228515625;-0.4012451171875;16.901221007889237;15.821607585614212;2.6463916157895504;-0.82275390625;0.09912109375;-0.0830078125;19.8125;13.0625;-5.5;
1441976030089942;0.53167724609375;-0.5379638671875;-0.51666259765625;-0.4012451171875;16.88377725090776;15.906219538124157;2.7204993842801763;-0.82568359375;0.12255859375;-0.09423828125;18.625;15.75;-5.5625;
1441976030110943;0.53363037109375;-0.5391845703125;-0.513916015625;-0.400634765625;16.864241835814724;15.999778057654643;2.810051631516273;-0.83447265625;0.12255859375;-0.0927734375;12.0625;18.1875;-5.6875;
1441976030126944;0.53619384765625;-0.5400390625;-0.51116943359375;-0.3995361328125;16.841678603425336;16.099683490003112;2.9101991368953266;-0.841796875;0.10546875;-0.10302734375;6.0625;20.75;-6.4375;
1441976030150945;0.5391845703125;-0.5408935546875;-0.50811767578125;-0.398193359375;16.814540447305944;16.20818839196504;3.0200184650517983;-0.828125;0.08251953125;-0.091796875;2.1875;24.0;-7.0;
1441976030170946;0.542236328125;-0.542236328125;-0.5047607421875;-0.396484375;16.778282029595896;16.314918912783927;3.1270297985721953;-0.80126953125;0.0595703125;-0.087890625;0.75;27.5625;-6.875;
1441976030186947;0.545654296875;-0.543701171875;-0.501220703125;-0.394287109375;16.73436956205216;16.42108524823142;3.2350868392582997;-0.79150390625;0.07568359375;-0.09228515625;2.125;31.0625;-7.1875;
1441976030209948;0.54986572265625;-0.54461669921875;-0.49822998046875;-0.3909912109375;16.683915246157618;16.516635172388806;3.341188742430514;-0.80712890625;0.1240234375;-0.11474609375;1.25;33.8125;-9.4375;
1441976030230950;0.55523681640625;-0.54400634765625;-0.49615478515625;-0.3868408203125;16.636316130874555;16.606118046730312;3.4541181105821117;-0.83447265625;0.171875;-0.150390625;-6.625;34.875;-13.0625;
1441976030246950;0.5615234375;-0.5421142578125;-0.494873046875;-0.38214111328125;16.592309890676873;16.690071271099455;3.5717600010683204;-0.84814453125;0.17529296875;-0.169921875;-19.25;34.375;-16.6875;
1441976030269952;0.568115234375;-0.5394287109375;-0.49371337890625;-0.3775634765625;16.552698320796456;16.774991033584122;3.693611267699481;-0.8603515625;0.15380859375;-0.18408203125;-29.4375;33.0625;-19.25;
1441976030290953;0.574462890625;-0.53692626953125;-0.49212646484375;-0.37359619140625;16.51379111434074;16.861988536050735;3.813327246042133;-0.84228515625;0.1083984375;-0.1845703125;-32.875;31.6875;-20.0;
1441976030306954;0.580078125;-0.53509521484375;-0.4901123046875;-0.3702392578125;16.473803124828052;16.942605711738338;3.9196291181172307;-0.8544921875;0.0654296875;-0.18896484375;-28.8125;31.25;-18.5625;
1441976030329955;0.585205078125;-0.5338134765625;-0.48779296875;-0.36700439453125;16.42991435100152;17.01491947397309;4.013460803693248;-0.861328125;0.056640625;-0.1923828125;-22.3125;30.5625;-16.25;
1441976030350956;0.5897216796875;-0.533203125;-0.4853515625;-0.36395263671875;16.383528098251666;17.075286198530257;4.0907639619587846;-0.87353515625;0.048828125;-0.22021484375;-18.75;30.0;-13.3125;
1441976030366957;0.59326171875;-0.53326416015625;-0.4825439453125;-0.36181640625;16.3405699116304;17.130720092968595;4.154642190077586;-0.88232421875;0.048828125;-0.23486328125;-14.625;29.3125;-10.5;
1441976030389959;0.59515380859375;-0.53497314453125;-0.47900390625;-0.36090087890625;16.298190259780377;17.177109064709157;4.194215103209511;-0.91650390625;0.0234375;-0.24658203125;-6.75;27.125;-6.6875;
1441976030410960;0.5955810546875;-0.537841796875;-0.47540283203125;-0.36065673828125;16.258575241138224;17.207124434324747;4.207638234390519;-0.97119140625;0.04345703125;-0.28759765625;7.625;23.4375;-2.125;
1441976030426961;0.59539794921875;-0.5411376953125;-0.47222900390625;-0.3602294921875;16.219564354102513;17.221096284589276;4.203750811799763;-0.9921875;0.08349609375;-0.30908203125;17.0625;19.3125;1.625;
1441976030449962;0.59521484375;-0.54376220703125;-0.4700927734375;-0.3592529296875;16.18604750448543;17.221452141258585;4.192802065174426;-1.0029296875;0.126953125;-0.3408203125;18.375;16.375;3.9375;
1441976030470963;0.5950927734375;-0.54608154296875;-0.468505859375;-0.35809326171875;16.155715392240456;17.216178313106752;4.179361998912527;-0.994140625;0.13037109375;-0.33740234375;11.5625;13.75;4.6875;
1441976030486964;0.59503173828125;-0.5479736328125;-0.46728515625;-0.35693359375;16.129629167278132;17.209770739537284;4.167254715918655;-0.9951171875;0.13037109375;-0.34912109375;8.0625;11.25;5.3125;
1441976030509966;0.594970703125;-0.5496826171875;-0.46624755859375;-0.355712890625;16.10512346704478;17.201946592654085;4.154977734530207;-0.97216796875;0.09765625;-0.35302734375;5.0625;9.0625;6.625;
1441976030530967;0.59490966796875;-0.551513671875;-0.4649658203125;-0.3546142578125;16.079485749627963;17.197561254672014;4.144721913953537;-0.93310546875;0.06884765625;-0.36083984375;3.0625;7.25;8.1875;
1441976030546968;0.59478759765625;-0.553466796875;-0.4637451171875;-0.35345458984375;16.053203588999743;17.191038020436103;4.1321330863618355;-0.87890625;0.05224609375;-0.36376953125;3.8125;6.6875;9.0;
1441976030569969;0.59478759765625;-0.55535888671875;-0.4622802734375;-0.352294921875;16.025533149142635;17.188858172870678;4.123746680988003;-0.83349609375;0.0576171875;-0.35595703125;4.625;6.8125;9.3125;
1441976030590970;0.59466552734375;-0.5574951171875;-0.46063232421875;-0.35137939453125;15.997714141315218;17.188592450504974;4.1149272455007155;-0.78271484375;0.0478515625;-0.35498046875;4.5625;6.8125;8.4375;
1441976030606971;0.5943603515625;-0.5596923828125;-0.45880126953125;-0.3507080078125;15.971011469118409;17.19056680825859;4.106405414491014;-0.77001953125;0.06982421875;-0.3583984375;6.875;6.625;7.375;
1441976030629972;0.5941162109375;-0.5615234375;-0.4571533203125;-0.350341796875;15.949541955185467;17.195190362517963;4.101371995898167;-0.77880859375;0.10498046875;-0.3818359375;10.0;4.875;4.875;
1441976030650974;0.59356689453125;-0.56353759765625;-0.454833984375;-0.35113525390625;15.933222435850471;17.212696584285737;4.1024034117765975;-0.78369140625;0.08935546875;-0.37158203125;8.9375;4.25;3.9375;
1441976030666975;0.59222412109375;-0.5665283203125;-0.45135498046875;-0.35302734375;15.915965605094474;17.240106266701073;4.101598931279403;-0.794921875;0.06787109375;-0.35791015625;15.6875;3.0625;2.6875;
1441976030689976;0.5906982421875;-0.5697021484375;-0.44775390625;-0.35504150390625;15.898542803365258;17.26725537087455;4.098742742445614;-0.81201171875;0.1083984375;-0.38037109375;28.4375;2.875;0.9375;
1441976030710977;0.589599609375;-0.5721435546875;-0.4447021484375;-0.35675048828125;15.884555281778876;17.292790973719725;4.1001278010442395;-0.83056640625;0.13720703125;-0.3818359375;30.375;3.3125;-0.875;
1441976030732978;0.589111328125;-0.573486328125;-0.442626953125;-0.35809326171875;15.877313417661297;17.314919863171273;4.106961197161174;-0.86474609375;0.169921875;-0.39111328125;26.0;2.6875;-4.25;
1441976030749979;0.58843994140625;-0.5740966796875;-0.44097900390625;-0.360107421875;15.882207924095344;17.339741776214716;4.117347964635393;-0.92724609375;0.16796875;-0.39599609375;17.75;1.125;-7.0;
1441976030770980;0.5875244140625;-0.57464599609375;-0.43963623046875;-0.36236572265625;15.891784751770992;17.361786346547103;4.124570348927415;-0.99267578125;0.14501953125;-0.392578125;16.3125;-2.875;-8.125;
1441976030792982;0.586669921875;-0.57501220703125;-0.438720703125;-0.36431884765625;15.902248234799224;17.378425104652965;4.129234179187711;-1.0419921875;0.17138671875;-0.423828125;17.0625;-6.0625;-9.1875;
1441976030809983;0.5863037109375;-0.57452392578125;-0.4383544921875;-0.3662109375;15.918342710005655;17.396913490149302;4.141421012628777;-1.0791015625;0.17431640625;-0.4296875;14.1875;-6.6875;-8.5;
1441976030830984;0.58538818359375;-0.57415771484375;-0.43804931640625;-0.36859130859375;15.939666100221068;17.414045770684222;4.149044659803934;-1.09130859375;0.09765625;-0.40869140625;7.5;-7.1875;-6.8125;
1441976030852985;0.583740234375;-0.57440185546875;-0.43731689453125;-0.3717041015625;15.963258693354968;17.433067111240796;4.151265063771414;-1.07568359375;0.05322265625;-0.37548828125;9.25;-8.1875;-3.0;
1441976030869986;0.5810546875;-0.57623291015625;-0.43572998046875;-0.37493896484375;15.977929487501516;17.44589680916771;4.136853469748698;-1.0419921875;-0.01123046875;-0.328125;15.1875;-8.375;2.625;
1441976030890987;0.57733154296875;-0.579833984375;-0.43341064453125;-0.3778076171875;15.979757882968977;17.446014381682673;4.100542262024321;-0.97802734375;0.0078125;-0.3291015625;24.8125;-6.4375;7.5625;
1441976030920989;0.57318115234375;-0.58465576171875;-0.43048095703125;-0.37994384765625;15.967402668701533;17.437127765399403;4.050823144018822;-0.9267578125;0.0107421875;-0.31982421875;32.9375;-2.25;15.75;
1441976030929990;0.56829833984375;-0.59112548828125;-0.42669677734375;-0.381591796875;15.939835149515938;17.420096251456606;3.984961991849081;-0.865234375;4.8828125E-4;-0.29833984375;36.3125;3.8125;22.25;
1441976030950991;0.5631103515625;-0.59759521484375;-0.42327880859375;-0.38299560546875;15.913115879489453;17.395953727139663;3.912843550230327;-0.830078125;0.0380859375;-0.31884765625;43.875;7.8125;26.625;
1441976030972992;0.55780029296875;-0.6046142578125;-0.419189453125;-0.38433837890625;15.879222797277501;17.37646086593567;3.8415964319720137;-0.81201171875;0.0322265625;-0.29150390625;42.6875;8.75;29.8125;
1441976030989993;0.551513671875;-0.61236572265625;-0.4151611328125;-0.3853759765625;15.841703902069309;17.344962374033116;3.754357679965248;-0.79931640625;0.0419921875;-0.32373046875;46.3125;9.5;30.1875;
1441976031010994;0.5458984375;-0.61907958984375;-0.41192626953125;-0.38604736328125;15.808614426579688;17.31376864103037;3.6757267981585047;-0.79150390625;0.1015625;-0.337890625;50.25;9.0;33.1875;
1441976031032995;0.54058837890625;-0.624755859375;-0.408447265625;-0.38824462890625;15.791237660161377;17.302988398733945;3.616263091206373;-0.814453125;0.09521484375;-0.34130859375;42.125;8.0;31.0625;
1441976031049996;0.5343017578125;-0.62945556640625;-0.40423583984375;-0.39361572265625;15.804300909780165;17.317218103098707;3.5704600018356585;-0.86474609375;0.04443359375;-0.35498046875;43.375;2.0625;26.1875;
1441976031071998;0.52716064453125;-0.6337890625;-0.3984375;-0.402099609375;15.839618885204764;17.363706267376898;3.5418822952059017;-0.89013671875;-0.0166015625;-0.33837890625;54.125;-9.8125;21.6875;
1441976031092999;0.51910400390625;-0.637451171875;-0.39154052734375;-0.4134521484375;15.899608845921435;17.43753355166347;3.528541106910173;-0.89892578125;-0.0234375;-0.38818359375;69.875;-22.25;12.9375;
1441976031110000;0.510009765625;-0.640869140625;-0.38360595703125;-0.4266357421875;15.973915514424615;17.530444077325527;3.523737491986308;-0.95703125;-0.02880859375;-0.404296875;83.75;-33.5625;4.875;
1441976031132001;0.5001220703125;-0.64404296875;-0.375;-0.44097900390625;16.05804982351848;17.637616233496416;3.526399747431775;-0.994140625;0.00830078125;-0.41650390625;95.8125;-40.625;-1.625;
1441976031153002;0.49066162109375;-0.64630126953125;-0.3665771484375;-0.45526123046875;16.146176811170307;17.755720757773027;3.544735308570169;-1.0146484375;0.12109375;-0.4248046875;105.1875;-42.5;-8.1875;
1441976031170003;0.4820556640625;-0.64813232421875;-0.36187744140625;-0.46539306640625;16.220639719919088;17.80863155762861;3.52445493693456;-1.14306640625;0.2568359375;-0.46044921875;102.0625;-44.625;-14.4375;
1441976031192005;0.47662353515625;-0.6483154296875;-0.359619140625;-0.4725341796875;16.282654587166988;17.846143578205353;3.518729280484179;-1.27099609375;0.26025390625;-0.47998046875;77.0625;-42.1875;-12.5;
1441976031221006;0.47186279296875;-0.65087890625;-0.35675048828125;-0.47589111328125;16.29658322456905;17.850390823287007;3.483422973030232;-1.38427734375;0.11083984375;-0.3818359375;44.9375;-27.8125;-5.8125;
1441976031230007;0.466064453125;-0.65875244140625;-0.35247802734375;-0.4739990234375;16.235792673694416;17.786539487316347;3.3717811149891563;-1.62841796875;-0.0595703125;-0.361328125;36.375;1.75;15.625;
1441976031252008;0.45953369140625;-0.672119140625;-0.3477783203125;-0.46502685546875;16.084421856689474;17.6490203397153;3.1862890135532855;-1.63232421875;-0.01611328125;-0.37841796875;41.6875;37.5;38.9375;
1441976031277009;0.45458984375;-0.68597412109375;-0.3438720703125;-0.45233154296875;15.893240887873494;17.51537652694047;3.0201417622019564;-1.73193359375;0.20703125;-0.65869140625;41.25;65.625;56.5625;
1441976031290010;0.45098876953125;-0.69866943359375;-0.340576171875;-0.43878173828125;15.696581176227728;17.409179824397732;2.8926285060950305;-1.6376953125;0.20849609375;-0.69580078125;24.75;81.1875;63.5625;
1441976031320012;0.44921875;-0.713623046875;-0.33172607421875;-0.42303466796875;15.439029866422652;17.37618256150505;2.825297884517404;-1.44970703125;0.2158203125;-0.640625;14.125;85.375;59.125;
1441976031335013;0.4500732421875;-0.71942138671875;-0.32830810546875;-0.41497802734375;15.318922875380958;17.367150492019075;2.812792406911681;-1.1884765625;0.37353515625;-0.65087890625;29.75;118.625;50.25;
1441976031351014;0.4425048828125;-0.7347412109375;-0.32000732421875;-0.40252685546875;15.100227704968118;17.319975991698136;2.704070798726886;-1.333984375;0.1123046875;-0.3095703125;3.4375;79.375;20.8125;
1441976031372015;0.42425537109375;-0.759765625;-0.3023681640625;-0.3890380859375;14.7963103019397;17.29431051162075;2.5256643005035544;-2.33837890625;-0.26904296875;-0.63525390625;49.0;94.75;74.3125;
1441976031393016;0.41680908203125;-0.77484130859375;-0.29302978515625;-0.374267578125;14.551034388768754;17.273327426385716;2.443813773579196;-2.46142578125;-0.58203125;-1.07861328125;128.0625;126.125;124.4375;
1441976031410017;0.4034423828125;-0.78338623046875;-0.308349609375;-0.3585205078125;14.414098911130777;17.033957099533843;2.2276358640909417;-2.76123046875;0.7861328125;-0.52880859375;47.4375;107.8125;73.6875;
1441976031432018;0.40155029296875;-0.78558349609375;-0.3128662109375;-0.3519287109375;14.352369514568226;16.97134487760116;2.184439509160484;-0.9873046875;1.03955078125;-0.51025390625;-29.375;38.5;92.75;
1441976031453019;0.40313720703125;-0.788818359375;-0.30902099609375;-0.34619140625;14.26782394923405;16.994899896047126;2.205508152477884;-0.546875;-0.169921875;-0.04443359375;-35.0625;39.0625;51.75;
1441976031470020;0.406494140625;-0.786865234375;-0.31591796875;-0.34033203125;14.241122171576336;16.94054890865397;2.2060988843601;-0.05029296875;0.5869140625;-0.291015625;25.4375;30.125;-28.8125;
1441976031492022;0.413818359375;-0.781005859375;-0.3218994140625;-0.33941650390625;14.28026232165157;16.92339255934155;2.252455945745722;-0.361328125;0.62353515625;-0.3564453125;-35.6875;6.9375;-24.6875;
1441976031513023;0.42047119140625;-0.77825927734375;-0.3194580078125;-0.33984375;14.290099269560397;16.973966782079412;2.3235140376537764;-0.5283203125;0.11328125;-0.4365234375;-56.1875;-11.625;-31.5;
1441976031530024;0.42755126953125;-0.77276611328125;-0.32257080078125;-0.34063720703125;14.334590749062938;16.984292459467266;2.381186126361166;-0.36181640625;0.1025390625;-0.62646484375;-11.5625;-9.5;-42.3125;
1441976031551025;0.43658447265625;-0.76434326171875;-0.3304443359375;-0.34063720703125;14.401957009911397;16.964837426632478;2.4415053966335205;-0.58837890625;0.37451171875;-0.595703125;-29.75;-19.375;-52.5;
1441976031574026;0.446533203125;-0.7547607421875;-0.338134765625;-0.34161376953125;14.484286467541729;16.95552131574778;2.514626057723426;-0.62109375;0.3876953125;-0.46923828125;-59.8125;-22.0;-58.25;
1441976031589027;0.4544677734375;-0.74615478515625;-0.34375;-0.34429931640625;14.571570363828632;16.959972181166005;2.580403328595316;-0.67626953125;0.1875;-0.3759765625;-67.375;-19.5625;-55.375;
1441976031611029;0.45928955078125;-0.7391357421875;-0.3485107421875;-0.3482666015625;14.6610874255902;16.960800161061282;2.621560931358128;-0.6845703125;0.16259765625;-0.3994140625;-49.0625;-25.3125;-50.75;
1441976031634030;0.46209716796875;-0.73199462890625;-0.35601806640625;-0.35211181640625;14.761294385798319;16.928105448801514;2.632089238007759;-0.6318359375;0.26904296875;-0.48876953125;-30.3125;-39.6875;-44.25;
1441976031649031;0.46405029296875;-0.724365234375;-0.3660888671875;-0.35491943359375;14.864048147143988;16.86423716764621;2.620830161856101;-0.61279296875;0.388671875;-0.52294921875;-35.0;-54.5;-38.1875;
1441976031671032;0.46514892578125;-0.71722412109375;-0.37591552734375;-0.3577880859375;14.963886012289581;16.795177478854807;2.599057129121794;-0.654296875;0.34814453125;-0.56494140625;-50.5625;-61.6875;-25.0;
1441976031694033;0.46441650390625;-0.7117919921875;-0.3834228515625;-0.361572265625;15.055130278067193;16.735837652737455;2.566322013963321;-0.666015625;0.1904296875;-0.6015625;-52.875;-65.25;-11.5625;
1441976031709034;0.46282958984375;-0.70733642578125;-0.3895263671875;-0.36578369140625;15.139919426068511;16.682679211234245;2.528614366818964;-0.64208984375;0.1435546875;-0.6123046875;-35.5625;-65.5625;-3.75;
1441976031731035;0.46075439453125;-0.70361328125;-0.3961181640625;-0.3685302734375;15.207386126410755;16.614284361487613;2.4775194973964076;-0.650390625;0.13623046875;-0.564453125;-24.5;-61.5;-0.5625;
1441976031754037;0.459228515625;-0.69903564453125;-0.4049072265625;-0.3695068359375;15.268073334831008;16.51990570393221;2.4161701430853464;-0.6376953125;0.1533203125;-0.5234375;-27.0625;-55.0;6.4375;
1441976031777038;0.45660400390625;-0.6949462890625;-0.41412353515625;-0.37042236328125;15.323938579628088;16.40992400383992;2.3358425252767994;-0.63232421875;0.1083984375;-0.40966796875;-43.5;-48.125;13.8125;
1441976031791039;0.45208740234375;-0.69232177734375;-0.42242431640625;-0.3714599609375;15.366039786305238;16.292949986214804;2.2352376448690148;-0.6689453125;0.064453125;-0.33837890625;-42.375;-45.6875;24.0;
1441976031814040;0.44482421875;-0.69268798828125;-0.4283447265625;-0.372802734375;15.382057541870381;16.180724849876256;2.1141844537713874;-0.67138671875;0.0185546875;-0.31298828125;-32.0;-44.6875;36.625;
1441976031829041;0.43536376953125;-0.695556640625;-0.431640625;-0.374755859375;15.377723802401501;16.082790141463768;1.983703116570913;-0.6826171875;0.06591796875;-0.36083984375;-8.75;-43.0625;47.4375;
1441976031851042;0.4251708984375;-0.698974609375;-0.43463134765625;-0.37664794921875;15.36406283492841;15.984081069865717;1.8478012061967126;-0.71728515625;0.1357421875;-0.43359375;13.9375;-43.1875;52.25;
1441976031874044;0.4150390625;-0.70245361328125;-0.43792724609375;-0.37762451171875;15.33765070256524;15.883519387966162;1.7134279211945678;-0.77587890625;0.19775390625;-0.43701171875;19.3125;-41.9375;54.0;
1441976031889044;0.40545654296875;-0.70599365234375;-0.44110107421875;-0.377685546875;15.299254702211169;15.790355307193032;1.5900093657004204;-0.7998046875;0.22216796875;-0.39892578125;16.3125;-36.125;56.625;
1441976031911046;0.3961181640625;-0.709716796875;-0.44384765625;-0.37750244140625;15.254442935914568;15.706759785590824;1.475661996099825;-0.81982421875;0.23095703125;-0.37060546875;14.1875;-28.875;57.5;
1441976031934047;0.3861083984375;-0.7139892578125;-0.44580078125;-0.37750244140625;15.203398584863496;15.63133272955985;1.3627120491067979;-0.83740234375;0.21826171875;-0.318359375;15.6875;-22.1875;58.4375;
1441976031949048;0.37542724609375;-0.71929931640625;-0.44622802734375;-0.377685546875;15.143794582251157;15.572866637367976;1.256233252445622;-0.8173828125;0.2275390625;-0.26025390625;23.125;-18.4375;60.25;
1441976031971049;0.3638916015625;-0.7255859375;-0.44580078125;-0.37738037109375;15.069770834341476;15.524014192821003;1.1522696872778002;-0.80029296875;0.23779296875;-0.24365234375;34.5;-14.9375;61.4375;
1441976031994050;0.35284423828125;-0.7315673828125;-0.446044921875;-0.37603759765625;14.987345635080217;15.475433039049111;1.0556346696869678;-0.775390625;0.3076171875;-0.2470703125;42.5625;-11.5;62.3125;
1441976032009051;0.34283447265625;-0.73712158203125;-0.44677734375;-0.37359619140625;14.898749408514108;15.431703069063005;0.972613915396193;-0.76708984375;0.35791015625;-0.24169921875;36.9375;-7.8125;61.4375;
1441976032032053;0.3336181640625;-0.7425537109375;-0.44769287109375;-0.3699951171875;14.801523107025856;15.39482661969684;0.9027530119521864;-0.7587890625;0.333984375;-0.23095703125;28.3125;-1.6875;62.0625;
1441976032054054;0.3248291015625;-0.747802734375;-0.448486328125;-0.3663330078125;14.705571939973868;15.363753979421446;0.8401839884029747;-0.751953125;0.36474609375;-0.2236328125;24.5;5.375;61.25;
1441976032069055;0.31610107421875;-0.75311279296875;-0.4481201171875;-0.363525390625;14.61813109017757;15.344627534591794;0.783380480317532;-0.763671875;0.3720703125;-0.234375;23.125;6.3125;59.6875;
1441976032093056;0.30657958984375;-0.7598876953125;-0.4459228515625;-0.3602294921875;14.517124252221198;15.344255131736126;0.733602900316334;-0.78955078125;0.3193359375;-0.22412109375;28.75;7.0;60.0625;
1441976032114057;0.296630859375;-0.767578125;-0.4434814453125;-0.3553466796875;14.39517574001021;15.350189667630191;0.6890508939043098;-0.7744140625;0.31591796875;-0.2607421875;40.0;11.4375;63.5;
1441976032130058;0.287109375;-0.77423095703125;-0.4425048828125;-0.34991455078125;14.27338668221285;15.345041812761428;0.6435560646353716;-0.7470703125;0.43212890625;-0.3251953125;42.3125;15.9375;64.4375;
1441976032151059;0.27801513671875;-0.7799072265625;-0.4425048828125;-0.3446044921875;14.158018402808082;15.332519047662329;0.5974515858308609;-0.81640625;0.48046875;-0.32958984375;32.375;17.5;65.75;
1441976032174061;0.2694091796875;-0.7847900390625;-0.44329833984375;-0.33929443359375;14.047271370324642;15.315092818925267;0.5527005776951344;-0.8388671875;0.4794921875;-0.333984375;24.5625;15.375;66.1875;
1441976032190062;0.26092529296875;-0.78973388671875;-0.44415283203125;-0.333251953125;13.92946761250483;15.300343153842173;0.5126508105185595;-0.81591796875;0.45751953125;-0.3056640625;18.375;15.1875;65.8125;
1441976032211063;0.25262451171875;-0.794677734375;-0.4449462890625;-0.3267822265625;13.808276370804274;15.288656859582892;0.47690171427963735;-0.775390625;0.49658203125;-0.3134765625;17.75;18.125;65.125;
1441976032234064;0.244384765625;-0.79974365234375;-0.4451904296875;-0.32025146484375;13.686821070602008;15.282812414701443;0.4448516175445898;-0.7314453125;0.5107421875;-0.33544921875;16.3125;19.125;64.0;
1441976032250065;0.23583984375;-0.80462646484375;-0.4459228515625;-0.31341552734375;13.561135941784901;15.27351334763212;0.4109250844845509;-0.73486328125;0.505859375;-0.3720703125;17.5625;19.125;64.6875;
1441976032271066;0.22772216796875;-0.80865478515625;-0.44793701171875;-0.305908203125;13.432708318794603;15.256039415989875;0.37850548596607925;-0.7294921875;0.56396484375;-0.40576171875;14.75;17.875;65.5625;
1441976032294068;0.22027587890625;-0.81182861328125;-0.45147705078125;-0.2977294921875;13.30211014932174;15.229691867544924;0.34886308720572323;-0.74755859375;0.60107421875;-0.421875;5.375;19.5;66.875;
1441976032310069;0.2130126953125;-0.81475830078125;-0.454833984375;-0.28985595703125;13.176154870403664;15.205377293111574;0.32108130100334664;-0.736328125;0.58837890625;-0.40625;-5.875;21.4375;68.75;
1441976032331070;0.2054443359375;-0.8179931640625;-0.4573974609375;-0.281982421875;13.048345880913597;15.187549192141105;0.294852546179382;-0.71923828125;0.5322265625;-0.388671875;-6.6875;21.4375;69.9375;
1441976032354071;0.19769287109375;-0.8214111328125;-0.4593505859375;-0.2742919921875;12.92133449688635;15.174575450663765;0.26949588357968046;-0.69091796875;0.52880859375;-0.37890625;-1.9375;22.5625;70.4375;
1441976032370072;0.18988037109375;-0.8251953125;-0.4605712890625;-0.266357421875;12.791234391023679;15.168238013327437;0.2472915528560122;-0.65966796875;0.52587890625;-0.3642578125;2.6875;22.625;70.4375;
1441976032391073;0.1822509765625;-0.82861328125;-0.4620361328125;-0.25830078125;12.661740973343148;15.160508890942923;0.2263164526264085;-0.619140625;0.52001953125;-0.37841796875;5.9375;23.8125;69.75;
1441976032414074;0.17535400390625;-0.83154296875;-0.46392822265625;-0.250244140625;12.536925264937924;15.150892321804008;0.2089892629775083;-0.58837890625;0.54736328125;-0.37158203125;4.125;24.1875;68.1875;
1441976032430075;0.16876220703125;-0.83416748046875;-0.46551513671875;-0.24298095703125;12.42262686268717;15.142673119113077;0.1918375350819883;-0.576171875;0.544921875;-0.3671875;0.125;25.25;65.4375;
1441976032451077;0.16253662109375;-0.8365478515625;-0.46685791015625;-0.23638916015625;12.317706668296049;15.135781007518034;0.17540806204448917;-0.56201171875;0.525390625;-0.3583984375;0.5;22.875;62.3125;
1441976032474078;0.15692138671875;-0.8385009765625;-0.46832275390625;-0.230224609375;12.221153960358478;15.128051575673318;0.16097344679900785;-0.54296875;0.54541015625;-0.35546875;1.8125;20.3125;57.4375;
1441976032490079;0.15234375;-0.83984375;-0.4703369140625;-0.224365234375;12.134002180684554;15.117201212148247;0.15043955571697676;-0.52392578125;0.5625;-0.3564453125;0.1875;19.375;52.1875;
1441976032511080;0.1484375;-0.8409423828125;-0.47222900390625;-0.21868896484375;12.052942803888506;15.107525577913433;0.14343892373028017;-0.509765625;0.548828125;-0.34521484375;-5.125;19.375;47.375;
1441976032534081;0.14501953125;-0.84197998046875;-0.4739990234375;-0.21319580078125;11.976524557646865;15.09917295400752;0.1389734008640238;-0.4873046875;0.53076171875;-0.34375;-6.6875;20.3125;43.5;
1441976032550082;0.1419677734375;-0.84259033203125;-0.47589111328125;-0.20849609375;11.910742489243045;15.088990550344306;0.133814478196879;-0.4697265625;0.548828125;-0.35498046875;-6.75;19.5625;39.625;
1441976032571083;0.139404296875;-0.843017578125;-0.4775390625;-0.20458984375;11.856018082402407;15.07992667189418;0.12933962313256753;-0.4677734375;0.56201171875;-0.35302734375;-7.75;16.6875;35.1875;
1441976032594085;0.13751220703125;-0.84326171875;-0.47906494140625;-0.20135498046875;11.81201645664393;15.071602704278945;0.12669363617065393;-0.46533203125;0.5791015625;-0.3779296875;-8.125;13.3125;30.3125;
1441976032610086;0.13616943359375;-0.84381103515625;-0.4796142578125;-0.1988525390625;11.778430505891185;15.06994201289817;0.12649724025404546;-0.45947265625;0.59033203125;-0.39111328125;-8.75;11.25;24.875;
1441976032631087;0.13507080078125;-0.84454345703125;-0.4793701171875;-0.1968994140625;11.751940433046457;15.073194843923241;0.12721298449485163;-0.466796875;0.57275390625;-0.41455078125;-4.9375;10.125;20.3125;
1441976032654088;0.13421630859375;-0.8450927734375;-0.47918701171875;-0.1956787109375;11.734284941454437;15.075432361433643;0.12683018782359254;-0.46337890625;0.60546875;-0.42822265625;-0.0625;8.75;15.8125;
1441976032676089;0.133544921875;-0.84521484375;-0.47943115234375;-0.1949462890625;11.722959508562603;15.073984736152653;0.12510651188470348;-0.4501953125;0.6337890625;-0.41015625;1.125;5.4375;11.25;
1441976032691090;0.1331787109375;-0.84527587890625;-0.47955322265625;-0.194580078125;11.717131521214302;15.073220609321108;0.12407941983598055;-0.41796875;0.634765625;-0.3955078125;-0.9375;2.8125;7.25;
1441976032714092;0.13299560546875;-0.84539794921875;-0.4793701171875;-0.1947021484375;11.717235018014803;15.074263657919085;0.12303637123800498;-0.39990234375;0.62255859375;-0.38525390625;-0.4375;1.3125;4.1875;
1441976032730093;0.13287353515625;-0.845458984375;-0.4791259765625;-0.1951904296875;11.721454490487456;15.075312191869099;0.12126452884959289;-0.39453125;0.61669921875;-0.38818359375;0.875;-0.3125;2.0;
1441976032751094;0.1331787109375;-0.84539794921875;-0.4786376953125;-0.1964111328125;11.735686704585907;15.077462027245135;0.11987797692620547;-0.39697265625;0.62158203125;-0.3876953125;1.4375;-2.1875;0.0625;
1441976032774095;0.13348388671875;-0.8453369140625;-0.47772216796875;-0.198486328125;11.758727590953887;15.08141261164057;0.11650426906687764;-0.41845703125;0.587890625;-0.3837890625;1.4375;-3.625;-2.1875;
1441976032790096;0.13421630859375;-0.84527587890625;-0.4765625;-0.20111083984375;11.789702072755672;15.08695188636351;0.114174588321745;-0.43017578125;0.5751953125;-0.3701171875;4.8125;-6.4375;-4.375;
1441976032811097;0.13531494140625;-0.84490966796875;-0.47540283203125;-0.20465087890625;11.83233448427943;15.091486940574027;0.11091173498803036;-0.44921875;0.58251953125;-0.36767578125;6.3125;-7.3125;-7.5625;
1441976032834098;0.13702392578125;-0.84417724609375;-0.4742431640625;-0.20916748046875;11.888682999918895;15.09513030958314;0.10783500443081917;-0.45556640625;0.5546875;-0.3427734375;6.0625;-10.3125;-11.125;
1441976032856100;0.139404296875;-0.84307861328125;-0.47308349609375;-0.2147216796875;11.959663441491221;15.097922320473332;0.10509335681537144;-0.46142578125;0.53515625;-0.3251953125;5.5625;-13.125;-16.75;
1441976032871101;0.1427001953125;-0.84124755859375;-0.47216796875;-0.2215576171875;12.04961367570157;15.097557573972924;0.10263858319607336;-0.46484375;0.51123046875;-0.306640625;4.6875;-16.625;-22.625;
1441976032894102;0.147216796875;-0.83868408203125;-0.47125244140625;-0.230224609375;12.16579673505422;15.095440283566884;0.10080235669154834;-0.4697265625;0.47900390625;-0.2880859375;1.3125;-21.0;-29.8125;
1441976032916103;0.15289306640625;-0.8353271484375;-0.47003173828125;-0.24078369140625;12.309068911713739;15.092936286678013;0.09944868429170313;-0.4912109375;0.4267578125;-0.26953125;-1.375;-26.3125;-39.3125;
1441976032931104;0.15960693359375;-0.8311767578125;-0.468505859375;-0.25341796875;12.48057978507155;15.08963581830795;0.09724392714142531;-0.5185546875;0.37060546875;-0.24658203125;-2.75;-32.1875;-48.6875;
1441976032954105;0.1668701171875;-0.82659912109375;-0.4659423828125;-0.26800537109375;12.676577848313077;15.090112705125316;0.09341830021542852;-0.56298828125;0.32177734375;-0.2294921875;-3.4375;-39.0625;-57.375;
1441976032976107;0.17474365234375;-0.8214111328125;-0.462646484375;-0.2843017578125;12.895209169503698;15.092315294309914;0.08845271329402098;-0.5849609375;0.27978515625;-0.21728515625;0.4375;-46.0625;-65.75;
1441976032991107;0.18353271484375;-0.815185546875;-0.45849609375;-0.30267333984375;13.143274357872594;15.095800214415481;0.08283894668816909;-0.60400390625;0.2763671875;-0.2109375;3.5625;-53.0625;-75.0;
1441976033014109;0.19329833984375;-0.8079833984375;-0.45343017578125;-0.32293701171875;13.419386110758229;15.101584028882355;0.07793665940433825;-0.671875;0.2470703125;-0.2060546875;4.5625;-59.8125;-84.75;
1441976033036110;0.20196533203125;-0.800537109375;-0.44866943359375;-0.34228515625;13.681709591227792;15.102497478092852;0.06788204212610063;-0.74267578125;0.1923828125;-0.20166015625;5.5625;-66.375;-92.9375;
1441976033053111;0.21063232421875;-0.792236328125;-0.44219970703125;-0.36395263671875;13.972506117233358;15.107481225465712;0.052567896119410915;-0.82177734375;0.1572265625;-0.1923828125;7.25;-72.875;-101.625;
1441976033074112;0.21826171875;-0.78363037109375;-0.4326171875;-0.3887939453125;14.295500106399702;15.123273780860135;0.02698644930614872;-0.927734375;0.07470703125;-0.1865234375;14.9375;-83.0;-109.9375;
1441976033096113;0.224365234375;-0.77484130859375;-0.4193115234375;-0.4166259765625;14.648044233988346;15.153232672743002;17.991196153687508;-1.06103515625;-0.03515625;-0.17333984375;33.9375;-96.4375;-118.0625;
1441976033113114;0.2301025390625;-0.76470947265625;-0.403564453125;-0.44659423828125;15.031008480318691;15.189095679334471;17.950628624277222;-1.1064453125;-0.0166015625;-0.15576171875;57.875;-109.25;-127.875;
1441976033134116;0.23516845703125;-0.75335693359375;-0.38568115234375;-0.47802734375;15.43626239703011;15.228973199854;17.90464412774724;-1.12646484375;-0.05419921875;-0.146484375;68.9375;-120.25;-139.5;
1441976033150117;0.24041748046875;-0.73980712890625;-0.3668212890625;-0.51025390625;15.864303242807159;15.262579659632362;17.85347620656565;-1.1474609375;-0.06787109375;-0.1337890625;79.25;-128.875;-147.625;
1441976033173118;0.2459716796875;-0.72369384765625;-0.3472900390625;-0.5433349609375;16.317786174749756;15.279202135009717;17.788245513076063;-1.18115234375;-0.0478515625;-0.1123046875;79.6875;-136.875;-156.9375;
1441976033194119;0.2525634765625;-0.704345703125;-0.327880859375;-0.5767822265625;16.797491833875757;15.253355255105758;17.690754412449156;-1.3115234375;-0.0166015625;-0.07861328125;77.9375;-146.4375;-167.0;
1441976033210120;0.26055908203125;-0.68182373046875;-0.3087158203125;-0.6099853515625;17.298836771378117;15.119099815647145;17.497314384462957;-1.46630859375;0.0068359375;-0.05615234375;68.375;-156.8125;-177.4375;
1441976033233121;0.2708740234375;-0.65606689453125;-0.28997802734375;-0.64202880859375;17.807903419348765;14.147111296972795;16.48382362322288;-1.60986328125;0.03076171875;-0.056640625;56.6875;-164.8125;-188.5625;
1441976033254122;0.28289794921875;-0.62786865234375;-0.27081298828125;-0.67266845703125;17.62396461253856;7.092068556455569;9.398283615628667;-1.751953125;-0.0146484375;-0.0625;39.1875;-170.125;-199.875;
1441976033276124;0.29473876953125;-0.59796142578125;-0.25006103515625;-0.70220947265625;17.080025766316627;6.703333421162976;8.976807527472202;-1.89697265625;-0.109375;-0.0517578125;28.6875;-171.875;-210.0;
1441976033293125;0.30487060546875;-0.56622314453125;-0.22796630859375;-0.73114013671875;16.521518849097784;6.633551687913076;8.866384376418084;-1.91796875;-0.1494140625;-0.07373046875;30.625;-174.8125;-218.5625;
1441976033314126;0.312744140625;-0.5335693359375;-0.20513916015625;-0.75860595703125;15.968268645227337;6.630215320841567;8.814228078127849;-1.86474609375;-0.1337890625;-0.1015625;38.9375;-182.3125;-222.8125;
1441976033336127;0.3193359375;-0.50042724609375;-0.182861328125;-0.78369140625;15.430798072100355;6.645796852807057;8.78176029681807;-1.818359375;-0.0751953125;-0.12890625;47.1875;-185.6875;-221.5625;
1441976033353128;0.32562255859375;-0.46710205078125;-0.16143798828125;-0.80609130859375;14.910817764094638;6.661153593372796;8.75459043531707;-1.77294921875;0.06884765625;-0.15771484375;45.8125;-184.625;-216.8125;
1441976033374129;0.32952880859375;-0.43389892578125;-0.13958740234375;-0.82684326171875;14.40489907795565;6.689590655055377;8.730590270849959;-1.74462890625;0.0849609375;-0.1640625;39.875;-181.5;-211.9375;
1441976033396131;0.3299560546875;-0.40130615234375;-0.11724853515625;-0.84637451171875;13.917178878153917;6.736837330285474;8.70875112875111;-1.68359375;0.0810546875;-0.1630859375;49.0;-178.75;-206.1875;
1441976033413132;0.32708740234375;-0.37017822265625;-0.0950927734375;-0.86431884765625;13.459055373507013;6.798520733282672;8.686515474163283;-1.51904296875;0.068359375;-0.1689453125;65.0625;-174.8125;-197.4375;
1441976033435133;0.322265625;-0.341796875;-0.07440185546875;-0.87969970703125;13.048543802499944;6.863464098032553;8.662527182580918;-1.263671875;0.10205078125;-0.13671875;78.0625;-165.0;-184.375;
1441976033456134;0.3172607421875;-0.31781005859375;-0.0565185546875;-0.8917236328125;12.705962926497529;6.919700622887637;8.636959890122995;-1.04052734375;0.15234375;-0.1396484375;81.0;-148.625;-165.0;
1441976033473135;0.313720703125;-0.299560546875;-0.04205322265625;-0.90008544921875;12.444404680916234;6.957012078095135;8.608867418598441;-0.890625;0.23779296875;-0.1484375;71.1875;-124.25;-140.5;
1441976033494136;0.31072998046875;-0.293212890625;-0.03411865234375;-0.903564453125;12.34363924556394;6.977287596452809;8.58470903454357;-0.771484375;0.3193359375;-0.185546875;51.9375;-93.4375;-113.875;
1441976033516137;0.31060791015625;-0.29095458984375;-0.0291748046875;-0.90447998046875;12.298452849434485;6.974572413308256;8.561265706974325;-0.65380859375;0.37548828125;-0.244140625;26.375;-62.625;-87.0625;
1441976033533138;0.3089599609375;-0.29486083984375;-0.027587890625;-0.90380859375;12.336879652145944;6.975853268362404;8.544156767277725;-0.6005859375;0.28125;-0.275390625;7.875;-40.9375;-62.75;
1441976033554140;0.30828857421875;-0.30718994140625;-0.031005859375;-0.8997802734375;12.488559183457813;6.961149963607755;8.53128373677183;-0.515625;0.41845703125;-0.3486328125;5.0625;-11.5;-33.3125;
1441976033576141;0.30999755859375;-0.32781982421875;-0.03985595703125;-0.8916015625;12.753277518386302;6.919493820169924;8.520318953580993;-0.49951171875;0.60693359375;-0.4814453125;-15.8125;24.375;-0.5;
1441976033600142;0.3101806640625;-0.35992431640625;-0.0552978515625;-0.878173828125;13.179395057406712;6.868254869742685;8.512880615529577;-0.56689453125;0.6396484375;-0.5908203125;-40.125;57.4375;33.875;
1441976033614143;0.31732177734375;-0.385498046875;-0.07098388671875;-0.86358642578125;13.52987765092762;6.773546211246678;8.500448012917849;-0.7412109375;0.9375;-0.84326171875;-52.75;95.5;71.4375;
1441976033638144;0.32305908203125;-0.41937255859375;-0.0927734375;-0.84332275390625;14.010706351902579;6.663090061085467;8.485871806992755;-1.181640625;1.1337890625;-1.09423828125;-86.125;132.9375;114.5625;
1441976033653145;0.31951904296875;-0.46441650390625;-0.11846923828125;-0.81744384765625;14.661112323572588;6.573701812322218;8.460137927048226;-1.54150390625;0.96337890625;-1.0966796875;-99.6875;175.0625;165.0625;
1441976033681147;0.30511474609375;-0.5208740234375;-0.1483154296875;-0.78338623046875;15.5027470859018;6.498991762931766;8.416008562379897;-1.82177734375;0.85400390625;-0.92822265625;-68.75;231.0;230.1875;
1441976033704148;0.2811279296875;-0.585693359375;-0.1826171875;-0.738037109375;16.52601170134379;6.390245146232191;8.320944122763152;-2.15234375;0.87890625;-0.79638671875;-36.25;291.5;305.1875;
1441976033713149;0.25103759765625;-0.6539306640625;-0.220947265625;-0.6787109375;17.68412346427212;5.498485994099043;7.448759990735355;-2.57568359375;0.97998046875;-0.77734375;-19.0;347.125;378.8125;
1441976033734150;0.21759033203125;-0.71783447265625;-0.2613525390625;-0.60760498046875;17.037940485923016;15.92396430022244;17.91067860639545;-3.0966796875;1.099609375;-0.9189453125;-25.9375;396.375;437.375;
1441976033756151;0.179443359375;-0.773681640625;-0.2996826171875;-0.5286865234375;15.77480373253817;15.683051879740308;17.702849586503316;-3.6513671875;1.16650390625;-1.1455078125;-42.75;416.6875;467.25;
1441976033773152;0.15216064453125;-0.80926513671875;-0.3431396484375;-0.4520263671875;14.671277208274429;15.521577925862776;17.665536583088457;-4.0458984375;1.48291015625;-1.345703125;-40.0;416.625;480.9375;
1441976033794153;0.1329345703125;-0.82452392578125;-0.39215087890625;-0.3857421875;13.775706532380825;15.298644015155707;17.644050914458056;-4.0029296875;2.07275390625;-1.2666015625;-128.3125;357.9375;422.6875;
1441976033816155;0.1142578125;-0.8345947265625;-0.429931640625;-0.3250732421875;12.985000168218328;15.154039823096895;17.66793335864879;-3.958984375;0.98095703125;-0.998046875;-206.1875;267.1875;361.25;
1441976033833156;0.10223388671875;-0.831298828125;-0.47491455078125;-0.27032470703125;12.312555644339009;14.937586848786136;17.702623256039082;-3.83154296875;0.5634765625;-0.92919921875;-161.375;238.875;316.375;
1441976033854157;0.0938720703125;-0.80938720703125;-0.53521728515625;-0.22296142578125;11.747536044202269;14.58388227942994;17.719598521194495;-3.8427734375;0.57568359375;-0.62158203125;-237.0625;197.0625;274.5625;
1441976033876158;0.083251953125;-0.774658203125;-0.60052490234375;-0.1800537109375;11.226687652918283;14.16839085658463;17.729463013748102;-3.78125;0.037109375;-0.287109375;-363.0625;133.8125;250.0;
1441976033892159;0.0640869140625;-0.7432861328125;-0.6507568359375;-0.14154052734375;10.708505214930497;13.839617296283208;17.73306155166385;-3.18212890625;-0.85595703125;0.0341796875;-420.4375;87.125;246.4375;
1441976033914160;0.04266357421875;-0.7196044921875;-0.684814453125;-0.10675048828125;10.224344421445801;13.615189566044833;17.75108326674514;-2.4677734375;-0.9921875;0.103515625;-330.125;48.875;255.3125;
1441976033936162;0.027099609375;-0.702392578125;-0.7069091796875;-0.07916259765625;9.859846483950667;13.465530313573508;17.78584049825757;-1.77001953125;-0.5029296875;-0.04833984375;-229.3125;36.5625;240.375;
1441976033952162;0.01361083984375;-0.69683837890625;-0.7147216796875;-0.05889892578125;9.5827591005111;13.417845184319875;17.81205500746624;-1.38818359375;-0.4755859375;-0.10791015625;-157.6875;36.8125;206.25;
1441976033975164;0.00311279296875;-0.7001953125;-0.71258544921875;-0.04559326171875;9.39149197601505;13.443798864045213;17.825850110516598;-1.1103515625;-0.52685546875;-0.1748046875;-53.6875;22.3125;159.125;
1441976033996165;-4.8828125E-4;-0.7056884765625;-0.7073974609375;-0.04144287109375;9.33131676276647;13.488143706607925;17.829690563568803;-0.76318359375;-0.27685546875;-0.1455078125;22.4375;11.0;109.25;
1441976034012166;-0.00164794921875;-0.708984375;-0.7042236328125;-0.0396728515625;9.309116510635853;13.514791985995927;17.83291965754227;-0.5166015625;-0.25;-0.0361328125;41.75;2.8125;66.3125;
1441976034035167;-4.2724609375E-4;-0.70703125;-0.7060546875;-0.041015625;9.329002616608276;13.499133103053765;17.831986653684133;-0.34765625;-0.0673828125;0.0537109375;30.125;3.5;35.3125;
1441976034056168;0.0020751953125;-0.697021484375;-0.7156982421875;-0.0445556640625;9.373141925109726;13.418558275725225;17.825110460439213;-0.27001953125;0.10888671875;0.08642578125;-9.625;-0.6875;8.1875;
