1441975752558068;-0.06976318359375;0.7481689453125;0.61541748046875;0.23779296875;11.621407799486427;13.91449102970101;17.39417473539027;-2.72265625;0.26025390625;-0.05029296875;6.3125;117.75;435.0625;
1441975752578069;-0.045166015625;0.75531005859375;0.62384033203125;0.19525146484375;11.057065481432966;13.946274852961047;17.46006777309455;-2.37353515625;0.64208984375;-0.052734375;105.75;93.5625;345.0625;
1441975752594070;-0.0340576171875;0.74664306640625;0.6461181640625;0.1544189453125;10.593913026389814;13.850431794177746;17.55520175418531;-2.24072265625;0.630859375;-0.06201171875;5.5625;102.3125;270.0;
1441975752617071;-0.02825927734375;0.7281494140625;0.67431640625;0.1190185546875;10.22082682942808;13.682260794917955;17.649229836916724;-2.0908203125;0.19970703125;0.0712890625;-125.5625;121.4375;216.9375;
1441975752638072;-0.02264404296875;0.70458984375;0.70416259765625;0.08465576171875;9.869587862874175;13.482460175170438;17.746619458746704;-1.88720703125;-0.20654296875;0.19091796875;-191.3125;108.4375;177.3125;
1441975752655073;-0.0145263671875;0.6783447265625;0.73272705078125;0.05096435546875;9.518916186011348;13.27211978195942;17.841746641966616;-1.73046875;-0.560546875;-0.06591796875;-217.5625;101.0;173.0625;
1441975752677074;-0.0089111328125;0.6572265625;0.75335693359375;0.02020263671875;9.22914511595251;13.10906182460291;17.946305929329636;-1.40771484375;-0.54638671875;-0.099609375;-222.0625;86.8125;179.4375;
1441975752699076;-0.00616455078125;0.6431884765625;0.76556396484375;-0.0096435546875;8.98300148696859;13.003432924023649;0.06502936430552053;-1.12109375;-0.41455078125;-0.03857421875;-169.1875;85.875;174.6875;
1441975752714077;-0.00653076171875;0.63238525390625;0.77374267578125;-0.03558349609375;8.799984101927672;12.922764472159056;0.1816632402149987;-0.912109375;-0.12158203125;-0.0693359375;-108.375;95.875;155.375;
1441975752737078;-0.01519775390625;0.62274169921875;0.78045654296875;-0.0526123046875;8.760383496511103;12.852630164392899;0.29026534593068704;-0.78515625;0.1181640625;-0.04833984375;-79.4375;95.1875;125.0;
1441975752758079;-0.02850341796875;0.61322021484375;0.78662109375;-0.06585693359375;8.794102180547942;12.786690905708465;0.39852010460311754;-0.73681640625;0.27099609375;-0.0068359375;-69.8125;91.1875;93.0;
1441975752774080;-0.04119873046875;0.60498046875;0.79119873046875;-0.07904052734375;8.825536247292346;12.732596223004716;0.5039728834455552;-0.73291015625;0.37255859375;0.03173828125;-64.8125;96.625;59.375;
1441975752797081;-0.05914306640625;0.599609375;0.79327392578125;-0.087158203125;8.93875299621087;12.705202501126013;0.6038822555743489;-0.7314453125;0.51123046875;0.08642578125;-51.1875;102.8125;24.1875;
1441975752818082;-0.08380126953125;0.59521484375;0.79425048828125;-0.08843994140625;9.15952067314317;12.694533644726107;0.6953584321317507;-0.712890625;0.73779296875;0.06787109375;-27.625;107.9375;-15.6875;
1441975752834083;-0.1143798828125;0.59210205078125;0.79345703125;-0.08197021484375;9.484410478211464;12.706029514524658;0.7727786384040439;-0.685546875;0.84814453125;0.08642578125;-13.75;115.3125;-69.9375;
1441975752858085;-0.14935302734375;0.59075927734375;0.78985595703125;-0.069091796875;9.88767455009918;12.745083914006145;0.8401609671965711;-0.69384765625;0.8701171875;0.123046875;4.9375;116.25;-124.625;
1441975752878086;-0.18792724609375;0.592529296875;0.78173828125;-0.048828125;10.364926238288758;12.824211627377796;0.8962330345882337;-0.72509765625;0.88916015625;0.18115234375;30.375;115.1875;-166.875;
1441975752894087;-0.22930908203125;0.59521484375;0.769775390625;-0.02215576171875;10.906787494716815;12.931897193081005;0.9481070138756472;-0.71630859375;0.9599609375;0.22216796875;67.875;110.5;-210.0;
1441975752917088;-0.27032470703125;0.59527587890625;0.756591796875;0.008544921875;11.47873835436264;13.040211737313882;0.9946842248184953;-0.8115234375;0.93408203125;0.0576171875;91.125;104.6875;-246.5;
1441975752938089;-0.3089599609375;0.5933837890625;0.7420654296875;0.04150390625;12.051878378530372;13.150525867265545;1.0370552118218965;-1.02880859375;1.07177734375;0.03759765625;88.6875;91.4375;-265.625;
1441975752954090;-0.344482421875;0.5869140625;0.72882080078125;0.0750732421875;12.617711614309238;13.23812982979557;1.0716023028302109;-1.2177734375;1.15185546875;-0.03173828125;88.0;74.75;-270.6875;
1441975752977092;-0.37579345703125;0.57916259765625;0.715087890625;0.1090087890625;13.158999058772729;13.321431228976172;1.0968951472771087;-1.3447265625;1.08837890625;-0.056640625;66.25;56.5;-271.0;
1441975752998093;-0.40350341796875;0.5726318359375;0.69903564453125;0.14349365234375;13.67600554890111;13.422544159382207;1.122075407128317;-1.38671875;0.9658203125;-0.02685546875;66.125;39.0625;-261.5625;
1441975753014094;-0.427978515625;0.56689453125;0.68072509765625;0.17889404296875;14.17723762131047;13.54234449093891;1.1496016422613347;-1.3408203125;0.85009765625;-0.01953125;83.0;28.75;-252.5;
1441975753037095;-0.4501953125;0.5599365234375;0.6614990234375;0.21478271484375;14.674162945111357;13.669844663504485;1.1826518820017224;-1.32421875;0.8525390625;-0.04150390625;98.6875;19.375;-248.25;
1441975753058096;-0.46978759765625;0.551025390625;0.64227294921875;0.25115966796875;15.168103562450115;13.794845884056496;1.2143656662109439;-1.32568359375;0.81689453125;-0.0595703125;100.1875;9.8125;-248.5;
1441975753074097;-0.4869384765625;0.5411376953125;0.62249755859375;0.28717041015625;15.65081554180831;13.932667156821367;1.2581548304254566;-1.2861328125;0.67626953125;-0.041015625;98.125;-3.375;-247.3125;
1441975753097098;-0.50177001953125;0.5306396484375;0.6024169921875;0.32196044921875;16.11413157578783;14.096267921425667;1.3289085874426179;-1.2177734375;0.56787109375;-0.0107421875;98.9375;-10.4375;-242.6875;
1441975753118100;-0.51422119140625;0.51898193359375;0.58319091796875;0.3551025390625;16.555463092907246;14.285653581576003;1.4319350557314627;-1.16552734375;0.49365234375;-0.0205078125;98.25;-15.3125;-234.625;
1441975753134101;-0.5242919921875;0.50579833984375;0.56591796875;0.385986328125;16.970856607235184;14.5062157551024;1.5779214306333758;-1.1416015625;0.35791015625;-0.06982421875;90.625;-23.9375;-222.6875;
1441975753157102;-0.53179931640625;0.49273681640625;0.5498046875;0.41473388671875;17.350951487706475;14.849945632838638;1.850265264805815;-1.1171875;0.2265625;-0.0556640625;77.875;-34.0;-208.0625;
1441975753178103;-0.53692626953125;0.4808349609375;0.534912109375;0.4407958984375;17.67510350851296;15.678537327042438;2.609445635399844;-1.07666015625;0.12060546875;-0.0341796875;74.1875;-39.3125;-189.9375;
1441975753194104;-0.54010009765625;0.47021484375;0.52203369140625;0.46331787109375;17.84330064298125;1.0209127354865577;5.88961788119507;-1.05615234375;0.03369140625;-0.02880859375;71.6875;-40.25;-168.25;
1441975753217105;-0.541259765625;0.46124267578125;0.5113525390625;0.482421875;17.703009944068214;3.8590439506423735;8.67142848025375;-1.02197265625;-0.041015625;-0.0283203125;64.1875;-39.375;-142.625;
1441975753238106;-0.53955078125;0.454345703125;0.5008544921875;0.50152587890625;17.505397605631234;4.660863162539646;9.403341145319898;-1.0166015625;-0.197265625;-0.05224609375;58.0625;-39.625;-113.875;
1441975753254107;-0.5330810546875;0.45208740234375;0.49200439453125;0.51898193359375;17.36359367664842;5.0948949386816675;9.749899964397505;-0.97412109375;-0.27685546875;-0.00634765625;71.4375;-43.0;-88.375;
1441975753277109;-0.52459716796875;0.45245361328125;0.48492431640625;0.53369140625;17.266903375788395;5.415005311797334;9.982116300533493;-0.88037109375;-0.1455078125;-0.02001953125;89.375;-46.0625;-62.375;
1441975753300110;-0.51727294921875;0.4532470703125;0.4810791015625;0.54364013671875;17.21039620858468;5.6568258935815114;10.161032374038081;-0.87744140625;-0.091796875;-0.076171875;90.5;-46.9375;-40.9375;
1441975753314111;-0.5103759765625;0.4542236328125;0.4810791015625;0.54925537109375;17.19351384167026;5.910578823807963;10.376045760055009;-0.89404296875;-0.0791015625;-0.09716796875;65.4375;-42.4375;-20.5;
1441975753337112;-0.50396728515625;0.45550537109375;0.48431396484375;0.55126953125;17.207203786334947;6.196676763292728;10.643566585047173;-0.9013671875;-0.05126953125;-0.05615234375;41.6875;-38.5625;0.8125;
1441975753360113;-0.4981689453125;0.45709228515625;0.49041748046875;0.5498046875;17.245561981109397;6.537324084943525;10.984750978397482;-0.91748046875;-0.02587890625;-0.02734375;21.5;-35.3125;19.75;
1441975753374114;-0.49261474609375;0.4591064453125;0.49810791015625;0.5462646484375;17.291906109518898;6.95133845620473;11.409292406054936;-0.9501953125;-0.0029296875;-0.01171875;2.625;-31.5;36.375;
1441975753397116;-0.4864501953125;0.4622802734375;0.505859375;0.54193115234375;17.335316587563458;7.451819242070451;11.917663928384481;-0.984375;0.001953125;0.01025390625;-6.9375;-27.8125;48.5;
1441975753420117;-0.4794921875;0.466796875;0.51324462890625;0.53729248046875;17.36633842465291;8.04551371242477;12.512939741978927;-0.9814453125;0.0263671875;0.01171875;-4.375;-24.0;56.125;
1441975753434118;-0.47216796875;0.47210693359375;0.52069091796875;0.531982421875;17.37520135143094;8.717172073293606;13.184950322912435;-0.94482421875;0.0517578125;0.01904296875;1.6875;-20.125;61.0625;
1441975753465119;-0.46478271484375;0.47808837890625;0.52789306640625;0.5260009765625;17.35759729622781;9.406109138792022;13.873359042256546;-0.88134765625;0.09423828125;0.03515625;2.9375;-15.875;65.375;
1441975753480120;-0.4580078125;0.4840087890625;0.53460693359375;0.5196533203125;17.314970262888654;10.018134582539076;14.4864275160762;-0.84521484375;0.15283203125;0.03076171875;3.6875;-11.5625;66.3125;
1441975753502122;-0.451904296875;0.4888916015625;0.541748046875;0.51300048828125;17.245669983882504;10.510777980102093;14.987120276243688;-0.84814453125;0.181640625;0.0107421875;1.5;-8.875;63.625;
1441975753517122;-0.44677734375;0.49249267578125;0.5494384765625;0.505859375;17.160352969178895;10.882153200096036;15.37601668577129;-0.8232421875;0.2021484375;0.01220703125;-5.5;-10.375;60.9375;
1441975753540124;-0.4429931640625;0.49505615234375;0.55621337890625;0.499267578125;17.080958481060726;11.136471423261522;15.650505019474103;-0.79443359375;0.25;0.0087890625;-15.625;-11.125;56.0;
1441975753561125;-0.440185546875;0.4969482421875;0.56121826171875;0.49420166015625;17.01779751967736;11.300256786675478;15.829741581103077;-0.82275390625;0.26416015625;-0.00634765625;-19.1875;-10.4375;45.9375;
1441975753577126;-0.437255859375;0.4991455078125;0.56463623046875;0.49072265625;16.964172557535264;11.421860817476986;15.956448907605788;-0.87255859375;0.2421875;9.765625E-4;-15.125;-9.1875;33.875;
1441975753600127;-0.433837890625;0.50238037109375;0.566162109375;0.48870849609375;16.9204808113829;11.532125088861054;16.05776768575142;-0.8515625;0.234375;0.0302734375;-4.6875;-6.9375;26.625;
1441975753622128;-0.4305419921875;0.50640869140625;0.56536865234375;0.48834228515625;16.89601373868154;11.629931965440672;16.133269753843557;-0.78662109375;0.24462890625;0.0625;9.25;-2.5625;19.4375;
1441975753645130;-0.42767333984375;0.510498046875;0.5631103515625;0.48919677734375;16.88729190172619;11.709732701495058;16.1840822417768;-0.78271484375;0.25830078125;0.06591796875;22.125;1.75;9.0625;
1441975753660131;-0.42578125;0.51348876953125;0.56085205078125;0.49029541015625;16.887725564719176;11.761853849042565;16.212484876627855;-0.7958984375;0.26513671875;0.056640625;28.5;3.125;-0.25;
1441975753681132;-0.42547607421875;0.51483154296875;0.55914306640625;0.4910888671875;16.89820642691104;11.784262870808282;16.222951541580876;-0.7822265625;0.26318359375;0.05322265625;22.5;1.9375;-6.5;
1441975753697133;-0.42681884765625;0.514892578125;0.557373046875;0.49188232421875;16.92420171552103;11.782280884653103;16.217294589945745;-0.76953125;0.25439453125;0.052734375;11.0;2.5;-12.125;
1441975753720134;-0.4290771484375;0.51434326171875;0.55548095703125;0.49261474609375;16.95925689139328;11.769905050541318;16.205463405326032;-0.79443359375;0.2119140625;0.0634765625;2.3125;5.0625;-17.4375;
1441975753741135;-0.43115234375;0.5137939453125;0.5535888671875;0.49359130859375;16.993190593811594;11.751045151946213;16.185921162886675;-0.806640625;0.162109375;0.0654296875;-1.0;6.75;-18.5625;
1441975753765137;-0.43292236328125;0.51348876953125;0.5513916015625;0.4947509765625;17.02691308911547;11.733786788783584;16.164991634033477;-0.7958984375;0.13330078125;0.087890625;0.125;7.375;-17.25;
1441975753780138;-0.4344482421875;0.51348876953125;0.54925537109375;0.49578857421875;17.0576373119938;11.724982302597354;16.15146497155694;-0.80126953125;0.1220703125;0.0732421875;3.5;6.1875;-16.4375;
1441975753801139;-0.435791015625;0.513671875;0.54754638671875;0.49639892578125;17.082727905719047;11.727723707388588;16.150889515435175;-0.810546875;0.115234375;0.06591796875;4.0625;6.375;-14.25;
1441975753825140;-0.43682861328125;0.513427734375;0.54638671875;0.4969482421875;17.10132556654927;11.716736264165172;16.138681448136822;-0.833984375;0.1201171875;0.05078125;3.0;5.1875;-11.1875;
1441975753840141;-0.43756103515625;0.513427734375;0.54534912109375;0.4974365234375;17.11613726101464;11.712100040079884;16.13177264246443;-0.8525390625;0.109375;0.05859375;1.0;2.4375;-8.4375;
1441975753861142;-0.437255859375;0.51416015625;0.54425048828125;0.49822998046875;17.122623236624325;11.71779080360703;16.129051528893584;-0.869140625;0.08349609375;0.0693359375;2.4375;2.625;-5.0625;
1441975753877143;-0.435791015625;0.515625;0.5433349609375;0.4989013671875;17.117196860363435;11.742813047229241;16.14108619137555;-0.890625;0.07958984375;0.08837890625;8.4375;2.0625;-0.75;
1441975753900144;-0.43389892578125;0.51751708984375;0.54296875;0.49908447265625;17.102772462401003;11.786706305664906;16.172519311657233;-0.90380859375;0.11572265625;0.10302734375;13.3125;1.375;3.25;
1441975753921146;-0.43231201171875;0.51904296875;0.54290771484375;0.4989013671875;17.08813533131789;11.827476036255893;16.204678068018488;-0.9384765625;0.16259765625;0.0927734375;12.6875;0.6875;5.9375;
1441975753937146;-0.4307861328125;0.52001953125;0.543701171875;0.49835205078125;17.067327179273157;11.856202216272585;16.23005291419812;-0.99560546875;0.14697265625;0.07470703125;8.5625;-0.6875;7.75;
1441975753960148;-0.4288330078125;0.5211181640625;0.545166015625;0.497314453125;17.036701558297015;11.89208087656568;16.264325654771472;-0.98828125;0.119140625;0.087890625;3.75;-2.5625;12.125;
1441975753981149;-0.427001953125;0.52227783203125;0.54669189453125;0.49591064453125;17.00562145196899;11.935162031003602;16.307196110876575;-0.96826171875;0.13720703125;0.10302734375;2.3125;-2.5625;16.0;
1441975753997150;-0.4254150390625;0.5230712890625;0.5489501953125;0.493896484375;16.970020108333983;11.97567217629551;16.353112395053845;-1.01904296875;0.134765625;0.10205078125;0.9375;-1.25;18.3125;
1441975754020151;-0.42413330078125;0.52337646484375;0.5521240234375;0.49114990234375;16.92891910906546;12.011695156453843;16.401568444285168;-1.04833984375;0.1201171875;0.0966796875;-4.4375;-2.125;22.5;
1441975754041152;-0.422607421875;0.523681640625;0.55596923828125;0.48779296875;16.87909320420218;12.050449368262898;16.45574115655474;-1.015625;0.107421875;0.111328125;-10.875;-1.8125;26.25;
1441975754057153;-0.421142578125;0.5240478515625;0.560546875;0.4833984375;16.82123406601527;12.099910957389216;16.525724189258742;-0.96044921875;0.109375;0.13818359375;-13.75;0.0625;30.5625;
1441975754086155;-0.42034912109375;0.5238037109375;0.56622314453125;0.47772216796875;16.757931896576927;12.148112537492834;16.60501794604808;-0.93408203125;0.1318359375;0.1416015625;-18.375;1.8125;34.6875;
1441975754101156;-0.42022705078125;0.52227783203125;0.5733642578125;0.470947265625;16.68837467185738;12.176012304410467;16.67706838291005;-0.921875;0.1337890625;0.11865234375;-28.5;1.75;39.0625;
1441975754117157;-0.420654296875;0.52032470703125;0.58087158203125;0.4635009765625;16.619165859862715;12.200854922118015;16.751935024948683;-0.91748046875;0.11474609375;0.11962890625;-41.625;0.625;43.4375;
1441975754139158;-0.42071533203125;0.5184326171875;0.58807373046875;0.45635986328125;16.549686956599572;12.218388919920452;16.816578479307807;-0.94775390625;0.0888671875;0.09716796875;-47.0625;-0.1875;46.9375;
1441975754161159;-0.4200439453125;0.51715087890625;0.59478759765625;0.44976806640625;16.477942996431985;12.235107408357672;16.873603902220196;-0.9892578125;0.0546875;0.09375;-44.125;-1.875;50.0;
1441975754176160;-0.41796875;0.5167236328125;0.60107421875;0.4437255859375;16.397454794277706;12.252001969337044;16.921550231108483;-1.02001953125;0.03955078125;0.0947265625;-37.0625;-3.9375;53.0;
1441975754190161;-0.41510009765625;0.51708984375;0.60699462890625;0.43798828125;16.312058724608196;12.273041143200851;16.967171815995055;-1.0205078125;0.0537109375;0.1123046875;-27.8125;-6.0;56.1875;
1441975754213162;-0.41168212890625;0.517822265625;0.61260986328125;0.4324951171875;16.2240577886543;12.29319054355205;17.007736863088454;-1.015625;0.07861328125;0.12158203125;-21.0625;-6.5625;57.6875;
1441975754236164;-0.407958984375;0.51849365234375;0.6182861328125;0.4271240234375;16.13362565184844;12.306973545975392;17.041119663007287;-1.01171875;0.09716796875;0.12890625;-17.125;-7.3125;58.3125;
1441975754250164;-0.40423583984375;0.5189208984375;0.62408447265625;0.42156982421875;16.04214335957219;12.316496094620408;17.071925918912235;-0.9921875;0.10546875;0.14306640625;-16.0625;-8.125;59.0;
1441975754273166;-0.40093994140625;0.51910400390625;0.62994384765625;0.41583251953125;15.953569343393665;12.323959260139528;17.103385324443252;-0.96337890625;0.12060546875;0.1572265625;-17.3125;-8.0625;58.9375;
1441975754296167;-0.3980712890625;0.51885986328125;0.63555908203125;0.41021728515625;15.871539967125901;12.326661161965752;17.131586965897117;-0.9521484375;0.130859375;0.15966796875;-19.75;-6.8125;57.4375;
1441975754310168;-0.39593505859375;0.518310546875;0.6407470703125;0.40484619140625;15.799991226854791;12.32756804175891;17.15908842127228;-0.96435546875;0.146484375;0.15966796875;-21.6875;-6.125;54.75;
1441975754333169;-0.3941650390625;0.517578125;0.6453857421875;0.400146484375;15.73820460780364;12.324590505352068;17.18075563035711;-0.96923828125;0.1484375;0.15478515625;-22.3125;-5.125;50.4375;
1441975754356170;-0.392822265625;0.5166015625;0.6495361328125;0.39605712890625;15.68622207791314;12.31788302750904;17.197438391894437;-0.982421875;0.15869140625;0.15625;-20.875;-5.25;45.625;
1441975754370171;-0.3917236328125;0.515380859375;0.6531982421875;0.39263916015625;15.642782079653;12.30682291920349;17.207812208654246;-0.970703125;0.1689453125;0.162109375;-19.9375;-4.8125;40.125;
1441975754393173;-0.39111328125;0.51422119140625;0.656005859375;0.39013671875;15.612492583781238;12.295795201933554;17.214199864988288;-0.95703125;0.17724609375;0.18017578125;-17.9375;-4.0;34.5625;
1441975754416174;-0.39105224609375;0.51324462890625;0.65777587890625;0.38848876953125;15.5963871415734;12.287725987749281;17.218985654055945;-0.947265625;0.18896484375;0.1865234375;-14.4375;-2.8125;27.3125;
1441975754430175;-0.391357421875;0.51220703125;0.658935546875;0.38763427734375;15.590660305524935;12.277652321801417;17.218811857364003;-0.93505859375;0.20703125;0.18408203125;-10.0625;-1.0;19.1875;
1441975754453176;-0.39239501953125;0.5108642578125;0.6593017578125;0.38763427734375;15.600290993703316;12.26454765061117;17.213714143482832;-0.9052734375;0.23193359375;0.1875;-7.8125;0.3125;11.1875;
1441975754476177;-0.39422607421875;0.50921630859375;0.65887451171875;0.38873291015625;15.626832579313163;12.246554430804528;17.201225086907986;-0.87646484375;0.23876953125;0.1943359375;-6.125;2.0;2.375;
1441975754490178;-0.39678955078125;0.50726318359375;0.65777587890625;0.3905029296875;15.667107824545955;12.225551590878304;17.184730621427775;-0.86376953125;0.22607421875;0.19140625;-4.5;3.0;-6.6875;
1441975754513179;-0.400146484375;0.50518798828125;0.65576171875;0.39312744140625;15.72344320782711;12.203097381411643;17.164145107561808;-0.86474609375;0.23486328125;0.201171875;-3.75;5.1875;-14.8125;
1441975754536181;-0.4044189453125;0.50262451171875;0.6531982421875;0.3963623046875;15.794350995359471;12.174695879543862;17.13820383007963;-0.875;0.2509765625;0.1953125;-1.5625;7.1875;-23.5;
1441975754552182;-0.40936279296875;0.49932861328125;0.65032958984375;0.40008544921875;15.876129022332744;12.135372561569527;17.10307888430824;-0.88232421875;0.25439453125;0.1865234375;-3.1875;8.6875;-31.9375;
1441975754573183;-0.41485595703125;0.4957275390625;0.64697265625;0.40435791015625;15.968021626883308;12.088676095522827;17.05996537801633;-0.88232421875;0.24267578125;0.1982421875;-4.75;9.3125;-38.3125;
1441975754596184;-0.42071533203125;0.4923095703125;0.642578125;0.409423828125;16.071743871938345;12.039251630402344;17.009267394293165;-0.8876953125;0.2216796875;0.20361328125;-4.625;11.0625;-43.5;
1441975754618185;-0.42681884765625;0.489013671875;0.637451171875;0.4150390625;16.18340135573442;11.98489548562168;16.950245010421906;-0.93115234375;0.2119140625;0.19873046875;-0.125;12.5625;-49.0625;
1441975754633186;-0.43292236328125;0.4854736328125;0.6322021484375;0.42083740234375;16.296087825732915;11.918239041102968;16.87880367493674;-0.96875;0.19091796875;0.17626953125;2.625;12.375;-52.1875;
1441975754655188;-0.438720703125;0.4814453125;0.62738037109375;0.4266357421875;16.402860330590542;11.831164904657538;16.788803448058438;-0.98876953125;0.15673828125;0.15966796875;2.4375;10.375;-52.5;
1441975754686189;-0.444091796875;0.4775390625;0.62274169921875;0.43231201171875;16.502472716951747;11.733290136248751;16.687363189576896;-0.982421875;0.11181640625;0.15869140625;0.75;7.25;-50.5625;
1441975754693190;-0.44866943359375;0.473876953125;0.618408203125;0.43780517578125;16.590341747233076;11.625365767371576;16.574398084874428;-0.9716796875;0.072265625;0.14208984375;1.125;5.0625;-46.9375;
1441975754716191;-0.4522705078125;0.470947265625;0.6143798828125;0.44287109375;16.663830219359976;11.520649844572748;16.46192466188968;-0.96826171875;0.041015625;0.14013671875;2.8125;2.875;-42.0;
1441975754738192;-0.45489501953125;0.46881103515625;0.610595703125;0.4476318359375;16.724073781701808;11.422269419408456;16.352342769141107;-0.95068359375;0.04541015625;0.138671875;6.0;1.5;-36.625;
1441975754753193;-0.45660400390625;0.467529296875;0.607177734375;0.451904296875;16.77098915533409;11.33807190388803;16.25436461747417;-0.95458984375;0.06298828125;0.14013671875;9.25;0.5;-31.75;
1441975754775194;-0.45733642578125;0.4671630859375;0.60394287109375;0.455810546875;16.80630179334003;11.272036444054518;16.17075250604114;-0.982421875;0.08544921875;0.138671875;12.25;-0.375;-27.0625;
1441975754799196;-0.4576416015625;0.46734619140625;0.6009521484375;0.4593505859375;16.83496158596855;11.219618222439909;16.09971626444805;-1.0068359375;0.11865234375;0.138671875;15.5;-1.25;-22.875;
1441975754813197;-0.4573974609375;0.4677734375;0.598388671875;0.46246337890625;16.85483515412926;11.17698256551202;16.038704791800804;-1.01513671875;0.1337890625;0.12353515625;17.125;-2.0;-19.4375;
1441975754835198;-0.4569091796875;0.46844482421875;0.5963134765625;0.4649658203125;16.868231619790368;11.14891570571781;15.99404321193413;-0.99072265625;0.146484375;0.13232421875;16.75;-2.25;-16.25;
1441975754858199;-0.45648193359375;0.46905517578125;0.59466552734375;0.46685791015625;16.878372113888823;11.129599275163955;15.96149941062707;-0.95751953125;0.16162109375;0.12939453125;15.375;-1.9375;-13.4375;
1441975754873200;-0.4561767578125;0.46942138671875;0.59356689453125;0.46807861328125;16.88486563274713;11.11636043896925;15.939635430290407;-0.943359375;0.1708984375;0.12353515625;12.125;-1.6875;-11.1875;
1441975754895201;-0.4561767578125;0.46942138671875;0.5931396484375;0.46868896484375;16.888417747350054;11.105187885874336;15.925451276352732;-0.9365234375;0.1748046875;0.1123046875;7.375;-2.25;-8.625;
1441975754918203;-0.4561767578125;0.46942138671875;0.593017578125;0.46881103515625;16.889399515305033;11.102996869818368;15.922558616160389;-0.9345703125;0.1611328125;0.1123046875;2.125;-2.125;-6.0625;
1441975754933203;-0.4560546875;0.4696044921875;0.59307861328125;0.46868896484375;16.88790528748591;11.10953538384683;15.928746304521354;-0.9443359375;0.16455078125;0.11181640625;-0.0625;-1.8125;-3.5625;
1441975754956205;-0.4556884765625;0.4700927734375;0.5931396484375;0.46844482421875;16.884353705675544;11.125524336227935;15.943166246798214;-0.94384765625;0.16650390625;0.11376953125;-0.1875;-1.375;-1.625;
1441975754970206;-0.45526123046875;0.470947265625;0.59326171875;0.4678955078125;16.87971240900952;11.155398111415618;15.971285750581025;-0.953125;0.17724609375;0.11962890625;1.0;-0.625;0.0625;
1441975754993207;-0.45501708984375;0.47149658203125;0.59375;0.46697998046875;16.873435962381905;11.184402715861054;16.00206409824599;-0.97119140625;0.18603515625;0.11083984375;1.3125;-0.3125;1.5625;
1441975755016208;-0.455078125;0.4715576171875;0.5947265625;0.465576171875;16.865516949609177;11.210353856644971;16.034906476650907;-0.96044921875;0.1796875;0.10986328125;-1.875;-0.1875;3.25;
1441975755030209;-0.4552001953125;0.471435546875;0.59600830078125;0.4638671875;16.85542284856738;11.236872019114138;16.070793636764684;-0.9677734375;0.15869140625;0.1181640625;-6.6875;0.0625;5.5625;
1441975755053210;-0.45526123046875;0.471435546875;0.59759521484375;0.4617919921875;16.84200976194608;11.271453662276508;16.116150072426677;-0.97412109375;0.13623046875;0.123046875;-8.875;0.3125;8.6875;
1441975755076212;-0.45513916015625;0.4715576171875;0.59967041015625;0.4591064453125;16.822418319074202;11.317296382969994;16.17508333614835;-0.962890625;0.125;0.12158203125;-9.75;0.375;12.25;
1441975755090212;-0.4549560546875;0.47186279296875;0.60198974609375;0.4559326171875;16.799384511350045;11.373021789721923;16.24532999719992;-0.97802734375;0.140625;0.126953125;-11.9375;0.8125;15.75;
1441975755113214;-0.45452880859375;0.4720458984375;0.60479736328125;0.452392578125;16.76957994565091;11.428070967015948;16.31705954315901;-0.99755859375;0.15283203125;0.11962890625;-13.375;0.8125;18.5;
1441975755135215;-0.4542236328125;0.47210693359375;0.60791015625;0.44854736328125;16.737573148600564;11.481701338723875;16.389836859918617;-0.99267578125;0.16357421875;0.13037109375;-15.3125;0.625;20.9375;
1441975755158216;-0.45379638671875;0.47198486328125;0.611572265625;0.444091796875;16.698908254019912;11.53584358478125;16.466724500596495;-0.96533203125;0.16455078125;0.1328125;-17.625;0.6875;22.6875;
1441975755173217;-0.45367431640625;0.4715576171875;0.61553955078125;0.439208984375;16.659426557923425;11.586314873923968;16.54384739771139;-0.94384765625;0.1796875;0.14111328125;-20.9375;1.0;24.6875;
1441975755195218;-0.45379638671875;0.47064208984375;0.61993408203125;0.43377685546875;16.61766001823337;11.630945201345545;16.620152459706905;-0.92724609375;0.17578125;0.13232421875;-24.5625;1.1875;26.3125;
1441975755218220;-0.45428466796875;0.46917724609375;0.62469482421875;0.42803955078125;16.575838937700354;11.665835923300822;16.691341249499814;-0.9326171875;0.1787109375;0.12548828125;-29.8125;0.375;27.6875;
1441975755233221;-0.4547119140625;0.4674072265625;0.62939453125;0.42254638671875;16.534590130790242;11.68929876334082;16.751007925573838;-0.9501953125;0.169921875;0.1171875;-34.25;-0.75;28.625;
1441975755255222;-0.4547119140625;0.46612548828125;0.63348388671875;0.4178466796875;16.495173541112216;11.710030238753802;16.80123721987787;-0.96435546875;0.146484375;0.115234375;-34.25;-2.5625;29.0625;
1441975755278223;-0.45391845703125;0.4659423828125;0.63677978515625;0.4139404296875;16.45486005272868;11.73841464695284;16.849050145948496;-0.96826171875;0.12841796875;0.1083984375;-27.625;-4.0625;29.375;
1441975755293224;-0.45245361328125;0.46630859375;0.63958740234375;0.41070556640625;16.413024320573243;11.76580373336276;16.889021666512566;-0.97607421875;0.13134765625;0.099609375;-17.8125;-5.3125;29.5625;
1441975755315225;-0.450439453125;0.4671630859375;0.64208984375;0.4080810546875;16.36942850189633;11.791615971613087;16.921733759124002;-0.97216796875;0.13232421875;0.10546875;-10.8125;-6.9375;29.6875;
1441975755338227;-0.44805908203125;0.4683837890625;0.64422607421875;0.40594482421875;16.325930231562246;11.816591162878426;16.949009896742517;-0.96728515625;0.13720703125;0.109375;-5.5;-8.0625;29.625;
1441975755353227;-0.4454345703125;0.47015380859375;0.64581298828125;0.40423583984375;16.28430998975496;11.845692670346162;16.97525938271881;-0.96728515625;0.13330078125;0.11181640625;-0.6875;-9.0;29.6875;
1441975755375229;-0.442626953125;0.47210693359375;0.64727783203125;0.40277099609375;16.24226999984781;11.873540553757413;16.9981029888286;-0.9833984375;0.140625;0.11083984375;4.1875;-9.0625;29.25;
1441975755398230;-0.439697265625;0.47418212890625;0.648681640625;0.4012451171875;16.19902931654865;11.90252374361286;17.021410786575977;-0.97216796875;0.14697265625;0.119140625;6.5;-8.75;28.75;
1441975755413231;-0.4371337890625;0.4761962890625;0.64990234375;0.399658203125;16.15986973471328;11.932212107060773;17.046278581460648;-0.95654296875;0.177734375;0.1298828125;7.0625;-7.6875;27.6875;
1441975755435232;-0.43511962890625;0.4776611328125;0.65118408203125;0.39794921875;16.125470385650573;11.956037787605945;17.06899790077257;-0.94482421875;0.1962890625;0.13037109375;6.1875;-5.875;25.5625;
1441975755458233;-0.433837890625;0.47869873046875;0.65234375;0.396240234375;16.098824755345778;11.976364518316617;17.091157256229216;-0.93115234375;0.20068359375;0.1376953125;2.6875;-4.5;23.0625;
1441975755473234;-0.4332275390625;0.4793701171875;0.6531982421875;0.3946533203125;16.08094245459136;11.993977820563988;17.112329607485833;-0.92724609375;0.2109375;0.13330078125;-0.375;-2.625;19.75;
1441975755495236;-0.4332275390625;0.47967529296875;0.65374755859375;0.3934326171875;16.072243464676053;12.006643777709396;17.12934209035052;-0.93603515625;0.21484375;0.125;-2.3125;-1.1875;15.5;
1441975755518237;-0.43377685546875;0.47967529296875;0.65380859375;0.3927001953125;16.07375642201989;12.015097698967416;17.141713360598494;-0.94677734375;0.220703125;0.12109375;-3.625;0.0;10.875;
1441975755541238;-0.43475341796875;0.47955322265625;0.6533203125;0.39263916015625;16.085175741257736;12.020043806388163;17.148501616519834;-0.94482421875;0.2158203125;0.11767578125;-3.4375;0.875;5.875;
1441975755555239;-0.435791015625;0.47955322265625;0.65216064453125;0.39337158203125;16.10414123650875;12.02298971990716;17.14878648025266;-0.93505859375;0.19873046875;0.1240234375;-1.25;2.125;1.5;
1441975755578240;-0.43707275390625;0.479736328125;0.650390625;0.39459228515625;16.13053488556609;12.027926952587798;17.14797300648045;-0.92431640625;0.1923828125;0.13427734375;2.9375;3.3125;-2.5625;
1441975755593241;-0.4385986328125;0.4798583984375;0.64837646484375;0.39617919921875;16.162073437119865;12.030676888556737;17.144001022587343;-0.923828125;0.19873046875;0.12841796875;6.3125;4.5625;-6.8125;
1441975755615242;-0.4405517578125;0.47967529296875;0.6461181640625;0.39776611328125;16.19944394665621;12.032228086433712;17.140282820269846;-0.92822265625;0.2138671875;0.130859375;6.625;5.1875;-10.375;
1441975755638244;-0.4429931640625;0.47900390625;0.643798828125;0.3997802734375;16.243974434389234;12.024490142555303;17.128576450439617;-0.935546875;0.21533203125;0.11572265625;4.875;5.875;-13.8125;
1441975755653245;-0.44549560546875;0.47821044921875;0.64111328125;0.4022216796875;16.293211422982736;12.012264365324643;17.11062912730547;-0.9375;0.193359375;0.12353515625;3.6875;6.125;-16.9375;
1441975755675246;-0.4478759765625;0.477783203125;0.637939453125;0.40509033203125;16.345349893318918;12.002231616690517;17.090785099510015;-0.94189453125;0.18310546875;0.12548828125;5.3125;6.375;-19.5;
1441975755698247;-0.45025634765625;0.47760009765625;0.63433837890625;0.40826416015625;16.40084558150683;11.99400942958916;17.069918122469677;-0.9462890625;0.19482421875;0.1240234375;9.125;6.875;-22.0625;
1441975755713248;-0.45263671875;0.477294921875;0.6307373046875;0.41162109375;16.457197478182934;11.980517789629719;17.043605851589717;-0.94580078125;0.20166015625;0.11376953125;11.6875;7.25;-24.75;
1441975755735249;-0.455078125;0.47674560546875;0.6270751953125;0.4151611328125;16.51551594847039;11.959769940387856;17.010247941095464;-0.9443359375;0.2060546875;0.1181640625;11.8125;7.0625;-26.8125;
1441975755758251;-0.45758056640625;0.47613525390625;0.623291015625;0.41876220703125;16.57536248737227;11.935992665220343;16.97371893697519;-0.93701171875;0.1982421875;0.1201171875;11.375;7.0625;-28.5625;
1441975755773252;-0.460205078125;0.47552490234375;0.61932373046875;0.42242431640625;16.637522715242383;11.910416060865602;16.935056583844187;-0.9423828125;0.19873046875;0.119140625;11.4375;7.25;-30.125;
1441975755795253;-0.46282958984375;0.47491455078125;0.61529541015625;0.42608642578125;16.69992827853762;11.882193179245487;16.8936054755706;-0.953125;0.201171875;0.11279296875;11.8125;7.5625;-31.5;
1441975755818254;-0.465576171875;0.47412109375;0.61138916015625;0.4296875;16.762443402781788;11.847576439310341;16.84717878316571;-0.962890625;0.2060546875;0.109375;11.625;7.75;-32.875;
1441975755833255;-0.46820068359375;0.47314453125;0.60748291015625;0.43328857421875;16.823970317706895;11.80440146200198;16.7924591375501;-0.96240234375;0.2021484375;0.1123046875;10.375;8.0625;-33.6875;
1441975755855256;-0.4708251953125;0.47235107421875;0.603515625;0.4368896484375;16.885281029679465;11.760231397813106;16.736026538307765;-0.9560546875;0.19384765625;0.125;10.375;8.3125;-33.9375;
1441975755878258;-0.47332763671875;0.47149658203125;0.59979248046875;0.44024658203125;16.942910256014958;11.711592059339397;16.67640620451014;-0.95556640625;0.185546875;0.11669921875;10.8125;8.75;-33.75;
1441975755893258;-0.475830078125;0.47052001953125;0.59649658203125;0.44305419921875;16.99591912587087;11.662628114235984;16.61967728877287;-0.95458984375;0.1826171875;0.115234375;9.8125;8.4375;-32.6875;
1441975755915260;-0.4783935546875;0.46923828125;0.59375;0.44537353515625;17.04435646400313;11.607740722982395;16.561095950003633;-0.94677734375;0.18212890625;0.10791015625;6.4375;7.6875;-30.875;
1441975755938261;-0.48089599609375;0.46795654296875;0.59130859375;0.44732666015625;17.088897532315887;11.553445723587805;16.50488598446436;-0.953125;0.17724609375;0.10888671875;2.6875;7.5;-28.75;
1441975755953262;-0.483154296875;0.46673583984375;0.589111328125;0.448974609375;17.12858937157385;11.500651284318993;16.450932179862054;-0.966796875;0.17138671875;0.10986328125;0.6875;7.5;-26.6875;
1441975755975263;-0.4849853515625;0.46588134765625;0.58709716796875;0.45050048828125;17.162478499671245;11.454434675970953;16.40215840132821;-0.97607421875;0.16162109375;0.1103515625;0.25;7.125;-24.125;
1441975755998264;-0.48626708984375;0.4654541015625;0.58526611328125;0.4520263671875;17.189792918647207;11.41476782876386;16.357649912157445;-0.96728515625;0.1552734375;0.1044921875;1.8125;6.0625;-20.9375;
1441975756013265;-0.487060546875;0.46533203125;0.583740234375;0.45330810546875;17.209959412486747;11.385784811120741;16.323155038261163;-0.97802734375;0.15185546875;0.0986328125;4.0;4.875;-17.75;
1441975756035266;-0.4874267578125;0.4654541015625;0.58251953125;0.45428466796875;17.22356196915737;11.369096021496189;16.300820778249214;-0.9755859375;0.15771484375;0.10107421875;5.0625;3.875;-14.8125;
1441975756058268;-0.4874267578125;0.46575927734375;0.5816650390625;0.45501708984375;17.230837493808252;11.362018984479567;16.288286610008598;-0.9697265625;0.16064453125;0.10595703125;5.3125;3.375;-11.5;
1441975756073269;-0.487060546875;0.46624755859375;0.581298828125;0.45538330078125;17.23072678595833;11.367966776391471;16.289664281099107;-0.9697265625;0.1591796875;0.11376953125;4.9375;2.8125;-8.1875;
1441975756095270;-0.48651123046875;0.46685791015625;0.5814208984375;0.4552001953125;17.2245541901545;11.390501820761429;16.309752298566778;-0.96875;0.166015625;0.11865234375;4.1875;2.25;-4.8125;
1441975756118271;-0.486083984375;0.46722412109375;0.58221435546875;0.45428466796875;17.213398258467798;11.422350372667127;16.34426134035647;-0.96630859375;0.1748046875;0.11083984375;2.25;1.6875;-1.375;
1441975756133272;-0.4857177734375;0.4674072265625;0.5836181640625;0.45269775390625;17.197142019804776;11.46274650462781;16.391727386571606;-0.96484375;0.1767578125;0.11474609375;-2.75;1.375;1.875;
1441975756155273;-0.48541259765625;0.46759033203125;0.585205078125;0.45074462890625;17.179214883545686;11.510167469883543;16.447994253507684;-0.94970703125;0.181640625;0.1123046875;-7.0;1.4375;4.8125;
1441975756178275;-0.4849853515625;0.4676513671875;0.58721923828125;0.44854736328125;17.156484310182258;11.554921359114967;16.503532765314507;-0.96142578125;0.16796875;0.10009765625;-8.5;1.0625;7.625;
1441975756193276;-0.48419189453125;0.4676513671875;0.58966064453125;0.4461669921875;17.126966166044514;11.595534072679776;16.55584904576893;-0.9755859375;0.1640625;0.099609375;-10.5;-0.75;10.375;
1441975756215277;-0.4832763671875;0.46771240234375;0.59246826171875;0.443359375;17.09250182221139;11.641744023245206;16.61554437526176;-0.97314453125;0.1689453125;0.1044921875;-11.4375;-2.0;12.875;
1441975756238278;-0.4822998046875;0.4676513671875;0.59564208984375;0.4403076171875;17.054169716466216;11.68355484660879;16.672784823715997;-0.9677734375;0.17919921875;0.10107421875;-13.0;-2.75;15.0625;
1441975756253279;-0.48138427734375;0.46734619140625;0.598876953125;0.43719482421875;17.01588594167025;11.716674177129116;16.722610982736043;-0.97265625;0.1953125;0.10595703125;-15.0;-3.4375;16.4375;
1441975756275280;-0.4803466796875;0.4669189453125;0.60223388671875;0.43426513671875;16.97618650054492;11.738642119792575;16.7611048103684;-0.98876953125;0.17529296875;0.10009765625;-16.375;-4.5625;17.875;
1441975756298282;-0.47894287109375;0.466796875;0.60546875;0.43133544921875;16.9336987856872;11.764443061638039;16.801216746353656;-0.9892578125;0.14990234375;0.11328125;-16.0;-5.4375;19.75;
1441975756313282;-0.4775390625;0.46697998046875;0.608642578125;0.42822265625;16.8904716799764;11.79816971211128;16.848723818549068;-0.9775390625;0.15087890625;0.11572265625;-13.375;-5.5;21.4375;
1441975756335284;-0.47625732421875;0.46722412109375;0.61181640625;0.42486572265625;16.84723804461403;11.835009775478936;16.900245798490474;-0.9658203125;0.15673828125;0.107421875;-13.0625;-4.5;22.875;
1441975756358285;-0.47467041015625;0.46746826171875;0.61505126953125;0.42169189453125;16.80135280934718;11.863662630513947;16.94238456310598;-0.95166015625;0.14208984375;0.1015625;-13.6875;-4.125;24.875;
1441975756373286;-0.47265625;0.46844482421875;0.61810302734375;0.41839599609375;16.75114368874733;11.90506761636253;16.993787257542973;-0.96142578125;0.1298828125;0.11279296875;-12.3125;-5.0625;26.75;
1441975756395287;-0.47076416015625;0.46929931640625;0.62127685546875;0.41485595703125;16.70026829595332;11.944045117237987;17.044558824571173;-0.95556640625;0.166015625;0.1083984375;-8.9375;-4.5625;28.0;
1441975756418288;-0.46917724609375;0.46954345703125;0.62493896484375;0.410888671875;16.64821765615897;11.972913514411943;17.090560288595203;-0.95751953125;0.17822265625;0.10009765625;-10.5625;-4.8125;28.375;
1441975756433289;-0.46795654296875;0.46905517578125;0.62884521484375;0.40679931640625;16.5986075192531;11.988158329682937;17.127235873986336;-0.9580078125;0.18408203125;0.10107421875;-15.875;-5.5625;28.5625;
1441975756455291;-0.46697998046875;0.468505859375;0.632568359375;0.40283203125;16.55273257499985;12.001440466957431;17.16193138877111;-0.95849609375;0.16748046875;0.10546875;-20.375;-5.75;28.375;
1441975756478292;-0.46588134765625;0.4683837890625;0.63580322265625;0.3990478515625;16.508665834424807;12.020674819958117;17.19909696468418;-0.9501953125;0.1630859375;0.109375;-20.1875;-5.25;27.5625;
1441975756493293;-0.4649658203125;0.4683837890625;0.638671875;0.39556884765625;16.469242543893003;12.039866860510193;17.234402281276445;-0.9306640625;0.1875;0.10595703125;-16.8125;-3.9375;25.5625;
1441975756515294;-0.46453857421875;0.46807861328125;0.64129638671875;0.39215087890625;16.43631317156867;12.05628455415168;17.268348348759098;-0.92138671875;0.205078125;0.10302734375;-15.0625;-2.9375;22.75;
1441975756538295;-0.46453857421875;0.46710205078125;0.643798828125;0.38916015625;16.410958249198035;12.059384102549739;17.290543798544196;-0.8974609375;0.2060546875;0.08984375;-16.375;-2.1875;19.6875;
1441975756553296;-0.46478271484375;0.466064453125;0.64599609375;0.38653564453125;16.391160549130436;12.060194877388678;17.30931989176101;-0.8759765625;0.1767578125;0.10400390625;-18.375;-2.0;16.8125;
1441975756577297;-0.46490478515625;0.4654541015625;0.64776611328125;0.38409423828125;16.37272837271285;12.067403512185146;17.33115169284464;-0.82763671875;0.1416015625;0.1103515625;-16.6875;-0.5;15.9375;
1441975756598299;-0.4652099609375;0.4654541015625;0.6490478515625;0.38165283203125;16.35729481643555;12.087460909070646;17.36309432487739;-0.76416015625;0.13671875;0.1142578125;-13.0625;1.3125;14.75;
1441975756613300;-0.46600341796875;0.46551513671875;0.6500244140625;0.37890625;16.34625186858781;12.115807615139188;17.404579299120666;-0.7294921875;0.15771484375;0.111328125;-10.25;4.9375;13.125;
1441975756635301;-0.4669189453125;0.465087890625;0.6510009765625;0.37652587890625;16.3388688512361;12.13330530405841;17.435919129201597;-0.7099609375;0.17138671875;0.0849609375;-11.625;6.6875;11.3125;
1441975756658302;-0.46722412109375;0.4644775390625;0.65234375;0.37469482421875;16.326946400836807;12.136335517789457;17.450995358132417;-0.67138671875;0.138671875;0.068359375;-12.5;4.6875;10.0;
1441975756673303;-0.46630859375;0.46466064453125;0.6534423828125;0.37359619140625;16.307457630684848;12.138386242778061;17.45649672426798;-0.609375;0.0859375;0.08251953125;-10.75;1.1875;12.5;
1441975756695304;-0.46484375;0.4654541015625;0.6544189453125;0.37274169921875;16.28357021958092;12.144499376778784;17.46161106317916;-0.55908203125;0.07958984375;0.10205078125;-2.125;-1.625;13.875;
1441975756718306;-0.46337890625;0.4654541015625;0.65618896484375;0.37139892578125;16.254881108017468;12.13905154939309;17.46131876920852;-0.56396484375;0.11767578125;0.08642578125;1.6875;-3.625;13.875;
1441975756733306;-0.46221923828125;0.464111328125;0.6591796875;0.3692626953125;16.221444552052645;12.11658937697546;17.454779677355795;-0.57470703125;0.12548828125;0.09130859375;-4.9375;-5.9375;15.0625;
1441975756755308;-0.46112060546875;0.46185302734375;0.66278076171875;0.3670654296875;16.18687786187186;12.079268193176793;17.438254701689154;-0.576171875;0.1328125;0.10205078125;-15.75;-8.5625;15.8125;
1441975756778309;-0.4599609375;0.46002197265625;0.66619873046875;0.3646240234375;16.150709079395597;12.051873934802213;17.430477021932013;-0.58154296875;0.12646484375;0.130859375;-20.1875;-9.6875;15.5625;
1441975756793310;-0.45904541015625;0.45941162109375;0.66839599609375;0.3624267578125;16.121975367661786;12.047324907701347;17.438340379774733;-0.5771484375;0.1357421875;0.158203125;-18.5625;-6.8125;16.5625;
1441975756817311;-0.45831298828125;0.459716796875;0.66973876953125;0.36053466796875;16.09893399157618;12.057708979659143;17.45546936198599;-0.57177734375;0.146484375;0.19189453125;-9.75;1.5;15.5625;
1441975756846313;-0.45721435546875;0.45977783203125;0.67156982421875;0.35845947265625;16.069687809596854;12.061810743439265;17.46803617912574;-0.615234375;0.130859375;0.15380859375;-4.3125;2.8125;16.3125;
1441975756853313;-0.4559326171875;0.45965576171875;0.67388916015625;0.35595703125;16.03460095533709;12.063468389904298;17.480935098901387;-0.66162109375;0.21240234375;0.13818359375;-7.25;-1.5625;14.1875;
1441975756875315;-0.45501708984375;0.45849609375;0.67694091796875;0.35284423828125;15.99824710558066;12.054460834773607;17.49132313865457;-0.68798828125;0.26806640625;0.12939453125;-10.875;-3.9375;13.9375;
1441975756898316;-0.4542236328125;0.45709228515625;0.67999267578125;0.3497314453125;15.963572541631168;12.042939146977549;17.500328165814036;-0.66552734375;0.26513671875;0.15478515625;-18.75;-3.3125;13.875;
1441975756921317;-0.4539794921875;0.45556640625;0.68280029296875;0.3465576171875;15.935051895221664;12.034002043432148;17.513281569241077;-0.685546875;0.2861328125;0.15625;-19.875;-3.6875;12.5625;
1441975756935318;-0.45458984375;0.4534912109375;0.685302734375;0.343505859375;15.917506018457845;12.022438168359258;17.52636699757164;-0.75244140625;0.31884765625;0.1494140625;-22.0;-2.4375;9.75;
1441975756958319;-0.45550537109375;0.45086669921875;0.68804931640625;0.3402099609375;15.90148269882611;12.006094940177002;17.53866326072401;-0.84375;0.318359375;0.1376953125;-24.875;-1.5;7.375;
1441975756982321;-0.455810546875;0.44873046875;0.69073486328125;0.337158203125;15.880514694576286;11.991634828980947;17.548802970098915;-0.87548828125;0.3095703125;0.15771484375;-27.9375;-1.0;7.9375;
1441975756995321;-0.45611572265625;0.44708251953125;0.6929931640625;0.3343505859375;15.861910568664106;11.983359858571742;17.56165646243617;-0.89697265625;0.330078125;0.18701171875;-24.375;-1.0;9.0;
1441975757018323;-0.45684814453125;0.44500732421875;0.6953125;0.331298828125;15.846637907118923;11.973246196705245;17.5761045654626;-0.9541015625;0.35107421875;0.1806640625;-20.8125;-1.25;8.375;
1441975757042324;-0.4580078125;0.442138671875;0.69775390625;0.32830810546875;15.836597076080091;11.954308452737882;17.585511180894603;-1.0126953125;0.34033203125;0.15625;-24.5;-2.5;9.25;
1441975757063325;-0.4591064453125;0.438720703125;0.70068359375;0.32513427734375;15.82381998090667;11.927589645112775;17.59064014588205;-1.03955078125;0.29150390625;0.15625;-28.1875;-3.25;10.5625;
1441975757078326;-0.45947265625;0.43585205078125;0.703857421875;0.321533203125;15.80022591229391;11.906773453345592;17.60016225730557;-1.04345703125;0.23095703125;0.17236328125;-30.6875;-4.5625;14.375;
1441975757112328;-0.4593505859375;0.4339599609375;0.7066650390625;0.31805419921875;15.772736324888424;11.896510798875614;17.614537941904306;-1.03271484375;0.2578125;0.2099609375;-28.5;-4.0625;18.25;
1441975757116328;-0.45947265625;0.4317626953125;0.7095947265625;0.314453125;15.746906850545622;11.883855338052404;17.62884594463961;-1.07421875;0.302734375;0.2099609375;-23.25;-4.125;19.0625;
1441975757139330;-0.45965576171875;0.4287109375;0.7130126953125;0.3106689453125;15.720170677354835;11.860661700461232;17.637475147722064;-1.1103515625;0.30126953125;0.21533203125;-25.4375;-4.3125;19.6875;
1441975757160331;-0.45947265625;0.42608642578125;0.71624755859375;0.3070068359375;15.690868740899978;11.841210331890148;17.646745132957882;-1.11181640625;0.2724609375;0.22265625;-30.0;-6.5;20.625;
1441975757175332;-0.45916748046875;0.4232177734375;0.7197265625;0.30328369140625;15.659492778883507;11.818006012608468;17.653632604144168;-1.1103515625;0.27685546875;0.22607421875;-27.125;-6.875;21.8125;
1441975757198333;-0.45819091796875;0.4202880859375;0.7237548828125;0.29931640625;15.618315546361565;11.791244623445644;17.65781219167343;-1.103515625;0.27490234375;0.23193359375;-28.3125;-8.6875;22.75;
1441975757220334;-0.45697021484375;0.41839599609375;0.7271728515625;0.29547119140625;15.576597909479615;11.777319257434185;17.66892865441014;-1.08203125;0.3173828125;0.28076171875;-29.0;-9.125;23.0;
1441975757235335;-0.4561767578125;0.4166259765625;0.7301025390625;0.29193115234375;15.542410357407215;11.76626466191594;17.681304138265588;-1.09326171875;0.38427734375;0.30712890625;-23.25;-6.25;20.9375;
1441975757258336;-0.4556884765625;0.4139404296875;0.7335205078125;0.2879638671875;15.508542297895927;11.74705574279329;17.692026841598352;-1.091796875;0.39990234375;0.30517578125;-21.75;-4.125;17.875;
1441975757289338;-0.45574951171875;0.41070556640625;0.73699951171875;0.28363037109375;15.478969267686894;11.725977284183234;17.705477010632933;-1.05615234375;0.39404296875;0.31005859375;-27.9375;-4.25;16.8125;
1441975757295339;-0.45648193359375;0.40655517578125;0.74041748046875;0.27935791015625;15.45811178965176;11.697366847149972;17.71577263831568;-1.0439453125;0.4091796875;0.296875;-33.25;-3.1875;14.6875;
1441975757318340;-0.45745849609375;0.4012451171875;0.74432373046875;0.27508544921875;15.4394060327284;11.655445694618233;17.718482344860295;-1.08642578125;0.41357421875;0.265625;-38.9375;-4.875;11.1875;
1441975757340341;-0.45806884765625;0.39544677734375;0.74847412109375;0.2711181640625;15.418431189978213;11.604780812630455;17.712897868205886;-1.11279296875;0.39990234375;0.27294921875;-45.0625;-7.8125;9.9375;
1441975757366343;-0.45819091796875;0.39056396484375;0.7520751953125;0.26806640625;15.397750944062295;11.559131550546175;17.703615339469238;-1.10205078125;0.375;0.29736328125;-45.4375;-10.0;9.6875;
1441975757378343;-0.45806884765625;0.38665771484375;0.7548828125;0.2659912109375;15.380980931339327;11.520344224413211;17.69202260019186;-1.09228515625;0.3818359375;0.3154296875;-37.0;-10.875;7.75;
1441975757400345;-0.4580078125;0.3824462890625;0.75762939453125;0.264404296875;15.367430361252506;11.476038821608883;17.67425769427797;-1.0888671875;0.392578125;0.29638671875;-29.25;-12.0;4.625;
1441975757415345;-0.4576416015625;0.37811279296875;0.7603759765625;0.26336669921875;15.35314070449856;11.426612292244073;17.64922013491057;-1.09814453125;0.37451171875;0.30126953125;-28.9375;-13.75;2.4375;
1441975757438347;-0.4571533203125;0.37445068359375;0.7625732421875;0.26300048828125;15.341684796270046;11.381990842823342;17.62275257847027;-1.083984375;0.35009765625;0.31591796875;-26.8125;-15.6875;1.375;
1441975757460348;-0.4566650390625;0.37127685546875;0.76434326171875;0.26336669921875;15.334021568197361;11.3395528160214;17.59314680512414;-1.0625;0.34423828125;0.3193359375;-20.75;-15.375;-0.375;
1441975757475349;-0.45635986328125;0.36871337890625;0.76544189453125;0.2642822265625;15.332383194282027;11.302838711742371;17.564044840177658;-1.046875;0.33935546875;0.34423828125;-15.5625;-13.3125;-3.375;
1441975757498350;-0.45635986328125;0.36651611328125;0.7659912109375;0.2657470703125;15.337644022112014;11.268887052156472;17.533852776292875;-1.03759765625;0.337890625;0.34130859375;-10.5625;-11.4375;-6.0625;
1441975757522352;-0.45660400390625;0.364501953125;0.76611328125;0.26763916015625;15.348429871607296;11.235832567858035;17.501949956304127;-1.0390625;0.3505859375;0.33544921875;-7.0;-9.6875;-10.125;
1441975757535352;-0.45733642578125;0.3624267578125;0.765869140625;0.27001953125;15.367150459048437;11.200700973199401;17.46662344586266;-1.0439453125;0.3779296875;0.33984375;-5.5625;-8.0;-14.6875;
1441975757558354;-0.45843505859375;0.36016845703125;0.76507568359375;0.2734375;15.395487900475235;11.15854667186599;17.420768345453055;-1.044921875;0.38330078125;0.34375;-4.5625;-6.3125;-19.4375;
1441975757580355;-0.45965576171875;0.3582763671875;0.76373291015625;0.277587890625;15.429316818731023;11.116234790939108;17.369889776252432;-1.04638671875;0.3486328125;0.3505859375;-1.5;-5.0625;-24.375;
1441975757595356;-0.46075439453125;0.3570556640625;0.76202392578125;0.28179931640625;15.463017474794944;11.080533351273067;17.32199845075496;-1.0478515625;0.3203125;0.349609375;3.4375;-4.25;-26.4375;
1441975757618357;-0.46209716796875;0.35552978515625;0.76043701171875;0.285888671875;15.497686540117428;11.041177210357835;17.272743778914503;-1.029296875;0.32080078125;0.34228515625;6.8125;-2.8125;-26.75;
1441975757640358;-0.46356201171875;0.353759765625;0.75897216796875;0.2896728515625;15.531592970456133;10.99992514218549;17.22409466107474;-1.01416015625;0.30126953125;0.35498046875;5.1875;-0.9375;-26.5625;
1441975757663360;-0.46490478515625;0.3524169921875;0.75732421875;0.2933349609375;15.564294354883106;10.963592273044089;17.1786656278058;-0.99755859375;0.2822265625;0.36474609375;3.6875;0.4375;-25.6875;
1441975757679361;-0.46636962890625;0.35113525390625;0.7557373046875;0.29669189453125;15.596529673304236;10.929151900056322;17.1363885942375;-0.9921875;0.28564453125;0.3720703125;5.25;2.25;-25.3125;
1441975757700362;-0.4678955078125;0.349365234375;0.7545166015625;0.29937744140625;15.625426810194037;10.892415010823823;17.09689444600627;-0.9990234375;0.294921875;0.36669921875;4.125;2.625;-24.6875;
1441975757715363;-0.4698486328125;0.34674072265625;0.75372314453125;0.301513671875;15.65444921035196;10.8483590549681;17.05687259226367;-0.99365234375;0.294921875;0.3701171875;-1.0;3.125;-23.375;
1441975757737364;-0.47174072265625;0.34393310546875;0.7530517578125;0.303466796875;15.681337174727396;10.802289407002513;17.016289267844407;-0.9736328125;0.2607421875;0.37451171875;-6.9375;4.0;-21.8125;
1441975757760365;-0.47320556640625;0.34197998046875;0.7523193359375;0.30517578125;15.70345348393682;10.767433303031911;16.983740508344617;-0.93896484375;0.20556640625;0.37451171875;-7.25;4.5;-19.125;
1441975757777366;-0.474365234375;0.34088134765625;0.75146484375;0.306640625;15.72260892872332;10.744432742154025;16.959990536508244;-0.89697265625;0.2060546875;0.369140625;-3.5625;5.3125;-15.9375;
1441975757798367;-0.47589111328125;0.33953857421875;0.75067138671875;0.3077392578125;15.7440599074305;10.721131853502737;16.938994771601667;-0.87646484375;0.25439453125;0.35302734375;-1.4375;6.0;-15.9375;
1441975757820369;-0.47796630859375;0.33746337890625;0.75;0.3084716796875;15.76919297043846;10.691427509803185;16.916899928359832;-0.89306640625;0.2890625;0.33154296875;-5.1875;5.75;-17.875;
1441975757835369;-0.48040771484375;0.3349609375;0.7490234375;0.30963134765625;15.800194727586977;10.652747784894245;16.88593991910028;-0.89697265625;0.2705078125;0.3134765625;-10.875;6.125;-18.5625;
1441975757859371;-0.482421875;0.33331298828125;0.747802734375;0.3114013671875;15.82939398772718;10.618867822307905;16.853133863205855;-0.90625;0.20849609375;0.2880859375;-10.375;5.25;-18.6875;
1441975757880372;-0.48388671875;0.3328857421875;0.746337890625;0.31298828125;15.854723515955232;10.601761069561078;16.831791504692767;-0.92041015625;0.181640625;0.29150390625;-3.375;4.4375;-17.25;
1441975757896373;-0.4849853515625;0.3328857421875;0.7451171875;0.31427001953125;15.87462479897092;10.592103716600052;16.81722224904919;-0.904296875;0.1923828125;0.26806640625;2.0;4.0625;-13.8125;
1441975757926375;-0.4853515625;0.33349609375;0.74395751953125;0.3157958984375;15.887696000735023;10.587871909760015;16.803676409011537;-0.8876953125;0.20751953125;0.24755859375;2.8125;2.8125;-11.625;
1441975757940375;-0.48492431640625;0.334716796875;0.74285888671875;0.317626953125;15.893477990342761;10.588660321851451;16.79040745656025;-0.8720703125;0.203125;0.24365234375;7.0625;0.25;-9.1875;
1441975757957376;-0.48394775390625;0.336669921875;0.74169921875;0.31976318359375;15.895088633381533;10.596274391875028;16.779009248349926;-0.88232421875;0.2197265625;0.24462890625;11.8125;-3.0625;-8.375;
1441975757978378;-0.482421875;0.33917236328125;0.74078369140625;0.32159423828125;15.889736348791233;10.613490792430142;16.775731829399856;-0.9140625;0.224609375;0.2529296875;16.875;-4.6875;-6.375;
1441975758008379;-0.48046875;0.34210205078125;0.7398681640625;0.323486328125;15.880586638072822;10.63567151393677;16.774806250587833;-0.92822265625;0.224609375;0.287109375;19.125;-4.0;-2.0;
1441975758024380;-0.47833251953125;0.3450927734375;0.73919677734375;0.32501220703125;15.867650885086672;10.661466561511105;16.778711514269304;-0.93994140625;0.23681640625;0.31298828125;22.1875;-3.4375;-0.5625;
1441975758046382;-0.4749755859375;0.3492431640625;0.7386474609375;0.3267822265625;15.843010748900468;10.699407487640485;16.78749220976877;-0.916015625;0.22705078125;0.3291015625;21.9375;-2.8125;2.75;
1441975758060382;-0.469970703125;0.3546142578125;0.73822021484375;0.32916259765625;15.803156912409289;10.746388202068868;16.79561474123635;-0.85595703125;0.232421875;0.33837890625;29.625;-4.4375;6.8125;
1441975758076383;-0.463134765625;0.36102294921875;0.73809814453125;0.33221435546875;15.745283242977907;10.798532507006072;16.799587351098378;-0.8671875;0.2626953125;0.3310546875;38.8125;-12.0;9.4375;
1441975758098384;-0.4541015625;0.368408203125;0.7384033203125;0.3358154296875;15.665069490315272;10.85517679897583;16.798815385365582;-0.9365234375;0.3017578125;0.345703125;47.3125;-20.6875;13.1875;
1441975758120386;-0.44305419921875;0.37738037109375;0.73895263671875;0.33941650390625;15.564390775077497;10.927236918447912;16.803875674125255;-1.00927734375;0.33837890625;0.3779296875;56.1875;-30.25;18.8125;
1441975758136387;-0.43194580078125;0.38677978515625;0.7392578125;0.3424072265625;15.463307435449325;11.00611761235157;16.815493673240876;-1.072265625;0.46826171875;0.43115234375;64.5625;-35.3125;21.5625;
1441975758158388;-0.4215087890625;0.3955078125;0.7398681640625;0.3441162109375;15.363685400753265;11.083050306311435;16.833944170144758;-1.1357421875;0.5390625;0.46923828125;64.9375;-32.375;23.625;
1441975758180389;-0.4107666015625;0.40521240234375;0.7398681640625;0.3458251953125;15.264257141004668;11.168110441281058;16.854798125025187;-1.17626953125;0.54052734375;0.533203125;58.6875;-26.0;29.0625;
1441975758197390;-0.39849853515625;0.416259765625;0.73974609375;0.3472900390625;15.149579846777996;11.264019965913276;16.87859592668205;-1.2158203125;0.54248046875;0.54736328125;65.9375;-24.4375;33.3125;
1441975758218391;-0.38580322265625;0.42791748046875;0.739990234375;0.34698486328125;15.02263312995763;11.370576536081611;16.916548284307147;-1.236328125;0.60107421875;0.5625;74.0;-27.6875;40.375;
1441975758240393;-0.37451171875;0.439697265625;0.74017333984375;0.34417724609375;14.899854904005172;11.487789887065487;16.976204996420506;-1.16162109375;0.6845703125;0.509765625;70.5;-26.4375;46.5625;
1441975758264394;-0.3643798828125;0.45208740234375;0.74041748046875;0.3385009765625;14.774563466082842;11.619744447293492;17.061009311502804;-1.119140625;0.70703125;0.45703125;61.625;-16.5625;54.1875;
1441975758279395;-0.35491943359375;0.46484375;0.74041748046875;0.33111572265625;14.645913470648644;11.756832572947527;17.156316928335457;-1.0732421875;0.7509765625;0.41552734375;54.5625;-4.75;63.875;
1441975758300396;-0.3447265625;0.47784423828125;0.74078369140625;0.32244873046875;14.498220093422397;11.891119319668809;17.251167920415952;-1.0859375;0.73486328125;0.35595703125;52.375;0.4375;73.6875;
1441975758324397;-0.334716796875;0.49261474609375;0.74041748046875;0.3114013671875;14.337407678773582;12.042948023436567;17.363929097476085;-1.01025390625;0.71826171875;0.3203125;51.0;0.5625;84.1875;
1441975758337398;-0.326904296875;0.5078125;0.73931884765625;0.297607421875;14.178613002361299;12.203743853702958;17.497021187459435;-0.87939453125;0.7275390625;0.29052734375;56.125;14.125;93.625;
1441975758360399;-0.32220458984375;0.5213623046875;0.73846435546875;0.281005859375;14.025879972850209;12.355475785640197;17.644821079187643;-0.79443359375;0.73974609375;0.216796875;49.625;31.8125;98.1875;
1441975758376400;-0.32061767578125;0.53289794921875;0.737060546875;0.264404296875;13.897931635078839;12.49104812852437;17.790065136547025;-0.79296875;0.75390625;0.13671875;29.25;46.375;99.9375;
1441975758398402;-0.32025146484375;0.5435791015625;0.73516845703125;0.24774169921875;13.77565506896711;12.617521444734312;17.931380011646826;-0.8564453125;0.673828125;0.08056640625;17.6875;54.6875;95.125;
1441975758420403;-0.32122802734375;0.55682373046875;0.7305908203125;0.23004150390625;13.651995936765815;12.769974012361043;0.08995932714651525;-0.86083984375;0.607421875;0.12060546875;17.875;62.6875;95.6875;
1441975758436404;-0.32696533203125;0.5667724609375;0.72613525390625;0.21087646484375;13.555858042438278;12.90817164210728;0.26381672879260026;-0.802734375;0.65625;0.03369140625;29.875;78.0;93.375;
1441975758467406;-0.33587646484375;0.57257080078125;0.722900390625;0.1915283203125;13.482914291368123;13.018553799755507;0.4368270578072288;-0.80419921875;0.6650390625;-0.009765625;6.0;97.8125;79.875;
1441975758480406;-0.34759521484375;0.57684326171875;0.71856689453125;0.17327880859375;13.438658718396015;13.126938089532658;0.6140225572895209;-0.9072265625;0.60498046875;-0.04541015625;-14.0625;110.8125;62.25;
1441975758496407;-0.35968017578125;0.58319091796875;0.71099853515625;0.1580810546875;13.409530724693303;13.256270454738985;0.7866362134378345;-1.00439453125;0.47119140625;-0.0478515625;-17.1875;119.375;47.0;
1441975758520409;-0.3704833984375;0.59149169921875;0.70098876953125;0.14642333984375;13.384132616211778;13.397875949635045;0.9423859429055583;-1.04638671875;0.40234375;-0.07275390625;7.5;119.125;36.0;
1441975758540410;-0.3826904296875;0.6019287109375;0.68695068359375;0.1387939453125;13.386106076032762;13.56996079775196;1.0997144771711043;-1.02734375;0.43701171875;-0.0234375;33.1875;110.4375;26.6875;
1441975758556411;-0.39422607421875;0.6129150390625;0.67144775390625;0.13409423828125;13.393556014988338;13.747999851012771;1.2450554986321714;-0.97998046875;0.4267578125;-0.0341796875;62.625;113.3125;6.9375;
1441975758578412;-0.40545654296875;0.6229248046875;0.6552734375;0.1346435546875;13.435929984291322;13.921941332996903;1.3685166180213137;-1.0380859375;0.32421875;-0.10888671875;76.4375;104.0;-0.5625;
1441975758600413;-0.41253662109375;0.63134765625;0.642578125;0.1348876953125;13.447313668059723;14.056312631182546;1.457558150109123;-1.05615234375;0.43505859375;-0.17578125;83.125;84.3125;0.0625;
1441975758616414;-0.42169189453125;0.629638671875;0.6380615234375;0.13604736328125;13.519610588095606;14.108899771931073;1.5240382385749722;-0.94091796875;0.56884765625;-0.158203125;69.8125;62.5;1.875;
1441975758637415;-0.42718505859375;0.62811279296875;0.63323974609375;0.14801025390625;13.663707295003523;14.148592897409568;1.5285597764490984;-0.90869140625;0.32958984375;0.046875;11.5625;50.75;-17.5625;
1441975758660417;-0.43023681640625;0.634033203125;0.6204833984375;0.1668701171875;13.820648447425288;14.257907857261534;1.5262898468481991;-0.8916015625;0.2265625;0.2333984375;50.0;8.3125;-40.4375;
1441975758676418;-0.4345703125;0.63519287109375;0.61151123046875;0.18359375;13.988422484236311;14.332759520395266;1.5276676871565418;-0.638671875;0.37255859375;0.1279296875;113.75;-16.875;-73.4375;
1441975758698419;-0.436767578125;0.6383056640625;0.60308837890625;0.1949462890625;14.087324730307182;14.407137632382922;1.536566358287336;-0.599609375;0.40380859375;0.107421875;83.6875;-9.0;-76.6875;
1441975758720420;-0.4375;0.64410400390625;0.59375;0.20281982421875;14.133787111255138;14.494841373829168;1.555353880323847;-0.55908203125;0.63623046875;0.0810546875;79.6875;2.75;-59.75;
1441975758736421;-0.43853759765625;0.6474609375;0.58953857421875;0.2020263671875;14.114742804794057;14.542000997861916;1.5853486071361302;-0.53076171875;0.69384765625;-0.03515625;82.125;9.5;-41.9375;
1441975758758422;-0.43878173828125;0.6451416015625;0.5928955078125;0.1990966796875;14.101138293231802;14.51166938544679;1.582267263119707;-0.4140625;0.71923828125;-0.17529296875;27.5;18.0;-19.9375;
1441975758780424;-0.4373779296875;0.6412353515625;0.6002197265625;0.1927490234375;14.05626255772676;14.441776896766592;1.5626676577147276;-0.31298828125;0.6728515625;0.01611328125;-16.9375;5.9375;-16.6875;
1441975758796424;-0.4326171875;0.64117431640625;0.60772705078125;0.17999267578125;13.916940238985699;14.374657009040025;1.5461747739164322;-0.228515625;0.5830078125;0.08056640625;-43.0625;3.25;3.375;
1441975758819426;-0.42340087890625;0.64691162109375;0.61199951171875;0.1663818359375;13.718220617396723;14.336006261533216;1.5210891757433187;-0.17236328125;0.56884765625;0.02099609375;-46.125;15.0625;47.0625;
1441975758840427;-0.40997314453125;0.65313720703125;0.618408203125;0.1512451171875;13.480129847765859;14.273943463246313;1.47075242631533;-0.13720703125;0.689453125;-0.05322265625;-12.8125;12.25;70.625;
1441975758856428;-0.39642333984375;0.65643310546875;0.62713623046875;0.13629150390625;13.254755981915036;14.191847328179387;1.4161470733832215;-0.1103515625;0.78173828125;-0.03271484375;-17.0;-0.5625;91.0625;
1441975758879429;-0.37969970703125;0.66033935546875;0.63702392578125;0.117919921875;12.97573926665779;14.102641978472965;1.359387966450478;-0.21533203125;0.7705078125;-0.0302734375;-42.625;-9.25;112.4375;
1441975758900430;-0.35772705078125;0.66754150390625;0.64569091796875;0.0972900390625;12.629015852486363;14.026143845011106;1.2945836494455156;-0.35595703125;0.7431640625;-0.052734375;-50.5;-10.1875;141.875;
1441975758916431;-0.33160400390625;0.67529296875;0.65435791015625;0.0758056640625;12.243920193457015;13.950130511851913;1.2201417869796984;-0.37841796875;0.84375;-0.0732421875;-35.625;-15.9375;176.875;
1441975758939433;-0.30291748046875;0.6812744140625;0.66436767578125;0.05157470703125;11.821616868370967;13.864642253458834;1.1497578089200526;-0.31591796875;0.98193359375;-0.04248046875;-32.3125;-27.6875;195.4375;
1441975758960434;-0.2720947265625;0.6866455078125;0.67364501953125;0.0245361328125;11.359811601979022;13.78534960900561;1.0910897104174355;-0.27880859375;0.97998046875;-0.01025390625;-48.0;-29.5625;214.0625;
1441975758976435;-0.2393798828125;0.69146728515625;0.6815185546875;-0.00323486328125;10.877422185605841;13.714905500126843;1.0376495600302404;-0.26416015625;1.01513671875;-0.02587890625;-52.5;-26.25;232.375;
1441975758999436;-0.20458984375;0.69561767578125;0.6878662109375;-0.03143310546875;10.375416160338283;13.652255004804442;0.9865151411140236;-0.22705078125;1.0673828125;-0.02490234375;-50.1875;-28.625;242.5625;
1441975759030438;-0.16876220703125;0.6981201171875;0.69329833984375;-0.05804443359375;9.879959603814891;13.592271826906584;0.9329014926606592;-0.15673828125;1.10986328125;-0.0810546875;-48.75;-33.1875;252.0;
1441975759066440;-0.13385009765625;0.69830322265625;0.6982421875;-0.08294677734375;9.407590711822523;13.53194163202665;0.8835413545895878;-0.10107421875;1.06982421875;-0.1298828125;-51.0625;-42.0625;248.625;
1441975759068440;-0.1002197265625;0.697509765625;0.70166015625;-0.10516357421875;8.965248957338337;13.480453534622105;0.8351367749101503;-0.10009765625;1.01708984375;-0.0654296875;-55.875;-44.3125;237.6875;
1441975759082441;-0.0689697265625;0.69561767578125;0.70416259765625;-0.124267578125;8.565516117958316;13.434924953612228;0.7884593944720029;-0.13037109375;0.9775390625;-0.07861328125;-51.1875;-48.1875;223.8125;
1441975759112442;-0.04058837890625;0.693603515625;0.70550537109375;-0.139404296875;8.217632392671826;13.400385476417753;0.7398851132898685;-0.1376953125;0.8095703125;-0.05126953125;-49.0;-49.375;202.5;
1441975759120443;-0.0142822265625;0.6944580078125;0.70391845703125;-0.14794921875;7.931514791232466;13.398178150891829;0.6712765113258414;-0.0986328125;0.69970703125;-0.01123046875;-40.25;-53.4375;176.0;
1441975759140444;0.0079345703125;0.698486328125;0.69952392578125;-0.15057373046875;7.720527044496386;13.429307394616211;0.590500125183312;-0.03466796875;0.59423828125;0.0478515625;-12.8125;-73.1875;143.0625;
1441975759156445;0.0230712890625;0.70361328125;0.694580078125;-0.14813232421875;7.60834634682457;13.474083694635835;0.5142834150031543;0.00390625;0.52099609375;0.0048828125;14.6875;-82.0;104.875;
1441975759179446;0.03143310546875;0.7073974609375;0.6922607421875;-0.1390380859375;7.609924565825027;13.508389768544758;0.43859939382981106;-0.052734375;0.51171875;-0.08349609375;20.875;-74.0625;66.875;
1441975759200448;0.034912109375;0.70892333984375;0.693359375;-0.1241455078125;7.702983296069383;13.522437322429516;0.36155673008512185;-0.18505859375;0.515625;-0.07275390625;10.9375;-72.25;20.125;
1441975759218449;0.033447265625;0.7093505859375;0.69622802734375;-0.10467529296875;7.875064535592844;13.52513969015793;0.28762364285223163;-0.26708984375;0.44482421875;-0.02001953125;-5.125;-74.6875;-21.3125;
1441975759246450;0.0269775390625;0.71051025390625;0.698486328125;-0.0806884765625;8.123657113026411;13.532347712530573;0.21582709773516529;-0.2841796875;0.3681640625;0.0078125;-12.5625;-73.0;-61.25;
1441975759263451;0.01776123046875;0.71392822265625;0.6978759765625;-0.05364990234375;8.418003686067527;13.557888644300327;0.14267426025791935;-0.302734375;0.314453125;0.04150390625;-2.375;-72.4375;-99.375;
1441975759278452;0.0042724609375;0.718017578125;0.695556640625;-0.0220947265625;8.784071254037089;13.58970276140436;0.07054373723567395;-0.33984375;0.3427734375;0.05126953125;17.0625;-74.6875;-139.625;
1441975759299453;-0.01361083984375;0.72119140625;0.6923828125;0.01397705078125;9.223580804921951;13.616767942541973;7.945296463919868E-4;-0.3828125;0.408203125;0.07861328125;28.1875;-76.625;-174.375;
1441975759328455;-0.037109375;0.7230224609375;0.687744140625;0.052490234375;9.729402932874804;13.639833505905255;17.94645038998667;-0.3857421875;0.4970703125;0.08837890625;28.75;-77.5625;-210.9375;
1441975759342456;-0.06646728515625;0.72528076171875;0.67901611328125;0.0914306640625;10.288053409258545;13.679484395594475;17.918425993616673;-0.41943359375;0.58154296875;0.123046875;30.125;-65.125;-244.375;
1441975759359457;-0.0982666015625;0.725341796875;0.66876220703125;0.12994384765625;10.866121191695239;13.716876000082191;17.90548356509577;-0.5400390625;0.48828125;0.12646484375;47.125;-42.1875;-270.6875;
1441975759388458;-0.130126953125;0.72418212890625;0.65582275390625;0.1685791015625;11.451225521535031;13.761248752269674;17.897183039038634;-0.71875;0.5302734375;0.03076171875;42.375;-31.5;-278.8125;
1441975759404459;-0.1607666015625;0.72003173828125;0.6419677734375;0.20843505859375;12.044060574557674;13.795378160512117;17.879983871174684;-0.8564453125;0.6044921875;-0.001953125;48.125;-31.0625;-282.125;
1441975759419460;-0.19232177734375;0.7093505859375;0.629638671875;0.25164794921875;12.681528343540002;13.788189417859503;17.842289865344927;-0.9296875;0.73828125;-0.18408203125;40.1875;-44.25;-286.4375;
1441975759440461;-0.2239990234375;0.692626953125;0.6182861328125;0.29620361328125;13.34216351195072;13.736523020495579;17.77895631106738;-0.99267578125;0.716796875;-0.3203125;10.0625;-65.5625;-308.0;
1441975759456462;-0.25604248046875;0.6751708984375;0.60467529296875;0.3359375;13.976061212102561;13.690532455462295;17.731180047419038;-1.0625;0.494140625;-0.12451171875;-12.0625;-78.8125;-317.1875;
1441975759485464;-0.286865234375;0.6588134765625;0.58721923828125;0.37249755859375;14.587287023397428;13.667321199120302;17.695605194559317;-1.171875;0.43701171875;-0.158203125;-12.9375;-57.5;-306.9375;
1441975759500465;-0.31475830078125;0.6412353515625;0.5677490234375;0.4090576171875;15.189430844050648;13.625249543389433;17.629110892021586;-1.33642578125;0.3349609375;-0.25439453125;3.0;-43.3125;-295.5625;
1441975759522466;-0.34136962890625;0.62109375;0.547607421875;0.44464111328125;15.786838307282617;13.53582965020553;17.51912909484697;-1.396484375;0.3271484375;-0.23291015625;12.875;-52.875;-293.125;
1441975759548467;-0.36749267578125;0.5997314453125;0.52685546875;0.47705078125;16.36476016301451;13.39388146580483;17.365098114440293;-1.4365234375;0.31103515625;-0.150390625;8.9375;-57.375;-293.0;
1441975759560468;-0.3916015625;0.57891845703125;0.50445556640625;0.50689697265625;16.913541773123885;13.150727196444914;17.103804678743657;-1.53369140625;0.23388671875;-0.11328125;3.0625;-49.5625;-286.25;
1441975759582469;-0.41131591796875;0.5604248046875;0.478759765625;0.5361328125;17.418869138246315;12.53709111456092;16.44371451651792;-1.61181640625;0.12451171875;-0.09033203125;10.5625;-41.875;-275.0625;
1441975759599470;-0.42462158203125;0.54534912109375;0.44891357421875;0.5662841796875;17.740121333562886;9.554211969916343;13.370281948212252;-1.66064453125;0.060546875;-0.0634765625;39.75;-37.9375;-264.6875;
1441975759620472;-0.434814453125;0.52996826171875;0.41851806640625;0.595703125;17.451012737378605;6.445598134059226;10.162048805496271;-1.68505859375;0.15625;-0.1005859375;84.6875;-39.5;-255.625;
1441975759651473;-0.44635009765625;0.511474609375;0.39111328125;0.62139892578125;17.001878897636292;5.842365431412572;9.489688107853132;-1.67919921875;0.3154296875;-0.154296875;93.4375;-45.9375;-251.5;
1441975759659474;-0.459228515625;0.4908447265625;0.36627197265625;0.64337158203125;16.548715805017185;5.629616189319051;9.2343879381894;-1.5966796875;0.3271484375;-0.17919921875;63.625;-50.5;-246.5;
1441975759680475;-0.4677734375;0.47210693359375;0.34039306640625;0.66510009765625;16.11776958664697;5.558716430805224;9.09870147630855;-1.546875;0.1318359375;-0.11181640625;36.875;-49.75;-236.875;
1441975759702476;-0.47271728515625;0.455078125;0.3143310546875;0.68603515625;15.715715582936365;5.548178367667065;9.007657879135785;-1.4306640625;0.14306640625;-0.083984375;59.5625;-48.4375;-224.375;
1441975759720477;-0.477294921875;0.4373779296875;0.29046630859375;0.70458984375;15.334003722268896;5.556305426383527;8.947655784476488;-1.32958984375;0.26611328125;-0.1162109375;74.375;-47.1875;-212.0625;
1441975759740478;-0.4803466796875;0.41912841796875;0.26763916015625;0.722412109375;14.962817140384205;5.5860821928614905;8.909534149730082;-1.25732421875;0.29345703125;-0.17578125;63.1875;-51.125;-200.9375;
1441975759762480;-0.478759765625;0.4017333984375;0.24462890625;0.74127197265625;14.608683019523252;5.654126900824013;8.887029336085149;-1.21435546875;0.1826171875;-0.1484375;63.625;-56.9375;-192.3125;
1441975759779481;-0.47509765625;0.385009765625;0.22283935546875;0.7591552734375;14.278442107696401;5.731405200945578;8.869710941238017;-1.09765625;0.20947265625;-0.1484375;87.625;-62.625;-181.125;
1441975759801482;-0.4718017578125;0.3690185546875;0.2034912109375;0.7744140625;13.978612358624297;5.796802267170675;8.853344035266714;-0.9453125;0.2666015625;-0.13330078125;91.3125;-63.375;-167.875;
1441975759822483;-0.46771240234375;0.35491943359375;0.18597412109375;0.78778076171875;13.715786100768254;5.858451754140943;8.835641675485157;-0.77099609375;0.251953125;-0.14501953125;78.375;-60.25;-151.1875;
1441975759839484;-0.46026611328125;0.3436279296875;0.1702880859375;0.8006591796875;13.499368119721105;5.937442668935572;8.823118828902617;-0.6435546875;0.15625;-0.12158203125;75.25;-53.25;-131.5;
1441975759861485;-0.452392578125;0.33984375;0.16107177734375;0.80859375;13.40576255839385;6.001488168290018;8.812481291132169;-0.568359375;0.22119140625;-0.14013671875;88.125;-47.875;-108.5625;
1441975759882487;-0.44842529296875;0.33758544921875;0.1558837890625;0.812744140625;13.352042864426428;6.033302331378585;8.804756767186257;-0.55810546875;0.3662109375;-0.2294921875;72.25;-40.875;-86.125;
1441975759900488;-0.4447021484375;0.337646484375;0.1522216796875;0.81549072265625;13.332281061542123;6.0580730462914705;8.79491659976906;-0.55712890625;0.35302734375;-0.25146484375;38.8125;-34.375;-67.125;
1441975759921489;-0.4390869140625;0.34124755859375;0.14971923828125;0.8175048828125;13.358565863503241;6.0890415743568465;8.782727000275445;-0.50244140625;0.365234375;-0.2158203125;31.0625;-21.9375;-51.0625;
1441975759942490;-0.4320068359375;0.348388671875;0.14935302734375;0.81829833984375;13.436835261046209;6.12428724190035;8.772993755548928;-0.43896484375;0.39208984375;-0.20654296875;37.6875;-6.875;-30.6875;
1441975759959491;-0.42083740234375;0.35906982421875;0.151123046875;0.8192138671875;13.568560983813104;6.18652151931872;8.775799935711774;-0.41064453125;0.37890625;-0.25439453125;42.5;3.9375;-6.125;
1441975759981492;-0.40521240234375;0.3763427734375;0.15753173828125;0.818115234375;13.802879876848287;6.274812024464714;8.797461783436658;-0.47216796875;0.310546875;-0.20556640625;60.25;11.9375;21.625;
1441975760002493;-0.396240234375;0.397705078125;0.16943359375;0.8099365234375;14.113234628803443;6.304089203787584;8.813984795340001;-0.50048828125;0.5966796875;-0.23095703125;65.25;29.75;55.4375;
1441975760019494;-0.39239501953125;0.4200439453125;0.18646240234375;0.7967529296875;14.465475674133751;6.294737903048402;8.838885445317795;-0.62451171875;0.62744140625;-0.35009765625;12.6875;47.5;76.8125;
1441975760041496;-0.38555908203125;0.438232421875;0.201416015625;0.78656005859375;14.764528972597578;6.326552928131152;8.887134496350376;-0.8486328125;0.43896484375;-0.2861328125;-30.125;54.625;99.125;
1441975760079498;-0.38037109375;0.4598388671875;0.220947265625;0.7713623046875;15.13459780380303;6.343389116789633;8.946476336878165;-0.79345703125;0.5634765625;-0.302734375;-9.0625;58.0;122.3125;
1441975760082498;-0.37298583984375;0.4876708984375;0.246337890625;0.7498779296875;15.623453430034605;6.381685902962619;9.040225230394283;-0.9287109375;0.55712890625;-0.29736328125;-35.125;76.9375;151.9375;
1441975760102499;-0.36395263671875;0.51751708984375;0.27545166015625;0.7237548828125;16.173782383353306;6.476044960294926;9.201436112326395;-1.40966796875;0.55712890625;-0.3330078125;-46.1875;103.625;203.1875;
1441975760122500;-0.3587646484375;0.5472412109375;0.3125;0.68853759765625;16.7930110437672;6.667978695160618;9.51902239524296;-1.8994140625;0.7109375;-0.244140625;-56.5;126.5625;251.3125;
1441975760139501;-0.357666015625;0.571044921875;0.3638916015625;0.64300537109375;17.414450575634476;7.7109950870036865;10.783462425981773;-2.3017578125;0.6943359375;-0.2587890625;-114.9375;142.375;287.125;
1441975760161502;-0.3402099609375;0.59759521484375;0.41583251953125;0.5950927734375;17.38658760180971;11.976238389115771;15.21329107577005;-2.68505859375;-0.1806640625;-0.14208984375;-208.25;129.4375;337.4375;
1441975760190504;-0.29949951171875;0.63623046875;0.4520263671875;0.54876708984375;16.571597262852876;13.372417037462434;16.61070554116562;-2.8017578125;-0.64013671875;0.2333984375;-149.0625;112.25;403.75;
1441975760205505;-0.2467041015625;0.67926025390625;0.47705078125;0.50006103515625;15.618006114717096;13.817182898124882;16.970946037944422;-2.8857421875;-0.541015625;0.05810546875;16.75;123.25;450.25;
1441975760221506;-0.1998291015625;0.7132568359375;0.50537109375;0.44256591796875;14.64453617232188;14.007518384179837;17.146373295339288;-2.90771484375;0.2041015625;-0.0380859375;102.9375;133.625;472.9375;
1441975760242507;-0.1693115234375;0.72589111328125;0.5501708984375;0.37640380859375;13.712096853083532;13.970367772942279;17.28366918512248;-2.9091796875;0.93505859375;-0.009765625;35.6875;153.625;470.3125;
1441975760259508;-0.15130615234375;0.71240234375;0.61688232421875;0.2982177734375;12.770865747885193;13.720889829753004;17.444794337202943;-3.046875;1.0595703125;-0.09326171875;-145.375;163.3125;445.9375;
1441975760281509;-0.13720703125;0.67864990234375;0.68780517578125;0.21771240234375;11.896722679245922;13.365408428230722;17.628056203682;-3.1435546875;0.74609375;-0.0361328125;-358.875;175.3125;454.8125;
1441975760302511;-0.1219482421875;0.63922119140625;0.74462890625;0.14825439453125;11.178805694918362;13.025842842753706;17.7996391519866;-2.9013671875;0.51806640625;-0.1650390625;-457.5;160.9375;436.9375;
1441975760319512;-0.1021728515625;0.6156005859375;0.77581787109375;0.09246826171875;10.580854384636082;12.83583973338194;17.94734337895593;-2.818359375;-0.13818359375;-0.11865234375;-414.0625;116.5625;374.5625;
1441975760341513;-0.0809326171875;0.6087646484375;0.78765869140625;0.04864501953125;10.076240774798181;12.775986000050441;0.06389173125059636;-2.31640625;-0.5390625;-0.3544921875;-237.75;78.25;321.5;
1441975760363514;-0.0596923828125;0.6153564453125;0.78582763671875;0.011962890625;9.62317441420997;12.81491834295829;0.15762385018230202;-1.7880859375;-0.46044921875;-0.45751953125;-86.75;49.6875;272.1875;
1441975760378515;-0.044921875;0.622802734375;0.7808837890625;-0.014404296875;9.299342142634517;12.86334097923822;0.22531028399772407;-1.5029296875;-0.0283203125;-0.5400390625;24.9375;34.625;242.3125;
1441975760401516;-0.03076171875;0.624755859375;0.7791748046875;-0.0391845703125;8.994132026037269;12.872177953744032;0.28554457601278793;-1.4072265625;0.0537109375;-0.478515625;35.0625;22.6875;196.625;
1441975760425518;-0.0194091796875;0.6265869140625;0.776611328125;-0.06182861328125;8.72867034133795;12.881529244281914;0.3460465368099316;-1.2041015625;0.02734375;-0.3759765625;1.1875;20.4375;182.3125;
1441975760438518;-0.01318359375;0.633544921875;0.76934814453125;-0.0804443359375;8.531652161508067;12.930489356439669;0.40518744849071836;-1.06201171875;-0.05810546875;-0.24462890625;6.9375;26.5625;160.5625;
1441975760461520;-0.0191650390625;0.6448974609375;0.7587890625;-0.0887451171875;8.51016983879566;13.01640071245827;0.460337395334283;-0.94140625;0.09619140625;-0.1181640625;50.8125;34.1875;124.375;
1441975760483521;-0.029541015625;0.65478515625;0.74951171875;-0.09246826171875;8.559442463295179;13.094343399846574;0.5121845847862031;-0.8701171875;0.33544921875;-0.0986328125;80.4375;41.8125;81.6875;
1441975760506522;-0.044677734375;0.66162109375;0.74285888671875;-0.091064453125;8.689713033864848;13.1537042600084;0.5614363832545817;-0.81396484375;0.50830078125;-0.0634765625;73.3125;46.3125;42.1875;
1441975760521523;-0.06512451171875;0.66729736328125;0.737060546875;-0.08428955078125;8.905498997838029;13.210562871704093;0.6096922758727688;-0.76416015625;0.5771484375;-0.0205078125;56.8125;50.4375;-3.5625;
1441975760543524;-0.08648681640625;0.67535400390625;0.72845458984375;-0.07537841796875;9.138619789165297;13.291336924367045;0.6552151973182693;-0.72802734375;0.62890625;0.06591796875;58.8125;54.25;-50.625;
1441975760558525;-0.1143798828125;0.6832275390625;0.7186279296875;-0.06011962890625;9.471783339945127;13.384524995465615;0.7047964529966817;-0.67041015625;0.708984375;0.0556640625;80.875;54.4375;-101.125;
1441975760581527;-0.1470947265625;0.68896484375;0.7086181640625;-0.03851318359375;9.894057797199833;13.478788891110351;0.7548392381001309;-0.64990234375;0.73583984375;0.0458984375;90.9375;58.125;-153.5;
1441975760603528;-0.18389892578125;0.69097900390625;0.698974609375;-0.01025390625;10.40592476256458;13.566753927044223;0.8034111187323556;-0.69677734375;0.91748046875;0.02978515625;88.625;54.4375;-200.4375;
1441975760618529;-0.2227783203125;0.6873779296875;0.69085693359375;0.0228271484375;10.982958947785782;13.635013180118396;0.8490785861119665;-0.763671875;0.98974609375;-0.01904296875;78.25;45.6875;-247.75;
1441975760640530;-0.2633056640625;0.6805419921875;0.68115234375;0.05865478515625;11.60140119256465;13.707597170412036;0.9026832619986863;-0.85400390625;0.8681640625;-0.0693359375;54.625;34.0625;-281.375;
1441975760663531;-0.304931640625;0.67095947265625;0.66876220703125;0.0975341796875;12.26003883436032;13.794395207750403;0.9661475341858449;-0.90380859375;0.8583984375;-0.0556640625;51.875;31.0;-304.5;
1441975760678532;-0.345458984375;0.65625;0.6566162109375;0.1370849609375;12.931829981476323;13.871618346487484;1.0347804221732089;-1.005859375;0.873046875;-0.13525390625;54.875;26.625;-326.875;
1441975760701533;-0.3828125;0.6358642578125;0.6475830078125;0.1722412109375;13.563677541833096;13.918783560114408;1.1081906832967527;-1.23828125;0.85302734375;-0.18505859375;36.0625;16.625;-333.3125;
1441975760723535;-0.4163818359375;0.61376953125;0.63873291015625;0.20458984375;14.154671154101326;13.963880610617412;1.184123082324595;-1.33740234375;0.73828125;-0.1201171875;-2.5625;10.8125;-313.6875;
1441975760738535;-0.44512939453125;0.59356689453125;0.626220703125;0.239501953125;14.733493886089864;14.03900576892551;1.252185406883443;-1.3046875;0.59326171875;-0.10400390625;-12.125;5.25;-294.25;
1441975760761537;-0.4693603515625;0.57525634765625;0.610595703125;0.275634765625;15.29086725590908;14.14980799785113;1.3263709915760136;-1.35791015625;0.50830078125;-0.1435546875;19.125;-11.0625;-287.0;
1441975760783538;-0.4906005859375;0.55670166015625;0.59521484375;0.30828857421875;15.802413671575112;14.285217727715313;1.4310392544000303;-1.36767578125;0.48779296875;-0.17529296875;46.0625;-21.625;-277.4375;
1441975760798539;-0.510009765625;0.5367431640625;0.58148193359375;0.33709716796875;16.275220545471946;14.449171132168953;1.5811200762751283;-1.349609375;0.50634765625;-0.21337890625;39.625;-22.25;-258.5625;
1441975760822540;-0.52630615234375;0.5172119140625;0.56854248046875;0.36358642578125;16.706223391563107;14.67219476330761;1.790550471998919;-1.3408203125;0.37890625;-0.18798828125;21.9375;-23.5;-240.5;
1441975760843542;-0.5382080078125;0.5006103515625;0.5552978515625;0.3890380859375;17.084422351139608;15.02112237667985;2.1080302358246636;-1.31103515625;0.1748046875;-0.14599609375;20.5;-27.6875;-218.9375;
1441975760859542;-0.54583740234375;0.4874267578125;0.542236328125;0.41278076171875;17.394148554343996;15.618212844857533;2.6579794865824917;-1.2275390625;0.046875;-0.1220703125;36.875;-31.5625;-193.9375;
1441975760880544;-0.55072021484375;0.47607421875;0.53131103515625;0.43328857421875;17.619234576336694;16.722263186461166;3.7178201705089147;-1.154296875;0.0205078125;-0.1142578125;51.5;-33.5;-166.25;
1441975760910545;-0.55462646484375;0.4649658203125;0.5240478515625;0.4488525390625;17.71988882444513;0.6241694796115762;5.597149133617613;-1.103515625;0.05712890625;-0.13037109375;47.875;-36.125;-139.0;
1441975760919546;-0.558349609375;0.45452880859375;0.5196533203125;0.4599609375;17.683328007532136;2.414971860743031;7.384116299694487;-1.06884765625;0.0322265625;-0.12841796875;25.375;-36.5;-112.0;
1441975760940547;-0.55914306640625;0.4462890625;0.5166015625;0.4703369140625;17.603933409873765;3.4956210049377803;8.45223875899701;-1.0771484375;-0.10791015625;-0.11962890625;6.125;-37.0625;-83.25;
1441975760963548;-0.55615234375;0.4422607421875;0.514404296875;0.48004150390625;17.54363521670235;4.144480831308676;9.069936588042964;-1.02880859375;-0.16748046875;-0.07080078125;14.25;-39.75;-60.1875;
1441975760980549;-0.55047607421875;0.44207763671875;0.51312255859375;0.48809814453125;17.519585049648253;4.605312515600045;9.488163522587588;-1.001953125;-0.1162109375;-0.05615234375;33.125;-40.8125;-37.6875;
1441975761001551;-0.54339599609375;0.44403076171875;0.513427734375;0.49383544921875;17.52886527802671;5.027555292667698;9.868846467340328;-1.0224609375;-0.0419921875;-0.078125;44.25;-39.3125;-16.5;
1441975761023552;-0.53570556640625;0.44696044921875;0.51580810546875;0.49713134765625;17.562552497735748;5.514291158497755;10.322412466620918;-1.0244140625;0.021484375;-0.09619140625;43.5625;-38.6875;0.75;
1441975761040553;-0.52838134765625;0.4498291015625;0.52032470703125;0.4976806640625;17.606723196845607;6.127041213155139;10.917248364677787;-0.99267578125;0.06494140625;-0.0947265625;34.8125;-38.5625;15.8125;
1441975761068554;-0.52178955078125;0.45220947265625;0.5263671875;0.49603271484375;17.64289373076318;6.904909768533887;11.691421124192024;-0.970703125;0.11083984375;-0.08203125;20.0;-37.125;27.0625;
1441975761083555;-0.51605224609375;0.4541015625;0.53338623046875;0.49285888671875;17.655913463973583;7.807890154845181;12.601739720652777;-0.97705078125;0.1396484375;-0.06494140625;4.9375;-34.625;33.625;
1441975761099556;-0.5108642578125;0.45562744140625;0.54046630859375;0.4891357421875;17.63764040279674;8.67010803731078;13.475708415157504;-0.96142578125;0.1611328125;-0.0517578125;-6.25;-32.1875;37.0625;
1441975761121557;-0.50579833984375;0.45703125;0.54742431640625;0.48541259765625;17.59168756703047;9.376795665492006;14.19451663678709;-0.9521484375;0.15625;-0.0458984375;-10.625;-30.1875;38.0;
1441975761143559;-0.50042724609375;0.45904541015625;0.55389404296875;0.481689453125;17.529376164561818;9.939400435782357;14.76525615571706;-0.9345703125;0.1376953125;-0.01123046875;-11.125;-28.0;39.125;
1441975761159560;-0.49481201171875;0.461669921875;0.55950927734375;0.47845458984375;17.458197182968068;10.358956838408277;15.18665976224615;-0.89404296875;0.150390625;-0.00146484375;-7.4375;-25.125;40.8125;
1441975761180561;-0.48931884765625;0.46453857421875;0.5643310546875;0.4755859375;17.385299843233938;10.668156787148758;15.494046706493805;-0.8818359375;0.17333984375;0.00830078125;-1.0625;-23.1875;38.4375;
1441975761203562;-0.48455810546875;0.46722412109375;0.56842041015625;0.47308349609375;17.31841979313407;10.88840418865042;15.71192546381769;-0.876953125;0.1982421875;-9.765625E-4;2.1875;-21.125;34.75;
1441975761221563;-0.48040771484375;0.4693603515625;0.5716552734375;0.47119140625;17.259935494543104;11.03236728454971;15.852673336022804;-0.88623046875;0.19580078125;-4.8828125E-4;2.375;-18.6875;30.25;
1441975761240564;-0.47625732421875;0.4718017578125;0.57379150390625;0.47039794921875;17.208957393035302;11.136297713349858;15.946162358128047;-0.908203125;0.1923828125;0.01416015625;3.375;-17.0;23.875;
1441975761263566;-0.47222900390625;0.474853515625;0.5745849609375;0.470458984375;17.169119186502044;11.227082162060304;16.018759471129368;-0.88916015625;0.208984375;0.037109375;10.0;-14.5625;17.5625;
1441975761285567;-0.46856689453125;0.478271484375;0.57427978515625;0.47100830078125;17.140576011686495;11.312065743520703;16.080976944858435;-0.85888671875;0.240234375;0.05078125;17.3125;-10.0625;10.5625;
1441975761301568;-0.4659423828125;0.481201171875;0.5731201171875;0.47198486328125;17.1274608986357;11.372330050987808;16.11915241524482;-0.82177734375;0.29638671875;0.05810546875;21.6875;-5.25;2.0625;
1441975761330569;-0.46466064453125;0.48309326171875;0.57135009765625;0.4735107421875;17.13117439343669;11.39251502534433;16.120720948229806;-0.80712890625;0.314453125;0.056640625;20.9375;-2.25;-6.875;
1441975761346570;-0.46466064453125;0.48382568359375;0.5692138671875;0.475341796875;17.149234587957622;11.374619510613726;16.089286064525442;-0.83544921875;0.291015625;0.05126953125;16.6875;-0.9375;-14.9375;
1441975761361571;-0.4654541015625;0.48388671875;0.56689453125;0.47723388671875;17.175531973687303;11.335297236318633;16.03993194347504;-0.85205078125;0.2353515625;0.05517578125;12.0;0.3125;-19.375;
1441975761383572;-0.46710205078125;0.48370361328125;0.56402587890625;0.47930908203125;17.213222478059205;11.28198424150303;15.977617319477483;-0.83984375;0.19970703125;0.06298828125;8.5;2.3125;-22.5625;
1441975761399573;-0.4688720703125;0.483642578125;0.560791015625;0.4813232421875;17.25439821073011;11.229381191573191;15.915159162598869;-0.88427734375;0.15185546875;0.0634765625;7.75;5.1875;-24.1875;
1441975761429575;-0.469970703125;0.48382568359375;0.55792236328125;0.4833984375;17.28684082658326;11.17682857547622;15.851003992314723;-0.92041015625;0.09423828125;0.046875;8.9375;5.75;-21.125;
1441975761443576;-0.47015380859375;0.484619140625;0.55517578125;0.48565673828125;17.310607014964347;11.136027958080687;15.79405245106937;-0.92724609375;0.06298828125;0.04345703125;11.125;3.25;-16.0;
1441975761465577;-0.46917724609375;0.4862060546875;0.552490234375;0.488037109375;17.32435607387087;11.118991035748786;15.755104443533684;-0.94482421875;0.0361328125;0.0390625;15.625;0.75;-10.3125;
1441975761480578;-0.4666748046875;0.489013671875;0.5499267578125;0.490478515625;17.32489638003218;11.146345205192516;15.752851508382449;-0.962890625;-0.00244140625;0.044921875;21.9375;-0.875;-2.5625;
1441975761503579;-0.462890625;0.49285888671875;0.54779052734375;0.49261474609375;17.311625257218456;11.22206330493654;15.794412790414421;-0.95703125;-0.0244140625;0.0546875;29.875;-2.125;6.8125;
1441975761534581;-0.45782470703125;0.49755859375;0.54656982421875;0.4940185546875;17.279852023383494;11.345819410008943;15.882612108655238;-0.93798828125;-0.02197265625;0.06005859375;34.875;-3.0;15.125;
1441975761540581;-0.4522705078125;0.5025634765625;0.5462646484375;0.49432373046875;17.23484461474082;11.498127824907744;16.002859680947704;-0.89501953125;0.02490234375;0.07421875;36.625;-3.3125;22.75;
1441975761563583;-0.446533203125;0.50738525390625;0.547119140625;0.49365234375;17.176642103251275;11.649330439026857;16.128117019478246;-0.869140625;0.07177734375;0.07763671875;33.0625;-3.3125;28.4375;
1441975761585584;-0.4405517578125;0.51239013671875;0.54840087890625;0.49249267578125;17.110439144869115;11.79554611813245;16.24976940076627;-0.859375;0.10107421875;0.09521484375;27.25;-3.125;33.3125;
1441975761600585;-0.43426513671875;0.51739501953125;0.550048828125;0.49102783203125;17.036642585827224;11.926110972562546;16.356795744557008;-0.845703125;0.12744140625;0.09130859375;25.875;-3.375;36.1875;
1441975761623586;-0.42828369140625;0.52197265625;0.55230712890625;0.48883056640625;16.958298693123183;12.04152215314107;16.454602622873452;-0.82861328125;0.17333984375;0.099609375;24.8125;-3.75;36.5;
1441975761645587;-0.423828125;0.52545166015625;0.555419921875;0.4854736328125;16.88379441021752;12.14054233547561;16.549353330825465;-0.81689453125;0.23876953125;0.10546875;18.6875;-2.625;35.125;
1441975761661588;-0.4210205078125;0.52703857421875;0.55963134765625;0.48138427734375;16.81536306538144;12.201512364001907;16.62152253321793;-0.8115234375;0.2646484375;0.08984375;5.3125;-1.0625;32.6875;
1441975761683590;-0.41943359375;0.52734375;0.56439208984375;0.476806640625;16.75356937680255;12.240296468161297;16.68172034262383;-0.79541015625;0.24658203125;0.10205078125;-9.9375;-0.3125;30.375;
1441975761705591;-0.41900634765625;0.527099609375;0.5687255859375;0.47235107421875;16.70550756516674;12.271203281982471;16.737415389157825;-0.787109375;0.23486328125;0.11376953125;-20.0;0.6875;28.1875;
1441975761722592;-0.41912841796875;0.5264892578125;0.572509765625;0.4683837890625;16.667992161649977;12.292074808155839;16.78274468977305;-0.8466796875;0.2001953125;0.0986328125;-23.375;2.125;24.875;
1441975761743593;-0.4193115234375;0.5257568359375;0.57598876953125;0.4647216796875;16.63428929555312;12.307238282854781;16.82115055482603;-0.908203125;0.1494140625;0.087890625;-22.875;1.75;24.75;
1441975761765594;-0.4195556640625;0.52490234375;0.57916259765625;0.46148681640625;16.6049076584146;12.315661074635404;16.851245869401694;-0.96875;0.12060546875;0.08251953125;-21.75;0.25;25.25;
1441975761782595;-0.4195556640625;0.52398681640625;0.58233642578125;0.45855712890625;16.57476349983736;12.316951788417187;16.872813095009324;-1.0244140625;0.083984375;0.07080078125;-20.4375;-1.4375;26.5;
1441975761803596;-0.41888427734375;0.52337646484375;0.585693359375;0.45550537109375;16.53673308613343;12.319907104626305;16.89412987548958;-1.0234375;0.03759765625;0.07958984375;-18.5625;-2.8125;29.75;
1441975761827598;-0.41754150390625;0.523193359375;0.5894775390625;0.45208740234375;16.487960277272514;12.327539038715535;16.919266546222335;-0.9755859375;0.01220703125;0.09814453125;-16.4375;-3.0625;34.4375;
1441975761842599;-0.4154052734375;0.5235595703125;0.59368896484375;0.44805908203125;16.426174134562412;12.343400646439617;16.951792769282292;-0.92138671875;0.0166015625;0.11376953125;-14.5625;-2.8125;39.375;
1441975761863600;-0.41314697265625;0.5244140625;0.59783935546875;0.443603515625;16.360815939137584;12.369376793470162;16.993759633570594;-0.89697265625;0.0537109375;0.12158203125;-13.9375;-2.625;43.625;
1441975761879601;-0.41119384765625;0.52520751953125;0.6016845703125;0.43927001953125;16.300375517531517;12.39398685518072;17.034205030171915;-0.9150390625;0.09619140625;0.1015625;-13.125;-2.3125;44.9375;
1441975761902602;-0.40924072265625;0.52581787109375;0.60552978515625;0.43505859375;16.24072461024151;12.412603786091449;17.06886326106333;-0.98291015625;0.11181640625;0.07958984375;-13.9375;-2.9375;43.5625;
1441975761923603;-0.40716552734375;0.5264892578125;0.60906982421875;0.43133544921875;16.183817822276637;12.426940512935264;17.096424071384362;-1.01416015625;0.1181640625;0.08056640625;-13.8125;-4.1875;43.5;
1441975761939604;-0.4049072265625;0.52752685546875;0.611572265625;0.42852783203125;16.134880599410888;12.44206410308245;17.117523874944627;-1.009765625;0.1279296875;0.091796875;-10.75;-4.5;41.8125;
1441975761962606;-0.4022216796875;0.52899169921875;0.61346435546875;0.42657470703125;16.088843184033024;12.4559334211729;17.130621022771745;-1.0087890625;0.123046875;0.0986328125;-4.0;-4.375;38.1875;
1441975761983607;-0.39935302734375;0.5306396484375;0.614990234375;0.425048828125;16.04496452661514;12.469207900786841;17.139747241022114;-0.98388671875;0.1328125;0.123046875;3.0;-4.1875;35.0;
1441975762006608;-0.39703369140625;0.531982421875;0.6163330078125;0.42352294921875;16.00745960196239;12.481620943538147;17.149953667654863;-0.94189453125;0.16015625;0.146484375;6.3125;-3.125;31.8125;
1441975762022609;-0.395751953125;0.53289794921875;0.6171875;0.42242431640625;15.984427691345537;12.491887211073728;17.1595620262333;-0.92431640625;0.19189453125;0.15966796875;4.9375;-0.625;26.875;
1441975762043610;-0.395263671875;0.53326416015625;0.6177978515625;0.4215087890625;15.97160434585339;12.498444683912965;17.168109009179048;-0.947265625;0.189453125;0.15380859375;2.9375;1.5;20.9375;
1441975762067612;-0.3956298828125;0.53314208984375;0.6181640625;0.4207763671875;15.9693396625614;12.502399055004773;17.176690507900087;-0.95263671875;0.19287109375;0.158203125;0.4375;3.0625;16.0;
1441975762083612;-0.39678955078125;0.53265380859375;0.61810302734375;0.42034912109375;15.978494484288438;12.505200205425348;17.18533412163555;-0.94091796875;0.18798828125;0.16064453125;-1.875;4.875;11.3125;
1441975762103614;-0.3984375;0.53173828125;0.61773681640625;0.4205322265625;15.997405476724198;12.501501600937143;17.187441944103785;-0.94384765625;0.18212890625;0.14697265625;-3.375;6.375;6.0625;
1441975762125615;-0.40008544921875;0.53076171875;0.61712646484375;0.42108154296875;16.0196382869985;12.495401522769574;17.185542100022786;-0.94287109375;0.15478515625;0.140625;-3.9375;5.5;2.5625;
1441975762142616;-0.40191650390625;0.5296630859375;0.61614990234375;0.42218017578125;16.048412818997857;12.485897178385741;17.178437900899826;-0.93408203125;0.16552734375;0.1396484375;-2.375;4.625;-0.875;
1441975762163617;-0.4039306640625;0.52838134765625;0.61474609375;0.423828125;16.08423824938346;12.472370926368264;17.165525257511103;-0.94189453125;0.1796875;0.12109375;-1.625;3.25;-5.3125;
1441975762179618;-0.40582275390625;0.52685546875;0.61309814453125;0.42633056640625;16.124947639235852;12.448173615478312;17.139082954473928;-0.95849609375;0.1875;0.10205078125;-0.75;1.1875;-10.1875;
1441975762202619;-0.407470703125;0.52545166015625;0.61090087890625;0.42962646484375;16.170067463385013;12.419282774540214;17.10298166841888;-0.962890625;0.18310546875;0.11181640625;1.5;-1.25;-13.9375;
1441975762223620;-0.40899658203125;0.52447509765625;0.60791015625;0.43359375;16.22075555111628;12.392434347977467;17.063077773109068;-0.9404296875;0.17431640625;0.12255859375;6.375;-1.875;-17.625;
1441975762246622;-0.410400390625;0.523681640625;0.60443115234375;0.4381103515625;16.2751422824539;12.363066368255588;17.016773601293572;-0.93701171875;0.18310546875;0.1201171875;12.125;-1.625;-21.75;
1441975762262623;-0.411865234375;0.5224609375;0.6009521484375;0.44293212890625;16.331913157835515;12.321900917375245;16.95923174637017;-0.94580078125;0.1904296875;0.12060546875;15.5;-2.3125;-25.25;
1441975762283624;-0.41363525390625;0.52105712890625;0.597412109375;0.44775390625;16.39150368450563;12.276175394794253;16.898385970041748;-0.951171875;0.193359375;0.12646484375;14.625;-3.25;-28.0625;
1441975762305625;-0.41558837890625;0.5194091796875;0.59368896484375;0.45269775390625;16.454202395131155;12.222989584098674;16.83046282213949;-0.94677734375;0.185546875;0.115234375;13.1875;-3.5625;-30.0;
1441975762329627;-0.41748046875;0.51776123046875;0.58990478515625;0.457763671875;16.516493549553033;12.163278421624671;16.755330328639637;-0.9560546875;0.17431640625;0.1123046875;12.6875;-3.6875;-31.75;
1441975762343627;-0.4193115234375;0.51617431640625;0.5860595703125;0.46282958984375;16.577714957818337;12.098941925401794;16.675068648520316;-0.96044921875;0.1650390625;0.109375;13.25;-4.125;-32.625;
1441975762365629;-0.42095947265625;0.5147705078125;0.58221435546875;0.4677734375;16.635781381936226;12.03266566894818;16.592188865515524;-0.96142578125;0.1630859375;0.10693359375;13.625;-4.375;-32.875;
1441975762382630;-0.422607421875;0.5133056640625;0.578369140625;0.47259521484375;16.692614969092503;11.960632232482237;16.504105294754062;-0.958984375;0.1689453125;0.10009765625;14.0;-4.625;-32.875;
1441975762403631;-0.42413330078125;0.511962890625;0.57464599609375;0.47723388671875;16.745850386280743;11.885837134461838;16.41345485487495;-0.9677734375;0.16552734375;0.09619140625;13.875;-4.6875;-32.875;
1441975762427632;-0.42547607421875;0.51055908203125;0.5711669921875;0.48162841796875;16.794153179982672;11.805153980869148;16.317989902020326;-0.97802734375;0.1640625;0.09716796875;13.375;-4.75;-32.0625;
1441975762442633;-0.4267578125;0.50933837890625;0.56793212890625;0.485595703125;16.837971688176513;11.727684400524936;16.226981341696476;-0.96630859375;0.1611328125;0.10009765625;12.5625;-4.875;-30.5;
1441975762463634;-0.42791748046875;0.50830078125;0.56488037109375;0.4892578125;16.87771164263642;11.652627909221286;16.138923333081376;-0.97509765625;0.16650390625;0.09765625;11.25;-4.25;-29.0625;
1441975762485635;-0.42901611328125;0.50732421875;0.56201171875;0.49261474609375;16.914139347816963;11.578388598722965;16.05274442965268;-0.97900390625;0.16845703125;0.0966796875;10.6875;-3.625;-27.375;
1441975762502636;-0.4300537109375;0.50640869140625;0.55950927734375;0.49554443359375;16.945873595485008;11.507681645301068;15.972035768385565;-0.97607421875;0.15673828125;0.09375;9.9375;-3.5625;-25.125;
1441975762523638;-0.430908203125;0.505615234375;0.55731201171875;0.49798583984375;16.972485493936905;11.444822940284745;15.900579974480792;-0.97119140625;0.14013671875;0.0927734375;8.5625;-3.1875;-21.9375;
1441975762545639;-0.431396484375;0.50518798828125;0.55560302734375;0.5;16.991400416005945;11.39574449084488;15.843435459248816;-0.97119140625;0.125;0.0947265625;7.375;-2.8125;-17.9375;
1441975762562640;-0.431640625;0.50506591796875;0.55419921875;0.50140380859375;17.005208265111776;11.365238937179862;15.80591266619905;-0.96923828125;0.12451171875;0.10302734375;6.875;-2.0625;-13.5625;
1441975762583641;-0.431640625;0.50518798828125;0.55328369140625;0.50225830078125;17.012796340800655;11.351365591942962;15.786600582063711;-0.97021484375;0.1201171875;0.10107421875;6.1875;-1.25;-9.3125;
1441975762605642;-0.43133544921875;0.50555419921875;0.55291748046875;0.50250244140625;17.01324197797179;11.356118547743177;15.787665968747495;-0.9775390625;0.119140625;0.1044921875;5.1875;-0.625;-4.5625;
1441975762621643;-0.4307861328125;0.50634765625;0.552978515625;0.502197265625;17.008060743391376;11.382898428370192;15.811637822333042;-0.970703125;0.11474609375;0.107421875;3.75;-0.1875;0.25;
1441975762643644;-0.4300537109375;0.50714111328125;0.55352783203125;0.50140380859375;16.9971173945138;11.418915443758543;15.847121738830378;-0.9580078125;0.123046875;0.10009765625;2.9375;0.3125;4.6875;
1441975762665646;-0.42901611328125;0.5081787109375;0.554443359375;0.500244140625;16.980280990452915;11.46688760734929;15.895085103746219;-0.95361328125;0.1171875;0.1083984375;1.125;0.625;8.875;
1441975762681647;-0.42767333984375;0.50946044921875;0.5556640625;0.49871826171875;16.957795413535194;11.525610177265586;15.954145612139758;-0.95458984375;0.1162109375;0.107421875;0.8125;0.4375;12.9375;
1441975762712648;-0.4261474609375;0.51092529296875;0.55718994140625;0.496826171875;16.93047224227444;11.592172501724912;16.021921863101745;-0.97119140625;0.11767578125;0.10302734375;0.5625;0.0625;16.4375;
1441975762725649;-0.42449951171875;0.512451171875;0.55889892578125;0.4947509765625;16.89986325056301;11.659385088010517;16.090873746225956;-0.97412109375;0.134765625;0.103515625;0.0625;0.25;19.125;
1441975762741650;-0.42279052734375;0.513916015625;0.56072998046875;0.49261474609375;16.86717618516946;11.72205034184898;16.155804225213792;-0.97900390625;0.1376953125;0.1064453125;-0.5625;0.375;20.875;
1441975762764651;-0.4207763671875;0.5155029296875;0.5626220703125;0.490478515625;16.830816037433472;11.782777410194136;16.2177392808368;-0.97705078125;0.13037109375;0.115234375;-0.8125;0.5625;22.625;
1441975762793653;-0.41876220703125;0.5172119140625;0.56451416015625;0.48822021484375;16.793572696891943;11.844411506095254;16.280582185435332;-0.9580078125;0.13037109375;0.12744140625;0.25;0.875;24.375;
1441975762801654;-0.41680908203125;0.51898193359375;0.56640625;0.48583984375;16.755959639235318;11.905717710748903;16.343449789168755;-0.95947265625;0.1240234375;0.12158203125;0.8125;1.0;25.875;
1441975762824655;-0.41485595703125;0.52069091796875;0.56842041015625;0.48333740234375;16.716690137249504;11.96347914196291;16.403651571256674;-0.96435546875;0.12646484375;0.11181640625;0.3125;1.125;27.0;
1441975762845656;-0.4129638671875;0.52227783203125;0.5704345703125;0.4808349609375;16.677598595938715;12.015662344627023;16.458803250819166;-0.9638671875;0.12255859375;0.11328125;-0.6875;1.0625;27.6875;
1441975762861657;-0.4110107421875;0.52392578125;0.572509765625;0.478271484375;16.63686112440087;12.066199726620805;16.512311512573298;-0.96044921875;0.1259765625;0.1142578125;-1.0625;1.0625;28.125;
1441975762885658;-0.40899658203125;0.52569580078125;0.57421875;0.4759521484375;16.598301929480172;12.114380376885025;16.561173648652847;-0.95654296875;0.14111328125;0.11572265625;-0.75;1.0625;28.0625;
1441975762905659;-0.4071044921875;0.52734375;0.5758056640625;0.473876953125;16.56221532353135;12.155690636013219;16.60281674060781;-0.96044921875;0.15185546875;0.10400390625;1.0625;0.8125;26.5;
1441975762921660;-0.40521240234375;0.52874755859375;0.5772705078125;0.47210693359375;16.528120892067115;12.18759935145667;16.634527997685172;-0.962890625;0.1611328125;0.10498046875;1.4375;0.1875;24.625;
1441975762944662;-0.40350341796875;0.53009033203125;0.5784912109375;0.47064208984375;16.498190658159935;12.215275894081977;16.661130040066478;-0.953125;0.16650390625;0.11376953125;1.625;-0.1875;22.75;
1441975762965663;-0.4019775390625;0.5313720703125;0.5792236328125;0.46954345703125;16.474361136390424;12.24000573941099;16.68302059217478;-0.939453125;0.17529296875;0.11376953125;2.375;-0.25;20.0;
1441975762982664;-0.40081787109375;0.53240966796875;0.57958984375;0.4688720703125;16.457926775313886;12.258464647221485;16.698114665933975;-0.93408203125;0.18408203125;0.10498046875;3.625;-0.25;16.375;
1441975763004665;-0.4000244140625;0.533203125;0.5797119140625;0.4686279296875;16.448116713910654;12.27029986903496;16.706416998644208;-0.93896484375;0.18310546875;0.099609375;4.25;-0.4375;12.5625;
1441975763025666;-0.3995361328125;0.53369140625;0.57952880859375;0.4686279296875;16.444350936210075;12.277312479914785;16.710070728461194;-0.951171875;0.1904296875;0.10498046875;4.0625;-0.5625;8.6875;
1441975763041667;-0.39959716796875;0.53387451171875;0.57891845703125;0.4691162109375;16.450359132856708;12.278192036626736;16.70742524389903;-0.943359375;0.197265625;0.099609375;3.6875;-0.375;4.75;
1441975763064669;-0.4000244140625;0.5338134765625;0.5780029296875;0.469970703125;16.463241056823435;12.273902775596556;16.699441864821026;-0.94677734375;0.18505859375;0.1005859375;3.5;-0.125;0.6875;
1441975763085670;-0.4007568359375;0.5335693359375;0.57672119140625;0.47119140625;16.4827698688898;12.265377372140607;16.686522809235022;-0.951171875;0.1796875;0.1015625;3.75;0.1875;-2.625;
1441975763101671;-0.401611328125;0.5333251953125;0.5751953125;0.47265625;16.50579790047459;12.25539533644779;16.671096234116888;-0.96435546875;0.16650390625;0.1025390625;4.6875;0.5;-5.75;
1441975763124672;-0.40277099609375;0.53289794921875;0.57354736328125;0.47412109375;16.53251735351596;12.243949007274383;16.65526620807074;-0.96484375;0.169921875;0.10107421875;4.875;0.8125;-7.9375;
1441975763145673;-0.40411376953125;0.5323486328125;0.5718994140625;0.4755859375;16.560953371918835;12.230636345080221;16.638456350555046;-0.95556640625;0.16943359375;0.09375;4.1875;1.25;-9.8125;
1441975763161674;-0.40576171875;0.5316162109375;0.570068359375;0.4771728515625;16.593889245612612;12.214208090947668;16.619064540011678;-0.95751953125;0.17529296875;0.09814453125;3.125;1.5625;-11.75;
1441975763184675;-0.40765380859375;0.53057861328125;0.5682373046875;0.4788818359375;16.629731355907005;12.190683064918021;16.593813672046785;-0.9716796875;0.16943359375;0.08740234375;2.4375;1.4375;-13.625;
1441975763205677;-0.40948486328125;0.529541015625;0.5665283203125;0.48046875;16.663727783554823;12.166672274260591;16.56860339512923;-0.97119140625;0.15869140625;0.091796875;1.125;1.625;-14.8125;
1441975763221678;-0.411376953125;0.528564453125;0.56463623046875;0.48223876953125;16.699871109015486;12.141083232729196;16.54076602623689;-0.9599609375;0.1669921875;0.0986328125;0.625;1.875;-15.4375;
1441975763244679;-0.41326904296875;0.52764892578125;0.56256103515625;0.4840087890625;16.737096404169037;12.116355769786233;16.513082176383293;-0.97216796875;0.1640625;0.09423828125;1.875;2.0;-16.625;
1441975763265680;-0.41510009765625;0.52655029296875;0.5606689453125;0.4857177734375;16.77250549866678;12.086038450479379;16.480859071494375;-0.97216796875;0.16064453125;0.08349609375;2.0625;1.625;-17.1875;
1441975763281681;-0.4169921875;0.52545166015625;0.55889892578125;0.4874267578125;16.807396254563255;12.05329428701815;16.44674739287893;-0.96728515625;0.16748046875;0.083984375;1.0625;1.3125;-17.75;
1441975763304682;-0.4188232421875;0.52435302734375;0.55706787109375;0.4891357421875;16.842043151846454;12.018730418490629;16.41045896066748;-0.9638671875;0.15966796875;0.09423828125;0.75;1.8125;-17.5625;
1441975763325683;-0.42047119140625;0.52337646484375;0.55523681640625;0.4908447265625;16.874805903220633;11.984002335507283;16.373125656200887;-0.96728515625;0.14697265625;0.09716796875;1.0625;1.9375;-17.125;
1441975763349685;-0.4219970703125;0.5225830078125;0.55352783203125;0.4923095703125;16.90465906686659;11.954734247366181;16.34142597724823;-0.96630859375;0.1396484375;0.09716796875;1.875;1.8125;-16.0625;
1441975763364686;-0.42340087890625;0.52178955078125;0.55206298828125;0.49359130859375;16.931144203706598;11.925521217106978;16.31065697138835;-0.97265625;0.14453125;0.091796875;1.9375;1.6875;-14.6875;
1441975763385687;-0.42462158203125;0.52093505859375;0.551025390625;0.49456787109375;16.952213412252878;11.896468064909392;16.28179697883654;-0.97265625;0.138671875;0.0849609375;1.0;1.375;-12.9375;
1441975763401688;-0.42572021484375;0.52020263671875;0.55010986328125;0.49542236328125;16.970856266000872;11.870572695711605;16.256094710344524;-0.9677734375;0.13671875;0.09375;-0.5;1.0;-11.0;
1441975763430689;-0.42645263671875;0.51971435546875;0.54937744140625;0.49615478515625;16.984476257783154;11.85006536462071;16.234899363814918;-0.96923828125;0.1279296875;0.09375;-0.5;0.8125;-8.875;
1441975763445690;-0.42694091796875;0.51947021484375;0.548828125;0.49652099609375;16.99365641085536;11.840992303212973;16.225303315742092;-0.97021484375;0.13330078125;0.09521484375;0.3125;0.75;-7.0625;
1441975763462691;-0.4273681640625;0.51934814453125;0.54852294921875;0.49664306640625;16.999890841710325;11.838386801821109;16.2230558904797;-0.96826171875;0.146484375;0.09033203125;0.375;0.625;-5.0625;
1441975763484693;-0.42767333984375;0.5191650390625;0.54852294921875;0.49658203125;17.00251855201257;11.836109393395105;16.222361424100992;-0.96875;0.1513671875;0.08349609375;-0.75;0.5;-3.375;
1441975763505694;-0.427734375;0.5191650390625;0.54852294921875;0.49658203125;17.003032654071923;11.836281286548147;16.222712287188177;-0.96142578125;0.146484375;0.087890625;-1.625;0.5;-1.75;
1441975763521695;-0.427734375;0.51934814453125;0.54864501953125;0.4962158203125;17.001206917256937;11.847887880507127;16.235192860263783;-0.95751953125;0.14306640625;0.08154296875;-0.9375;0.625;-0.0625;
1441975763544696;-0.427734375;0.51953125;0.54901123046875;0.49566650390625;16.99717153381171;11.861913296789142;16.25132419741569;-0.9609375;0.14306640625;0.0869140625;-1.0625;0.75;1.5625;
1441975763565697;-0.427734375;0.5196533203125;0.549560546875;0.494873046875;16.99130077587392;11.878417734090231;16.271332008060256;-0.9599609375;0.146484375;0.08740234375;-1.9375;0.8125;3.125;
1441975763581698;-0.4278564453125;0.51971435546875;0.55029296875;0.493896484375;16.984730749451508;11.896367992233913;16.294368999758806;-0.96484375;0.13818359375;0.08203125;-3.1875;0.6875;4.625;
1441975763604699;-0.4278564453125;0.51983642578125;0.5511474609375;0.4927978515625;16.97583810180487;11.916846424949968;16.320107206070222;-0.966796875;0.130859375;0.078125;-4.6875;0.6875;6.0625;
1441975763625701;-0.427734375;0.52008056640625;0.5521240234375;0.4915771484375;16.96452154308115;11.941054104215596;16.349575466828966;-0.9677734375;0.12744140625;0.08154296875;-5.25;0.875;7.6875;
1441975763649702;-0.4273681640625;0.5205078125;0.5531005859375;0.49029541015625;16.950681981117164;11.969213579901925;16.38193756472066;-0.97265625;0.12841796875;0.09423828125;-4.4375;1.5;8.9375;
1441975763664703;-0.42718505859375;0.52099609375;0.55419921875;0.48876953125;16.936664785079348;12.002675932391341;16.421013505949414;-0.9765625;0.14697265625;0.0966796875;-3.4375;1.875;9.6875;
1441975763687704;-0.42724609375;0.5211181640625;0.555419921875;0.4871826171875;16.924030468278655;12.028357636488447;16.45459032274523;-0.98193359375;0.15625;0.08642578125;-5.0;2.25;9.875;
1441975763701705;-0.4273681640625;0.52117919921875;0.55670166015625;0.48553466796875;16.911284761747368;12.052998819065943;16.487830907995203;-0.9775390625;0.14111328125;0.0869140625;-7.3125;2.0625;10.1875;
1441975763724706;-0.42730712890625;0.52142333984375;0.55780029296875;0.484130859375;16.89860686675307;12.07687097342869;16.518022556492113;-0.97021484375;0.1318359375;0.0908203125;-7.75;2.1875;10.5;
1441975763747708;-0.42724609375;0.521728515625;0.558837890625;0.48260498046875;16.885820128821614;12.104152177424185;16.55162095161583;-0.96630859375;0.13330078125;0.0947265625;-5.75;2.375;10.5625;
1441975763761708;-0.4271240234375;0.52197265625;0.55999755859375;0.4810791015625;16.871645316443562;12.128251860552858;16.58239091324101;-0.9609375;0.13525390625;0.08349609375;-5.4375;2.5;10.75;
1441975763784710;-0.42718505859375;0.52215576171875;0.56109619140625;0.4796142578125;16.85961470514795;12.150630069413403;16.61179500312462;-0.955078125;0.1435546875;0.08984375;-6.1875;2.0;10.75;
1441975763807711;-0.42724609375;0.52215576171875;0.56219482421875;0.4781494140625;16.847848684044283;12.168691000720361;16.63740711297627;-0.978515625;0.14794921875;0.080078125;-6.25;1.6875;9.9375;
1441975763821712;-0.4273681640625;0.52191162109375;0.56341552734375;0.4769287109375;16.836899185871257;12.176401983637392;16.65320116898952;-0.97607421875;0.158203125;0.08349609375;-7.0625;1.3125;8.8125;
1441975763844713;-0.42755126953125;0.52178955078125;0.564208984375;0.47589111328125;16.8297869745124;12.186793250615294;16.669742555090192;-0.96240234375;0.162109375;0.095703125;-7.4375;1.1875;7.25;
1441975763867714;-0.427734375;0.521728515625;0.5648193359375;0.47509765625;16.824595571568615;12.195465752726056;16.683160732171057;-0.94775390625;0.16064453125;0.0947265625;-5.6875;1.6875;5.8125;
1441975763881715;-0.4281005859375;0.52154541015625;0.5653076171875;0.47442626953125;16.82238986447284;12.201357037073793;16.693974017476187;-0.943359375;0.1630859375;0.09716796875;-4.1875;2.0625;4.4375;
1441975763904717;-0.4287109375;0.5211181640625;0.5657958984375;0.47381591796875;16.822874743807507;12.202485127113793;16.701254660936694;-0.94580078125;0.16015625;0.09912109375;-4.625;2.1875;3.0;
1441975763927718;-0.4295654296875;0.52056884765625;0.5662841796875;0.4730224609375;16.82502051070933;12.205549641259488;16.712053531216334;-0.95947265625;0.16015625;0.09228515625;-5.9375;1.9375;1.75;
1441975763941719;-0.4306640625;0.520263671875;0.566162109375;0.472412109375;16.83353067661527;12.2165653492093;16.72851806535527;-0.95263671875;0.1689453125;0.10302734375;-7.1875;3.625;0.5625;
1441975763964720;-0.43145751953125;0.52020263671875;0.56610107421875;0.471923828125;16.838973930727672;12.228488023059263;16.744130563343084;-0.94384765625;0.1376953125;0.103515625;-4.5625;6.0625;0.125;
1441975763987721;-0.4317626953125;0.52020263671875;0.56640625;0.47125244140625;16.837102748843275;12.239279758388287;16.75861380288366;-0.9521484375;0.15185546875;0.08642578125;-3.0;4.3125;0.625;
1441975764001722;-0.43243408203125;0.51971435546875;0.56719970703125;0.47021484375;16.834630276119597;12.244442404458292;16.772389628723325;-0.95068359375;0.189453125;0.08642578125;-3.75;2.4375;1.25;
1441975764023723;-0.43316650390625;0.5186767578125;0.5682373046875;0.469482421875;16.83317681105139;12.231539445201737;16.769680993487416;-0.95751953125;0.1884765625;0.076171875;-8.375;1.1875;1.4375;
1441975764047725;-0.43359375;0.5177001953125;0.5692138671875;0.468994140625;16.83032821844784;12.214549939311915;16.760953654694575;-0.97998046875;0.16650390625;0.08837890625;-10.5;-0.625;1.625;
1441975764061726;-0.4334716796875;0.5172119140625;0.56988525390625;0.46875;16.824866232035287;12.202847926551327;16.752947276088022;-0.97607421875;0.1572265625;0.0947265625;-7.9375;-1.5;2.1875;
1441975764084727;-0.4329833984375;0.51708984375;0.57037353515625;0.46875;16.81770169727746;12.193977811347793;16.74443181300041;-0.98388671875;0.1611328125;0.1064453125;-3.75;-1.5625;3.25;
1441975764107728;-0.43212890625;0.5172119140625;0.57098388671875;0.46875;16.806160381667745;12.187276278824127;16.7366785773176;-0.9921875;0.15869140625;0.099609375;-0.3125;-2.8125;4.3125;
1441975764121729;-0.43109130859375;0.51727294921875;0.57196044921875;0.4683837890625;16.78948110426459;12.181918717544466;16.732033442213826;-0.9736328125;0.16943359375;0.09814453125;1.125;-3.5;5.5;
1441975764143730;-0.43023681640625;0.51702880859375;0.57330322265625;0.4677734375;16.771569038246042;12.172889970268466;16.726882921215964;-0.95458984375;0.1865234375;0.10302734375;-0.4375;-3.75;6.75;
1441975764167732;-0.42938232421875;0.51678466796875;0.57489013671875;0.4669189453125;16.75115570758756;12.16619296796356;16.72547266071114;-0.94775390625;0.18994140625;0.1083984375;-3.9375;-4.0;7.125;
1441975764188733;-0.42877197265625;0.5166015625;0.57635498046875;0.46575927734375;16.73250067137483;12.167626507142216;16.733254339704633;-0.9365234375;0.205078125;0.12158203125;-5.1875;-2.8125;7.375;
1441975764203734;-0.428466796875;0.51629638671875;0.5782470703125;0.464111328125;16.712035492126287;12.172521538528038;16.748367097169155;-0.923828125;0.208984375;0.11865234375;-6.0625;-0.875;7.5625;
1441975764227735;-0.4287109375;0.5155029296875;0.5804443359375;0.4620361328125;16.69355601281487;12.174968475423938;16.766141159606768;-0.92138671875;0.23974609375;0.10888671875;-10.125;-0.5625;7.125;
1441975764248736;-0.42950439453125;0.51416015625;0.58251953125;0.460205078125;16.682387325499935;12.166859624917235;16.775470045972156;-0.9267578125;0.25048828125;0.09716796875;-15.1875;-0.75;6.125;
1441975764264737;-0.43011474609375;0.5128173828125;0.58441162109375;0.45867919921875;16.671996158807392;12.154663034091444;16.778782416085384;-0.9677734375;0.2158203125;0.0849609375;-17.625;-1.625;4.8125;
1441975764287739;-0.43072509765625;0.5118408203125;0.5858154296875;0.45745849609375;16.6652615587982;12.148021505979477;16.784296925836703;-0.9658203125;0.21484375;0.0908203125;-15.6875;-2.4375;4.125;
1441975764308740;-0.43115234375;0.510986328125;0.5870361328125;0.45635986328125;16.658441039757918;12.142260619369544;16.788942114132638;-0.9619140625;0.2138671875;0.08544921875;-12.375;-1.5625;2.8125;
1441975764324741;-0.43145751953125;0.51055908203125;0.58807373046875;0.45526123046875;16.651015825843455;12.144868117942348;16.79983611638443;-0.94482421875;0.21240234375;0.09423828125;-10.375;-1.3125;2.625;
1441975764347742;-0.43182373046875;0.5103759765625;0.58917236328125;0.4537353515625;16.641730957589367;12.157794865269949;16.82193536851913;-0.927734375;0.220703125;0.10693359375;-8.1875;0.6875;2.875;
1441975764368743;-0.43267822265625;0.5101318359375;0.5902099609375;0.45184326171875;16.635716299999313;12.177363603237167;16.853142345412714;-0.9091796875;0.2490234375;0.10205078125;-8.875;2.625;2.75;
1441975764384744;-0.4344482421875;0.50872802734375;0.591796875;0.4495849609375;16.634641679741136;12.181969205626686;16.878018146768436;-0.9365234375;0.2685546875;0.0810546875;-11.875;3.75;1.625;
1441975764407745;-0.43621826171875;0.5068359375;0.593994140625;0.44720458984375;16.63003557699302;12.175283460911016;16.89512363092673;-1.01171875;0.23486328125;0.072265625;-20.0;2.6875;2.0;
1441975764428747;-0.43798828125;0.5050048828125;0.59625244140625;0.44439697265625;16.62339338525654;12.175277141243836;16.920177531112017;-0.97900390625;0.19873046875;0.08984375;-23.625;1.4375;4.8125;
1441975764443747;-0.44000244140625;0.503173828125;0.59857177734375;0.44146728515625;16.617908206952233;12.17757710262832;16.948750447662974;-0.95068359375;0.2109375;0.0947265625;-24.4375;2.9375;5.5;
1441975764467749;-0.44195556640625;0.50115966796875;0.6009521484375;0.43853759765625;16.611920300095964;12.175869092076127;16.973870454790543;-0.97412109375;0.19873046875;0.0830078125;-25.9375;3.4375;6.375;
1441975764488750;-0.4434814453125;0.49945068359375;0.6031494140625;0.43585205078125;16.603845969653612;12.175163744532139;16.99666471224797;-0.9755859375;0.18017578125;0.087890625;-26.0625;2.4375;7.9375;
