1441975553694693;0.4071044921875;-0.62957763671875;-0.54132080078125;-0.38067626953125;15.693158909853912;14.423646482921571;0.7428438961859062;-1.53466796875;0.33935546875;-0.1611328125;-4.3125;-1.8125;-234.25;
1441975553710694;0.4210205078125;-0.6207275390625;-0.51959228515625;-0.40936279296875;16.101694192655895;14.629863236733003;0.8698967948287829;-1.533203125;0.330078125;-0.11279296875;42.6875;-16.8125;-220.1875;
1441975553734696;0.4310302734375;-0.61285400390625;-0.4967041015625;-0.4381103515625;16.482980341466792;14.898298853928248;1.0419307752732128;-1.42822265625;0.44384765625;-0.09423828125;87.75;-27.625;-207.0625;
1441975553754697;0.439208984375;-0.6041259765625;-0.47509765625;-0.46527099609375;16.83594480087789;15.248939881519176;1.301898177465868;-1.34423828125;0.54736328125;-0.12890625;104.625;-34.875;-197.875;
1441975553770698;0.4461669921875;-0.59466552734375;-0.45361328125;-0.49151611328125;17.16129142030607;15.81165304885108;1.7754486999687742;-1.25;0.603515625;-0.14599609375;98.5625;-40.5;-188.5;
1441975553793699;0.4530029296875;-0.58319091796875;-0.43414306640625;-0.51605224609375;17.43473188876074;16.83926069729316;2.729792840140206;-1.16552734375;0.56494140625;-0.2421875;96.625;-45.0;-184.375;
1441975553814700;0.45953369140625;-0.57049560546875;-0.4161376953125;-0.53875732421875;17.564270797076958;0.7765585246243681;4.605401068802084;-1.04638671875;0.52783203125;-0.208984375;81.0;-50.4375;-180.0;
1441975553830701;0.4658203125;-0.55731201171875;-0.39971923828125;-0.5592041015625;17.463997044623586;2.6928116859446747;6.471148083692864;-0.92236328125;0.4423828125;-0.1845703125;68.75;-52.3125;-172.4375;
1441975553859703;0.4715576171875;-0.54437255859375;-0.3851318359375;-0.5770263671875;17.250852097667416;3.665994890893976;7.403786242854922;-0.86474609375;0.3623046875;-0.13232421875;57.1875;-50.75;-162.0625;
1441975553874704;0.47711181640625;-0.53167724609375;-0.37261962890625;-0.5924072265625;17.019560217344527;4.153899599851988;7.86257979882773;-0.79931640625;0.32275390625;-0.083984375;46.6875;-47.125;-147.9375;
1441975553897705;0.48260498046875;-0.51983642578125;-0.36199951171875;-0.6048583984375;16.802171893838782;4.413854183587321;8.104374523782761;-0.76171875;0.27587890625;-0.0439453125;34.25;-44.5625;-133.75;
1441975553912706;0.4886474609375;-0.50799560546875;-0.353515625;-0.61505126953125;16.59965983051053;4.576072692080425;8.2626638565332;-0.79150390625;0.2939453125;-0.06005859375;22.6875;-38.375;-119.8125;
1441975553934707;0.49395751953125;-0.4981689453125;-0.34869384765625;-0.62152099609375;16.451154147057263;4.668617256456748;8.365040018605526;-0.85595703125;0.255859375;-0.10498046875;8.5;-37.1875;-108.875;
1441975553956708;0.4998779296875;-0.48968505859375;-0.34503173828125;-0.6256103515625;16.324603455716634;4.706530482468529;8.421162930537216;-0.8671875;0.11279296875;-0.130859375;-4.1875;-39.25;-97.125;
1441975553972709;0.50439453125;-0.483642578125;-0.343017578125;-0.62774658203125;16.24006112633515;4.721947269468459;8.454427189550671;-0.8642578125;4.8828125E-4;-0.1240234375;-13.5;-29.125;-79.5625;
1441975553994710;0.50701904296875;-0.48040771484375;-0.3428955078125;-0.62823486328125;16.202964416237645;4.726742446877761;8.474214712487601;-0.92822265625;-0.064453125;-0.08447265625;-14.3125;-20.1875;-56.875;
1441975554024712;0.50848388671875;-0.4791259765625;-0.345458984375;-0.6265869140625;16.21162554573176;4.722567842666416;8.490461358601385;-0.9345703125;-0.087890625;-0.05615234375;-13.0625;-13.0625;-32.4375;
1441975554032713;0.5076904296875;-0.47943115234375;-0.35015869140625;-0.62432861328125;16.25900780215968;4.737661225101525;8.523119118868488;-0.966796875;-0.142578125;-0.06103515625;-17.8125;-10.25;-6.5625;
1441975554055714;0.5042724609375;-0.48193359375;-0.35693359375;-0.621337890625;16.350776917623204;4.771980097681353;8.569515195897383;-0.982421875;-0.19482421875;-0.03369140625;-15.125;-12.0;16.75;
1441975554077715;0.499755859375;-0.486328125;-0.36578369140625;-0.616455078125;16.482294560874738;4.801930176478526;8.61465454555243;-0.94580078125;-0.12451171875;-0.00830078125;-9.5625;-11.8125;36.3125;
1441975554092716;0.49560546875;-0.49151611328125;-0.37774658203125;-0.6083984375;16.65194946934249;4.815571526134282;8.660592613656682;-0.94189453125;-0.05859375;-0.02392578125;-13.0;-9.0625;53.625;
1441975554116717;0.4918212890625;-0.496337890625;-0.3914794921875;-0.59881591796875;16.835906648302462;4.835770013029593;8.724575401720454;-0.9443359375;-0.00927734375;-0.05615234375;-29.875;-8.125;70.5;
1441975554136719;0.486572265625;-0.501708984375;-0.4061279296875;-0.5887451171875;17.038549082463806;4.897422426976835;8.82796940636958;-0.97265625;-0.04248046875;-0.0595703125;-41.5;-9.0625;82.25;
1441975554152719;0.4801025390625;-0.50775146484375;-0.4215087890625;-0.5780029296875;17.258262756102514;5.023184409267011;8.993811199085973;-0.96875;0.01025390625;-0.05029296875;-39.1875;-11.25;90.9375;
1441975554175721;0.4747314453125;-0.511962890625;-0.4371337890625;-0.5670166015625;17.459625725240052;5.273401055470309;9.293577224979359;-0.9541015625;0.08740234375;-0.0537109375;-37.9375;-12.0;97.625;
1441975554197722;0.4703369140625;-0.5152587890625;-0.45428466796875;-0.55401611328125;17.660038350049597;5.832570028774203;9.917627227623624;-0.9658203125;0.1171875;-0.0537109375;-47.5;-11.3125;102.1875;
1441975554212723;0.4664306640625;-0.51788330078125;-0.4718017578125;-0.54010009765625;17.814792620783898;7.601197520430853;11.757897324353273;-0.96435546875;0.13330078125;-0.0537109375;-63.3125;-10.375;106.8125;
1441975554236724;0.46136474609375;-0.52099609375;-0.4879150390625;-0.5269775390625;17.779468227550407;10.75664520075368;14.973749450335516;-0.9599609375;0.0712890625;-0.0556640625;-69.75;-9.4375;109.0;
1441975554256725;0.45440673828125;-0.52545166015625;-0.502197265625;-0.5150146484375;17.603559931005577;11.986201749640456;16.245742776023203;-0.93701171875;0.0341796875;-0.0390625;-59.0;-9.5;108.625;
1441975554272726;0.44659423828125;-0.53076171875;-0.5147705078125;-0.50390625;17.406017435327804;12.430165005223888;16.71984387003216;-0.87255859375;0.06640625;-0.02587890625;-40.875;-9.0625;108.75;
1441975554303728;0.43896484375;-0.53582763671875;-0.526611328125;-0.49285888671875;17.208442874950915;12.646450526668465;16.965193040642948;-0.84423828125;0.107421875;-0.02587890625;-28.625;-7.0;105.8125;
1441975554316729;0.4326171875;-0.540283203125;-0.53814697265625;-0.4810791015625;17.0183837254682;12.787407637228542;17.14191301032351;-0.86376953125;0.14208984375;-0.052734375;-27.5;-6.0;102.5625;
1441975554332730;0.42742919921875;-0.54296875;-0.5498046875;-0.4693603515625;16.840933091498183;12.851866223742993;17.250808896930415;-0.8740234375;0.13818359375;-0.07177734375;-34.9375;-7.125;99.125;
1441975554355731;0.4224853515625;-0.5450439453125;-0.560546875;-0.45849609375;16.676730479218996;12.883709279935566;17.324563716168896;-0.8623046875;0.0927734375;-0.0625;-43.5;-8.25;96.8125;
1441975554376732;0.4171142578125;-0.54791259765625;-0.5694580078125;-0.448974609375;16.52406571419267;12.91496163411031;17.385165346923724;-0.84228515625;0.05078125;-0.03564453125;-40.9375;-7.8125;93.125;
1441975554392733;0.4111328125;-0.552001953125;-0.5762939453125;-0.440673828125;16.380738001765643;12.95670627382512;17.44151785912762;-0.826171875;0.044921875;-0.02392578125;-28.0;-6.0;89.125;
1441975554415735;0.405029296875;-0.556640625;-0.581787109375;-0.4332275390625;16.246416052143736;13.00056865427394;17.49172289777567;-0.81494140625;0.0751953125;-0.029296875;-13.4375;-4.3125;83.625;
1441975554437736;0.39947509765625;-0.56103515625;-0.58660888671875;-0.42620849609375;16.122829159786946;13.040288451616522;17.536921343622875;-0.81689453125;0.130859375;-0.02587890625;-5.1875;-2.8125;77.1875;
1441975554452737;0.39501953125;-0.564208984375;-0.59112548828125;-0.4197998046875;16.016782937926518;13.065259520110676;17.571472077801626;-0.82080078125;0.18603515625;-0.03857421875;-4.5625;-2.0;68.875;
1441975554475738;0.39190673828125;-0.5660400390625;-0.59539794921875;-0.4141845703125;15.931455730581632;13.076299595693904;17.596917171498024;-0.81591796875;0.19921875;-0.03125;-9.1875;-1.875;60.0;
1441975554496739;0.38970947265625;-0.56719970703125;-0.5989990234375;-0.409423828125;15.863928912316624;13.082950883151081;17.618182005398197;-0.81494140625;0.193359375;-0.0126953125;-13.875;-1.4375;50.9375;
1441975554512740;0.38836669921875;-0.568359375;-0.601318359375;-0.40576171875;15.8159003583806;13.095459577912358;17.640867869702905;-0.80029296875;0.19384765625;0.01611328125;-13.625;0.625;42.0;
1441975554535741;0.38812255859375;-0.5692138671875;-0.60235595703125;-0.4031982421875;15.790267177929545;13.112290016497056;17.665023448899607;-0.79345703125;0.20849609375;0.0322265625;-8.6875;4.0;31.875;
1441975554557743;0.38916015625;-0.569580078125;-0.6024169921875;-0.401611328125;15.786715539911318;13.131508718218146;17.69101522448167;-0.8271484375;0.2236328125;0.0390625;-5.125;6.75;20.875;
1441975554572743;0.3917236328125;-0.56890869140625;-0.60186767578125;-0.40087890625;15.806516579557192;13.147549405466785;17.71701054472215;-0.86669921875;0.24365234375;0.03955078125;-4.75;8.9375;9.9375;
1441975554595745;0.395751953125;-0.56695556640625;-0.6009521484375;-0.40106201171875;15.849348062358432;13.155860494074807;17.739511016000225;-0.90625;0.25830078125;0.02490234375;-8.375;9.75;-1.875;
1441975554617746;0.40069580078125;-0.5640869140625;-0.5997314453125;-0.40203857421875;15.908793967931715;13.157603692892591;17.757532194166412;-0.9267578125;0.23779296875;0.03076171875;-12.5625;9.9375;-12.25;
1441975554632747;0.4061279296875;-0.5611572265625;-0.59783935546875;-0.403564453125;15.978759417916262;13.163961873965485;17.77816527548833;-0.90478515625;0.203125;0.0458984375;-14.375;10.6875;-19.4375;
1441975554663749;0.412353515625;-0.55792236328125;-0.59503173828125;-0.40576171875;16.06438908497445;13.176113703199267;17.803125092746136;-0.87548828125;0.1982421875;0.0615234375;-12.0625;12.75;-26.0625;
1441975554677749;0.41949462890625;-0.55401611328125;-0.591796875;-0.4085693359375;16.165167789228015;13.18777296353835;17.829123476289407;-0.88232421875;0.20947265625;0.0498046875;-10.75;14.1875;-34.9375;
1441975554699751;0.42706298828125;-0.54913330078125;-0.5887451171875;-0.41180419921875;16.27472329899334;13.187690024055644;17.846691112546576;-0.92236328125;0.2001953125;0.029296875;-12.5625;13.625;-42.4375;
1441975554715752;0.43463134765625;-0.54351806640625;-0.58599853515625;-0.4151611328125;16.386616085836252;13.175234165246836;17.854506535765253;-0.943359375;0.16845703125;0.033203125;-16.75;11.4375;-45.5625;
1441975554736753;0.44195556640625;-0.53802490234375;-0.58294677734375;-0.4189453125;16.500451459630305;13.161045796320334;17.857360186887576;-0.927734375;0.13671875;0.03662109375;-19.5;8.875;-46.4375;
1441975554760754;0.44854736328125;-0.532958984375;-0.579345703125;-0.42327880859375;16.613508562996177;13.145651238741705;17.852480403232818;-0.93798828125;0.0947265625;0.03466796875;-16.625;7.5625;-46.1875;
1441975554783756;0.4542236328125;-0.529052734375;-0.574951171875;-0.4281005859375;16.722213804181706;13.141287553696847;17.848943081462995;-0.95849609375;0.06884765625;0.04052734375;-10.0625;6.6875;-44.9375;
1441975554796756;0.458984375;-0.5260009765625;-0.5701904296875;-0.43316650390625;16.824197692640947;13.141926873920049;17.843575653899297;-0.9931640625;0.076171875;0.029296875;-0.5625;5.875;-44.1875;
1441975554812757;0.46282958984375;-0.52337646484375;-0.56561279296875;-0.438232421875;16.916965739711166;13.135717331881123;17.828066074017904;-1.02001953125;0.09521484375;0.01318359375;5.9375;4.25;-42.6875;
1441975554835759;0.4656982421875;-0.52093505859375;-0.5615234375;-0.4432373046875;16.999112238338824;13.111133907250789;17.79247689215809;-1.02099609375;0.10400390625;0.01171875;8.8125;1.75;-40.25;
1441975554856760;0.4681396484375;-0.51873779296875;-0.557861328125;-0.4478759765625;17.07260971548755;13.079720835975722;17.750432680312976;-1.00341796875;0.11962890625;0.021484375;10.3125;-0.9375;-37.6875;
1441975554872761;0.47021484375;-0.51678466796875;-0.55438232421875;-0.45233154296875;17.140249364087552;13.042493958204645;17.701895231265464;-0.98193359375;0.11767578125;0.029296875;10.375;-1.5;-34.6875;
1441975554895762;0.47149658203125;-0.5152587890625;-0.55078125;-0.45703125;17.20230033390331;12.992916424843811;17.63648086226995;-0.9814453125;0.107421875;0.03466796875;10.9375;-1.6875;-32.0;
1441975554916763;0.4718017578125;-0.5147705078125;-0.54693603515625;-0.4619140625;17.255150249772022;12.945940032766059;17.566672143960627;-0.98583984375;0.0859375;0.04833984375;15.1875;-2.375;-28.5;
1441975554932764;0.47119140625;-0.515380859375;-0.54296875;-0.46649169921875;17.295885448908074;12.91664633759413;17.509319255041532;-0.98095703125;0.08544921875;0.0478515625;22.6875;-2.75;-24.9375;
1441975554955765;0.47021484375;-0.51629638671875;-0.53961181640625;-0.4703369140625;17.32518318778958;12.89248451078153;17.459043412721034;-0.9716796875;0.11376953125;0.041015625;27.5;-1.9375;-21.1875;
1441975554977767;0.46929931640625;-0.5169677734375;-0.53704833984375;-0.473388671875;17.346928687123857;12.86460078735671;17.410486870667697;-0.97216796875;0.1396484375;0.04052734375;26.0625;-1.6875;-17.6875;
1441975554999768;0.4686279296875;-0.517333984375;-0.5352783203125;-0.4757080078125;17.362962448883234;12.833740178327982;17.36491124053926;-0.97265625;0.14697265625;0.037109375;20.125;-2.3125;-14.625;
1441975555024769;0.46807861328125;-0.51751708984375;-0.533935546875;-0.4775390625;17.375452433186176;12.80299753261836;17.32295991781139;-0.97607421875;0.1533203125;0.03466796875;14.4375;-2.5;-12.5;
1441975555038770;0.46746826171875;-0.5177001953125;-0.532958984375;-0.47900390625;17.383339166237533;12.773530725914812;17.284212057479863;-0.98291015625;0.154296875;0.03857421875;11.0;-2.3125;-10.625;
1441975555052771;0.46697998046875;-0.5179443359375;-0.53204345703125;-0.48028564453125;17.390597791729274;12.751973207465468;17.25424942020417;-0.98046875;0.1630859375;0.046875;8.9375;-1.625;-9.1875;
1441975555075772;0.46649169921875;-0.5181884765625;-0.5313720703125;-0.48126220703125;17.39485138137683;12.734581422115669;17.23002913647248;-0.97265625;0.15478515625;0.0390625;8.0;-1.25;-8.0;
1441975555098774;0.46600341796875;-0.51849365234375;-0.5306396484375;-0.482177734375;17.399002879032004;12.72225238366582;17.2106965948856;-0.9609375;0.150390625;0.0419921875;7.0;-1.0625;-6.625;
1441975555112774;0.46539306640625;-0.51898193359375;-0.52996826171875;-0.48297119140625;17.40064198202103;12.716778868598617;17.197869439064235;-0.962890625;0.1376953125;0.03662109375;6.875;-0.75;-5.25;
1441975555135776;0.46466064453125;-0.51959228515625;-0.5296630859375;-0.48333740234375;17.396644492330044;12.71986596324241;17.195177961182953;-0.955078125;0.13525390625;0.03369140625;7.0;-0.5;-3.625;
1441975555158777;0.464111328125;-0.52001953125;-0.52972412109375;-0.4833984375;17.390889480210188;12.722125387313794;17.194635950643978;-0.95556640625;0.1455078125;0.0380859375;5.75;-0.25;-1.9375;
1441975555172778;0.463623046875;-0.52032470703125;-0.530029296875;-0.483154296875;17.383080127596823;12.725975760472998;17.197784244139932;-0.96435546875;0.14453125;0.03369140625;2.9375;-0.1875;-0.3125;
1441975555195779;0.46319580078125;-0.5206298828125;-0.53045654296875;-0.48272705078125;17.37411231523859;12.73402985696933;17.20618683844355;-0.9609375;0.13134765625;0.033203125;0.6875;-0.4375;1.5625;
1441975555218780;0.46270751953125;-0.5208740234375;-0.53118896484375;-0.482177734375;17.362336415570503;12.736591803395442;17.210323979221776;-0.9677734375;0.1220703125;0.02880859375;-0.5;-0.4375;3.1875;
1441975555232781;0.4620361328125;-0.521240234375;-0.531982421875;-0.48150634765625;17.34782847678425;12.742486983641209;17.21744267891989;-0.98046875;0.11279296875;0.033203125;-1.5;-0.5625;5.1875;
1441975555255783;0.4613037109375;-0.52178955078125;-0.53289794921875;-0.48065185546875;17.330579517750543;12.75589545116896;17.232250764576882;-0.98779296875;0.11181640625;0.0341796875;-1.3125;-0.875;7.125;
1441975555278784;0.4603271484375;-0.52239990234375;-0.53399658203125;-0.47967529296875;17.309542101556325;12.76670322111654;17.244456966469667;-0.978515625;0.10791015625;0.029296875;-1.375;-0.75;8.875;
1441975555293785;0.45941162109375;-0.52313232421875;-0.5352783203125;-0.4783935546875;17.285913881576132;12.786207883809855;17.266587318098903;-0.97265625;0.1123046875;0.03515625;-1.4375;-0.6875;10.5625;
1441975555315786;0.45855712890625;-0.52374267578125;-0.5367431640625;-0.47686767578125;17.260852660556434;12.804822653803587;17.28957932467945;-0.9619140625;0.12158203125;0.0302734375;-2.375;-0.4375;11.75;
1441975555338787;0.45770263671875;-0.5242919921875;-0.538330078125;-0.47528076171875;17.234911562780212;12.81979594300837;17.309632156227067;-0.95263671875;0.12158203125;0.02880859375;-4.125;-0.25;12.8125;
1441975555359789;0.45697021484375;-0.52484130859375;-0.5400390625;-0.47344970703125;17.20790763923513;12.839017038860487;17.335336480895688;-0.9658203125;0.1181640625;0.03125;-5.0;-0.375;13.5625;
1441975555375789;0.45654296875;-0.52520751953125;-0.54193115234375;-0.4713134765625;17.181169035254012;12.860129913560712;17.365739239751285;-0.98046875;0.1337890625;0.029296875;-6.3125;0.0625;14.0;
1441975555398791;0.45635986328125;-0.525146484375;-0.54400634765625;-0.46917724609375;17.156650490016137;12.869394890138368;17.38675135053193;-0.98046875;0.1357421875;0.01708984375;-9.3125;0.1875;13.75;
1441975555412792;0.45611572265625;-0.525146484375;-0.54583740234375;-0.46728515625;17.13415767694142;12.877217535980469;17.404571170750703;-0.98193359375;0.1337890625;0.0244140625;-11.375;-0.3125;13.3125;
1441975555435793;0.455810546875;-0.5252685546875;-0.5472412109375;-0.46575927734375;17.11520379973253;12.88566647431929;17.420214335635116;-0.982421875;0.119140625;0.02734375;-10.125;-0.1875;13.125;
1441975555458794;0.455322265625;-0.525634765625;-0.54840087890625;-0.4644775390625;17.09667241453137;12.895788040244502;17.434900172873096;-0.9853515625;0.1025390625;0.03125;-7.0;0.0625;13.125;
1441975555472795;0.4547119140625;-0.52618408203125;-0.5494384765625;-0.46319580078125;17.077278218679123;12.909867446522426;17.45231838316532;-0.98095703125;0.10205078125;0.02783203125;-4.0;0.0;13.125;
1441975555495796;0.45416259765625;-0.52655029296875;-0.55059814453125;-0.4619140625;17.058273662680477;12.91818308922687;17.46502643760095;-0.97412109375;0.103515625;0.02587890625;-3.1875;-0.125;13.375;
1441975555518798;0.4537353515625;-0.5267333984375;-0.552001953125;-0.4605712890625;17.039052257110875;12.921109006066253;17.474097405939922;-0.9755859375;0.10498046875;0.02490234375;-4.25;-0.25;13.5625;
1441975555539799;0.4532470703125;-0.52691650390625;-0.55340576171875;-0.4591064453125;17.018780558029153;12.925293803347987;17.484609172215613;-0.97607421875;0.1015625;0.02880859375;-5.9375;-0.75;13.75;
1441975555555800;0.45281982421875;-0.5269775390625;-0.55474853515625;-0.45782470703125;17.000732616081677;12.924999509748547;17.49046651857886;-0.97412109375;0.10986328125;0.02587890625;-6.3125;-0.8125;13.8125;
1441975555578801;0.45245361328125;-0.527099609375;-0.555908203125;-0.4566650390625;16.984620015829073;12.927032206458637;17.497772810827314;-0.97802734375;0.107421875;0.03076171875;-6.0625;-1.0;13.3125;
1441975555599802;0.4520263671875;-0.52728271484375;-0.556884765625;-0.45562744140625;16.96956300428449;12.929948301052312;17.50473722000521;-0.9873046875;0.109375;0.025390625;-5.0625;-1.1875;12.75;
1441975555615803;0.4515380859375;-0.5274658203125;-0.55767822265625;-0.454833984375;16.95642529109132;12.930477459934007;17.507911338970903;-0.9814453125;0.11083984375;0.02197265625;-3.875;-1.125;11.875;
1441975555638804;0.4510498046875;-0.5277099609375;-0.55828857421875;-0.45440673828125;16.94602032686751;12.928573846841958;17.506887952131276;-0.98486328125;0.11328125;0.02490234375;-2.625;-1.5;10.8125;
1441975555659806;0.450439453125;-0.5279541015625;-0.55877685546875;-0.4541015625;16.936103758968805;12.925020570653173;17.503166289835494;-0.97314453125;0.10693359375;0.02685546875;-1.125;-1.875;10.0;
1441975555675807;0.4498291015625;-0.52825927734375;-0.55908203125;-0.45391845703125;16.927680954220204;12.923198598262962;17.50012228039664;-0.9658203125;0.1162109375;0.03271484375;0.4375;-1.875;9.0;
1441975555698808;0.44952392578125;-0.5283203125;-0.5594482421875;-0.453857421875;16.922680155541833;12.91714001396236;17.494236936709193;-0.9716796875;0.13134765625;0.03076171875;1.125;-1.9375;7.25;
1441975555720809;0.449462890625;-0.52801513671875;-0.5596923828125;-0.453857421875;16.92195510245011;12.907296178234818;17.48580269439958;-0.982421875;0.14013671875;0.02978515625;-0.25;-2.1875;5.25;
1441975555735810;0.44952392578125;-0.52764892578125;-0.55975341796875;-0.45416259765625;16.925002973559383;12.894987918032976;17.474018834565;-0.98583984375;0.1416015625;0.02490234375;-1.6875;-2.5;2.8125;
1441975555758811;0.44964599609375;-0.52734375;-0.55926513671875;-0.4549560546875;16.934065065557302;12.88366765581816;17.46023543649702;-0.9755859375;0.14453125;0.03515625;-0.625;-2.1875;0.3125;
1441975555779813;0.44976806640625;-0.527099609375;-0.5584716796875;-0.45611572265625;16.94657453250164;12.871237985024212;17.443231466942674;-0.9755859375;0.14111328125;0.0341796875;2.3125;-1.8125;-2.25;
1441975555795813;0.449951171875;-0.52685546875;-0.55743408203125;-0.45751953125;16.96222242852016;12.858184227661466;17.424373508389092;-0.96728515625;0.13037109375;0.03759765625;4.375;-1.9375;-3.875;
1441975555817815;0.45013427734375;-0.52642822265625;-0.55645751953125;-0.458984375;16.97844895410715;12.838948154057599;17.399863331282493;-0.96044921875;0.12109375;0.03125;5.25;-2.1875;-4.9375;
1441975555839816;0.4503173828125;-0.52593994140625;-0.5556640625;-0.46038818359375;16.993393289447496;12.816333712033206;17.372851825522687;-0.9541015625;0.12060546875;0.0390625;4.9375;-2.5;-5.5;
1441975555855817;0.45062255859375;-0.52532958984375;-0.5548095703125;-0.4617919921875;17.010005466411634;12.792504083247625;17.345154484627976;-0.95361328125;0.12841796875;0.0390625;4.25;-3.0;-6.125;
1441975555877818;0.450927734375;-0.524658203125;-0.55401611328125;-0.46319580078125;17.02636585168989;12.765625356136875;17.314759889044876;-0.95703125;0.13134765625;0.03271484375;3.5;-3.1875;-7.0;
1441975555900819;0.451171875;-0.5240478515625;-0.55303955078125;-0.46484375;17.04424909019744;12.736208923778085;17.280247991143916;-0.9580078125;0.13330078125;0.037109375;3.0625;-3.4375;-7.5;
1441975555915820;0.4512939453125;-0.52362060546875;-0.55181884765625;-0.46661376953125;17.0625936957831;12.70935229284955;17.24636886186542;-0.9599609375;0.12841796875;0.03271484375;4.5;-3.8125;-8.1875;
1441975555937822;0.451416015625;-0.52325439453125;-0.55072021484375;-0.46826171875;17.079281216087047;12.683579782763983;17.21410075795736;-0.9716796875;0.1328125;0.0322265625;6.5;-3.75;-8.8125;
1441975555968823;0.45184326171875;-0.52252197265625;-0.54974365234375;-0.4697265625;17.097822234481132;12.653430277396051;17.180265279589314;-0.9716796875;0.146484375;0.0322265625;5.8125;-3.4375;-9.4375;
1441975555975824;0.452392578125;-0.52166748046875;-0.54888916015625;-0.47119140625;17.116760364668306;12.618573055042415;17.142773503600246;-0.982421875;0.14697265625;0.0302734375;3.1875;-3.75;-10.25;
1441975555997825;0.45294189453125;-0.5208740234375;-0.5478515625;-0.47271728515625;17.1368441038013;12.58480628675062;17.105496923895455;-0.98095703125;0.142578125;0.03759765625;2.125;-3.1875;-10.5625;
1441975556020826;0.4534912109375;-0.52032470703125;-0.54669189453125;-0.47418212890625;17.15660951294876;12.558821640589667;17.07512620015472;-0.97607421875;0.13330078125;0.044921875;3.0;-2.5;-10.75;
1441975556035827;0.45404052734375;-0.519775390625;-0.5455322265625;-0.47552490234375;17.1758100998356;12.534414450638518;17.046685587689094;-0.97119140625;0.1298828125;0.0361328125;3.6875;-1.8125;-10.6875;
1441975556057828;0.45465087890625;-0.519287109375;-0.5445556640625;-0.47662353515625;17.1930170463358;12.514582023756557;17.02404717696012;-0.96728515625;0.126953125;0.03466796875;3.8125;-1.4375;-10.125;
1441975556080830;0.455322265625;-0.51861572265625;-0.54376220703125;-0.4775390625;17.209234839519;12.491438554188386;16.99985151056691;-0.96630859375;0.13134765625;0.0341796875;2.375;-1.25;-9.5625;
1441975556095831;0.45599365234375;-0.5179443359375;-0.543212890625;-0.47833251953125;17.22324016997046;12.46708538794065;16.975497315023972;-0.96630859375;0.126953125;0.0341796875;0.75;-1.25;-8.625;
1441975556125832;0.45660400390625;-0.517333984375;-0.54278564453125;-0.47894287109375;17.23500883352557;12.446102308216421;16.955039159870868;-0.966796875;0.11572265625;0.03271484375;-0.5;-1.5625;-7.4375;
1441975556141833;0.45697021484375;-0.51690673828125;-0.54229736328125;-0.4794921875;17.24451909728692;12.429715055028867;16.9379509781484;-0.9658203125;0.11767578125;0.03369140625;-0.75;-1.5625;-6.1875;
1441975556155834;0.4571533203125;-0.5167236328125;-0.54193115234375;-0.47998046875;17.250805322279554;12.41819145437611;16.92502510170921;-0.97705078125;0.11962890625;0.0380859375;0.5;-1.125;-5.125;
1441975556177835;0.4573974609375;-0.5166015625;-0.54168701171875;-0.48016357421875;17.255431318914198;12.415601292927663;16.922259515072707;-0.9814453125;0.13232421875;0.03515625;0.875;-1.0625;-4.5;
1441975556200837;0.45770263671875;-0.516357421875;-0.54156494140625;-0.480224609375;17.259581034206008;12.411606210629055;16.919315729825097;-0.98193359375;0.1337890625;0.03076171875;-0.125;-0.75;-3.4375;
1441975556215837;0.4578857421875;-0.5162353515625;-0.54150390625;-0.48028564453125;17.26200224982371;12.409091300061114;16.917326215760475;-0.97802734375;0.1279296875;0.03466796875;-0.9375;-0.5625;-2.625;
1441975556237839;0.45794677734375;-0.5162353515625;-0.54144287109375;-0.48028564453125;17.262908935869397;12.41061070484504;16.918845620544403;-0.97021484375;0.1181640625;0.03515625;-0.8125;-0.375;-1.6875;
1441975556260840;0.45794677734375;-0.51629638671875;-0.54144287109375;-0.48028564453125;17.262736079707672;12.412464610726266;16.920524069228186;-0.97314453125;0.1142578125;0.033203125;-0.1875;-0.375;-0.375;
1441975556275841;0.45794677734375;-0.516357421875;-0.54168701171875;-0.4798583984375;17.259309686704466;12.422617144803382;16.93242925647329;-0.9775390625;0.1142578125;0.0341796875;-0.4375;-0.25;0.9375;
1441975556297842;0.45794677734375;-0.5164794921875;-0.5421142578125;-0.479248046875;17.25374360161717;12.43688863498382;16.949329363912554;-0.970703125;0.119140625;0.033203125;-1.625;-0.125;2.0625;
1441975556320843;0.45794677734375;-0.51654052734375;-0.54254150390625;-0.47869873046875;17.24855955640047;12.447486327787566;16.96255582951912;-0.97412109375;0.123046875;0.03466796875;-2.625;0.125;3.0;
1441975556335844;0.45782470703125;-0.516845703125;-0.54290771484375;-0.4781494140625;17.242120827604154;12.46458136471972;16.98105267317107;-0.9765625;0.11181640625;0.041015625;-2.5;0.25;3.6875;
1441975556365846;0.4576416015625;-0.5172119140625;-0.54327392578125;-0.47747802734375;17.234537525035215;12.485641344322529;17.003515550805176;-0.9736328125;0.11083984375;0.04345703125;-1.4375;0.75;4.5;
1441975556380847;0.4573974609375;-0.51751708984375;-0.5438232421875;-0.4766845703125;17.224892422643514;12.50436042181315;17.024514544922738;-0.97265625;0.11572265625;0.03759765625;-1.1875;1.0625;5.1875;
1441975556395848;0.457275390625;-0.5177001953125;-0.5445556640625;-0.475830078125;17.215028043691706;12.519481370802733;17.04331650191641;-0.9755859375;0.115234375;0.04736328125;-2.0625;1.0;5.75;
1441975556417849;0.45721435546875;-0.517822265625;-0.5452880859375;-0.47491455078125;17.20555752009288;12.534698206044926;17.0627411901982;-0.97412109375;0.1162109375;0.04345703125;-3.5625;0.625;6.0625;
1441975556448851;0.45703125;-0.51800537109375;-0.54583740234375;-0.47418212890625;17.196912747757057;12.547912276222183;17.07858705707225;-0.97509765625;0.11376953125;0.04248046875;-4.0;0.75;6.375;
1441975556463852;0.4566650390625;-0.51837158203125;-0.54638671875;-0.4736328125;17.186996264165824;12.55926949131683;17.09099595779717;-0.97412109375;0.1015625;0.044921875;-2.4375;0.75;6.6875;
1441975556477852;0.4561767578125;-0.5189208984375;-0.5467529296875;-0.4730224609375;17.176541723398053;12.57787746089831;17.109431542549473;-0.96337890625;0.10302734375;0.05078125;-0.75;0.5625;7.25;
1441975556500854;0.45562744140625;-0.5194091796875;-0.54730224609375;-0.472412109375;17.16454947834549;12.591143522247409;17.12305014998888;-0.96875;0.1103515625;0.04296875;0.375;0.3125;7.3125;
1441975556523855;0.455322265625;-0.5196533203125;-0.5479736328125;-0.4715576171875;17.15336584436296;12.604342630084638;17.139058419042925;-0.9794921875;0.12060546875;0.04296875;-0.3125;0.0625;7.3125;
1441975556537856;0.4552001953125;-0.51959228515625;-0.54876708984375;-0.4708251953125;17.144251318967143;12.60696386312969;17.145889886364028;-0.984375;0.13525390625;0.0380859375;-2.5625;-0.1875;6.4375;
1441975556560857;0.4552001953125;-0.5194091796875;-0.54937744140625;-0.4703369140625;17.13871605051138;12.604812634634554;17.147422023316985;-0.98486328125;0.126953125;0.04443359375;-4.25;-0.25;5.4375;
1441975556589859;0.45501708984375;-0.51947021484375;-0.54962158203125;-0.47021484375;17.13497141530218;12.603696019508112;17.146656089657547;-0.9755859375;0.1142578125;0.05419921875;-3.3125;-0.25;4.5;
1441975556597859;0.4547119140625;-0.5196533203125;-0.5496826171875;-0.47021484375;17.131636061215556;12.6041296434534;17.1458636042766;-0.96435546875;0.1083984375;0.05419921875;-0.5625;-0.125;3.8125;
1441975556620861;0.45458984375;-0.5198974609375;-0.5496826171875;-0.4700927734375;17.129391602417613;12.611645061511496;17.152677635415593;-0.958984375;0.11767578125;0.05322265625;1.5625;0.1875;3.0625;
1441975556641862;0.45458984375;-0.51983642578125;-0.5498046875;-0.469970703125;17.128263561294;12.611137605293392;17.153048195295288;-0.96142578125;0.12451171875;0.0380859375;0.9375;0.0;2.4375;
1441975556657863;0.45477294921875;-0.51959228515625;-0.54998779296875;-0.46990966796875;17.128977652388443;12.605847038356709;17.14968515234818;-0.96533203125;0.123046875;0.03955078125;-1.0625;-0.5;1.6875;
1441975556680864;0.45489501953125;-0.519287109375;-0.550048828125;-0.47003173828125;17.13100824386111;12.595948378374931;17.140838564551675;-0.96630859375;0.11865234375;0.03955078125;-2.125;-0.9375;1.125;
1441975556702865;0.45489501953125;-0.51910400390625;-0.5499267578125;-0.4703369140625;17.133691435817223;12.586174013706007;17.130362818757874;-0.9736328125;0.11083984375;0.04443359375;-1.125;-1.0625;0.375;
1441975556717866;0.45501708984375;-0.51898193359375;-0.5496826171875;-0.470703125;17.138173819553575;12.579497376124298;17.12263146684198;-0.9716796875;0.12109375;0.04541015625;0.625;-1.125;-0.3125;
1441975556742868;0.4552001953125;-0.5186767578125;-0.5494384765625;-0.4710693359375;17.143706990202926;12.56871099412443;17.11149441426659;-0.97265625;0.12353515625;0.03955078125;1.125;-0.875;-1.3125;
1441975556769869;0.45550537109375;-0.51837158203125;-0.54913330078125;-0.471435546875;17.15057700383043;12.55993565571632;17.102542436581764;-0.978515625;0.1220703125;0.04345703125;0.1875;-0.875;-2.125;
1441975556777870;0.4559326171875;-0.51812744140625;-0.5487060546875;-0.47186279296875;17.159255915670062;12.554196940944058;17.096273868356267;-0.9716796875;0.12255859375;0.04052734375;0.0;-0.5625;-2.75;
1441975556800871;0.45635986328125;-0.51788330078125;-0.5482177734375;-0.4722900390625;17.16834675013755;12.549178289936851;17.09055142788481;-0.96728515625;0.11962890625;0.04150390625;0.4375;-0.1875;-3.25;
1441975556821872;0.45684814453125;-0.5174560546875;-0.54791259765625;-0.47265625;17.176987361491577;12.538724474970799;17.080796253023703;-0.9697265625;0.1181640625;0.03466796875;0.3125;0.0;-3.625;
1441975556837873;0.45733642578125;-0.51708984375;-0.54754638671875;-0.47296142578125;17.18560275713208;12.532037031150802;17.074633383939574;-0.9638671875;0.126953125;0.041015625;-0.5625;-0.0625;-4.1875;
1441975556860874;0.45794677734375;-0.5167236328125;-0.54705810546875;-0.47332763671875;17.196228986639998;12.526800236533603;17.069744535840464;-0.96630859375;0.12841796875;0.04296875;-0.75;0.1875;-4.4375;
1441975556890876;0.45849609375;-0.51641845703125;-0.546630859375;-0.47369384765625;17.205773644281138;12.5215653190094;17.064680937580608;-0.97021484375;0.12646484375;0.0361328125;-0.5625;0.3125;-4.9375;
1441975556897876;0.45904541015625;-0.5159912109375;-0.546142578125;-0.47412109375;17.216353963796916;12.512101929240456;17.055391483702792;-0.97216796875;0.130859375;0.0361328125;-0.375;0.25;-5.125;
1441975556920878;0.4595947265625;-0.5157470703125;-0.54559326171875;-0.47454833984375;17.226779819979818;12.508488291925637;17.05124815811416;-0.96630859375;0.1240234375;0.04150390625;-0.125;0.5;-5.375;
1441975556943879;0.46014404296875;-0.515380859375;-0.54498291015625;-0.47503662109375;17.2382393170016;12.50053040571812;17.042763263294354;-0.96923828125;0.12548828125;0.0390625;0.375;0.6875;-5.25;
1441975556957880;0.46063232421875;-0.51507568359375;-0.54449462890625;-0.4754638671875;17.247956111794824;12.493230323064115;17.035110151273784;-0.974609375;0.11865234375;0.03955078125;0.3125;0.5;-5.375;
1441975556988882;0.46112060546875;-0.5147705078125;-0.54412841796875;-0.47576904296875;17.256355330043405;12.4872172937782;17.02944498528476;-0.9765625;0.12158203125;0.04248046875;0.125;0.5625;-5.0625;
1441975557003883;0.46160888671875;-0.5145263671875;-0.54376220703125;-0.47601318359375;17.264332742923035;12.484563046294703;17.0271385582361;-0.96923828125;0.11865234375;0.04052734375;-0.25;0.5625;-4.625;
1441975557017883;0.46209716796875;-0.51422119140625;-0.5435791015625;-0.47607421875;17.270528897576348;12.482291467979874;17.026442439335288;-0.97265625;0.12451171875;0.0439453125;-0.5625;0.875;-4.125;
1441975557040885;0.462646484375;-0.51385498046875;-0.54339599609375;-0.47607421875;17.277150492560622;12.480561716535968;17.02681502583385;-0.970703125;0.12353515625;0.0458984375;-1.5;1.1875;-3.6875;
1441975557063886;0.46307373046875;-0.51361083984375;-0.54327392578125;-0.47607421875;17.282034329300565;12.480151251038157;17.02797984315966;-0.96630859375;0.11669921875;0.0419921875;-2.25;1.25;-3.0;
1441975557077887;0.4635009765625;-0.513427734375;-0.54327392578125;-0.47589111328125;17.285186382329307;12.484898373107349;17.03500287172503;-0.9765625;0.115234375;0.0478515625;-1.5;1.25;-2.4375;
1441975557100888;0.46405029296875;-0.5130615234375;-0.54351806640625;-0.4754638671875;17.287212894550322;12.48865475141695;17.043313939614013;-0.98046875;0.130859375;0.04150390625;-2.1875;1.375;-2.0625;
1441975557123889;0.464599609375;-0.51251220703125;-0.54388427734375;-0.47509765625;17.289190863005658;12.483177402365015;17.043091915405576;-0.97802734375;0.12890625;0.04345703125;-4.6875;1.1875;-1.9375;
1441975557137890;0.46514892578125;-0.51214599609375;-0.5439453125;-0.474853515625;17.293187550531986;12.484645754173775;17.04806376164754;-0.9736328125;0.1259765625;0.04931640625;-5.25;1.0625;-1.8125;
1441975557160892;0.4654541015625;-0.5120849609375;-0.54388427734375;-0.4747314453125;17.295674497775558;12.491019204462347;17.055661447500032;-0.974609375;0.1123046875;0.0478515625;-3.25;1.4375;-1.5;
1441975557183893;0.46563720703125;-0.51214599609375;-0.54388427734375;-0.4744873046875;17.29594583193581;12.502180712992315;17.067873958033605;-0.96826171875;0.11181640625;0.04052734375;-1.3125;1.4375;-0.875;
1441975557197894;0.46588134765625;-0.51202392578125;-0.5440673828125;-0.47412109375;17.295513818771806;12.50899181533277;17.077314634751566;-0.97021484375;0.111328125;0.041015625;-1.0625;1.375;0.0625;
1441975557220895;0.4661865234375;-0.51190185546875;-0.54443359375;-0.4736328125;17.29380050165691;12.517116020062252;17.08911518180783;-0.96923828125;0.11279296875;0.03955078125;-2.5625;0.9375;0.6875;
1441975557243896;0.46630859375;-0.51177978515625;-0.54473876953125;-0.47320556640625;17.291345504904882;12.522061238145927;17.09686754854604;-0.9658203125;0.11376953125;0.03662109375;-3.625;0.8125;1.3125;
1441975557265898;0.46636962890625;-0.5118408203125;-0.54498291015625;-0.4727783203125;17.288249547295898;12.532758470978546;17.1094939946566;-0.96728515625;0.111328125;0.0390625;-2.9375;0.5625;1.5625;
1441975557295899;0.46636962890625;-0.51190185546875;-0.5452880859375;-0.472412109375;17.2845020599798;12.539895037608169;17.11838229716384;-0.97119140625;0.115234375;0.03955078125;-1.75;0.5;1.75;
1441975557303900;0.46649169921875;-0.51177978515625;-0.545654296875;-0.47198486328125;17.281614196807716;12.54369663379885;17.12516430137254;-0.974609375;0.12109375;0.0380859375;-1.625;0.375;1.75;
1441975557325901;0.466796875;-0.51153564453125;-0.546142578125;-0.471435546875;17.279189530348216;12.54755549845118;17.13357768106123;-0.97509765625;0.119140625;0.041015625;-3.125;0.375;1.4375;
1441975557340902;0.46697998046875;-0.51123046875;-0.5465087890625;-0.4710693359375;17.277608085053032;12.544896975191786;17.134428032074982;-0.97216796875;0.1162109375;0.037109375;-4.25;0.25;1.1875;
1441975557363903;0.46722412109375;-0.51104736328125;-0.5467529296875;-0.47076416015625;17.277168165295837;12.54699711322607;17.139331012909363;-0.97509765625;0.11669921875;0.05078125;-3.75;0.5;0.8125;
1441975557385904;0.467529296875;-0.51104736328125;-0.54693603515625;-0.4703369140625;17.276506447401896;12.559691824291233;17.154650445496458;-0.97509765625;0.1162109375;0.0400390625;-2.6875;0.625;0.4375;
1441975557399905;0.46795654296875;-0.5108642578125;-0.54718017578125;-0.46978759765625;17.276451959884714;12.570819112410582;17.1698095841564;-0.96923828125;0.12744140625;0.03466796875;-2.625;1.25;0.0625;
1441975557413906;0.46856689453125;-0.51043701171875;-0.54754638671875;-0.46923828125;17.27776055851233;12.575115687162773;17.17971148673061;-0.9697265625;0.123046875;0.03466796875;-4.125;1.4375;0.125;
1441975557436907;0.46905517578125;-0.510009765625;-0.54791259765625;-0.46881103515625;17.278647116084652;12.5744813059538;17.18398160347938;-0.9794921875;0.1083984375;0.03759765625;-5.4375;1.125;0.3125;
1441975557468909;0.4693603515625;-0.509765625;-0.54827880859375;-0.46826171875;17.277030528460667;12.58015822773286;17.19386920637855;-0.982421875;0.1044921875;0.03955078125;-4.8125;0.75;0.75;
1441975557473909;0.4696044921875;-0.50958251953125;-0.54876708984375;-0.4676513671875;17.273660978501244;12.586425585220756;17.204519195232685;-0.978515625;0.10791015625;0.037109375;-4.1875;0.75;1.625;
1441975557496911;0.46978759765625;-0.50946044921875;-0.54931640625;-0.46697998046875;17.268950017173452;12.594211375893108;17.21668774714374;-0.96875;0.11376953125;0.0361328125;-4.3125;0.625;2.25;
1441975557519912;0.469970703125;-0.50921630859375;-0.5499267578125;-0.46630859375;17.26424262484148;12.597297712176744;17.224686351581195;-0.966796875;0.11962890625;0.03857421875;-4.3125;0.625;2.4375;
1441975557542913;0.47015380859375;-0.50921630859375;-0.55059814453125;-0.46539306640625;17.257241031324984;12.612763424892421;17.24523586648806;-0.96337890625;0.1240234375;0.046875;-4.6875;1.0;2.3125;
1441975557556914;0.470458984375;-0.5091552734375;-0.55133056640625;-0.4642333984375;17.249884497705363;12.633063550533913;17.272029696416833;-0.94775390625;0.1318359375;0.0546875;-5.0;2.375;3.25;
1441975557595916;0.4708251953125;-0.509033203125;-0.5521240234375;-0.46307373046875;17.242746866808105;12.651016172868978;17.2969979280449;-0.947265625;0.12548828125;0.04833984375;-6.125;2.875;4.0;
1441975557598917;0.4710693359375;-0.5089111328125;-0.55316162109375;-0.461669921875;17.23197549727776;12.668916222595856;17.3229744562652;-0.9619140625;0.126953125;0.0439453125;-6.6875;2.5;3.75;
1441975557616918;0.47161865234375;-0.50860595703125;-0.55462646484375;-0.459716796875;17.218827893934005;12.691671439956558;17.35801195708065;-0.95068359375;0.15087890625;0.04931640625;-8.0625;2.8125;4.4375;
1441975557639919;0.47259521484375;-0.5079345703125;-0.556396484375;-0.4573974609375;17.20647117110083;12.713208537171715;17.39603704165506;-0.94189453125;0.17236328125;0.04541015625;-11.875;3.3125;4.0;
1441975557653920;0.47381591796875;-0.5069580078125;-0.55828857421875;-0.45477294921875;17.194794353005637;12.734263512001668;17.436408249577667;-0.93896484375;0.1787109375;0.04638671875;-16.25;4.0;3.75;
1441975557676921;0.47528076171875;-0.50592041015625;-0.56011962890625;-0.45220947265625;17.18572511524944;12.755896303582409;17.477867290131847;-0.92919921875;0.18212890625;0.06103515625;-18.75;5.375;3.25;
1441975557699922;0.47686767578125;-0.5048828125;-0.56195068359375;-0.44940185546875;17.17627783427889;12.783947203091344;17.526810847163212;-0.9326171875;0.173828125;0.05615234375;-19.6875;6.1875;2.5;
1441975557713923;0.47857666015625;-0.5040283203125;-0.56378173828125;-0.44622802734375;17.165012129124438;12.825261970332702;17.589904474067808;-0.93701171875;0.1796875;0.05029296875;-20.1875;6.625;2.875;
1441975557745925;0.4805908203125;-0.503173828125;-0.5655517578125;-0.4427490234375;17.1544659891051;12.877030441512233;17.665039563102937;-0.9228515625;0.19287109375;0.0498046875;-21.125;8.6875;3.25;
1441975557759926;0.482666015625;-0.502197265625;-0.567626953125;-0.43902587890625;17.14137650211249;12.924863772387427;17.738343722894136;-0.93701171875;0.18603515625;0.04541015625;-22.5;10.5625;4.125;
1441975557781927;0.4842529296875;-0.50128173828125;-0.5697021484375;-0.435546875;17.125617218270087;12.960174564074892;17.796882415057393;-0.9404296875;0.173828125;0.02783203125;-24.875;9.3125;6.25;
1441975557796928;0.48480224609375;-0.50103759765625;-0.57171630859375;-0.4326171875;17.102837175724044;12.983890665458267;17.837159023650585;-0.92724609375;0.14794921875;0.0234375;-22.75;6.6875;8.9375;
1441975557819929;0.484619140625;-0.50164794921875;-0.5736083984375;-0.42962646484375;17.071403891772867;13.01665153391534;17.881769519422633;-0.90771484375;0.14453125;0.03076171875;-16.0;4.625;11.875;
1441975557833930;0.4840087890625;-0.50244140625;-0.57586669921875;-0.42633056640625;17.032284628546766;13.043617656172245;17.92079983954224;-0.890625;0.17529296875;0.025390625;-11.25;4.0625;14.5;
1441975557856931;0.483154296875;-0.50311279296875;-0.57830810546875;-0.423095703125;16.99130787853477;13.058425070459503;17.947702303006512;-0.86328125;0.19775390625;0.02783203125;-11.75;3.5;16.625;
1441975557879933;0.481689453125;-0.50433349609375;-0.5804443359375;-0.42047119140625;16.948779783621852;13.069201846989673;17.964578185711837;-0.82080078125;0.1728515625;0.0380859375;-11.5625;2.3125;18.9375;
1441975557901934;0.4794921875;-0.5064697265625;-0.58209228515625;-0.4180908203125;16.901088345660597;13.089738577480029;17.98439618288905;-0.77294921875;0.14111328125;0.03369140625;-5.75;0.6875;21.125;
1441975557925935;0.476806640625;-0.50927734375;-0.5841064453125;-0.4150390625;16.840958387460386;13.117788698533818;0.011400484378999815;-0.74365234375;0.14990234375;0.0390625;1.5;1.25;23.875;
1441975557939936;0.4744873046875;-0.5115966796875;-0.586669921875;-0.41107177734375;16.777145959441615;13.143484436340787;0.04281236467046456;-0.72802734375;0.21240234375;0.04345703125;1.4375;2.8125;26.0625;
1441975557953937;0.4730224609375;-0.51275634765625;-0.58978271484375;-0.4068603515625;16.720127433237316;13.153764354854214;0.06688897547567378;-0.77490234375;0.2763671875;0.033203125;-5.0625;3.0;25.0;
1441975557976938;0.47210693359375;-0.5133056640625;-0.5926513671875;-0.40313720703125;16.67389977084501;13.157184311531449;0.08530977543625647;-0.84228515625;0.2939453125;0.02685546875;-13.375;2.1875;21.625;
1441975558007940;0.47125244140625;-0.51416015625;-0.59417724609375;-0.40069580078125;16.64135402886524;13.16800060857533;0.10282022717008829;-0.89306640625;0.2958984375;0.03271484375;-14.5625;1.6875;17.3125;
1441975558021941;0.47027587890625;-0.515625;-0.59466552734375;-0.3992919921875;16.616693185531247;13.18748915722095;0.1208216720939391;-0.9169921875;0.29638671875;0.03173828125;-6.4375;2.375;11.4375;
1441975558037942;0.469482421875;-0.51702880859375;-0.59454345703125;-0.3985595703125;16.600733323675467;13.208066410579782;0.136885127407401;-0.91650390625;0.31494140625;0.0244140625;1.875;2.9375;6.625;
1441975558059943;0.468994140625;-0.51806640625;-0.59393310546875;-0.398681640625;16.596294912788522;13.223733329926045;0.14603888959162303;-0.89892578125;0.3173828125;0.02587890625;4.9375;3.4375;1.6875;
1441975558073944;0.46826171875;-0.51910400390625;-0.5931396484375;-0.39947509765625;16.595334328751754;13.232219718398794;0.14479774830013134;-0.85302734375;0.267578125;0.0263671875;6.75;2.125;-1.1875;
1441975558096945;0.46710205078125;-0.52044677734375;-0.59210205078125;-0.40057373046875;16.593207715871863;13.240441610094704;0.13961466105108342;-0.7880859375;0.2138671875;0.02734375;9.8125;0.1875;-1.0;
1441975558119946;0.46551513671875;-0.52197265625;-0.5911865234375;-0.40167236328125;16.58677180589628;13.24526156660659;0.12964594096507245;-0.7353515625;0.18603515625;0.01708984375;13.0625;-1.375;0.625;
1441975558133947;0.4635009765625;-0.5235595703125;-0.59088134765625;-0.4024658203125;16.57224930249521;13.242116357932483;0.11295103272078219;-0.705078125;0.17236328125;0.0146484375;14.5;-2.875;3.3125;
1441975558156948;0.4608154296875;-0.5252685546875;-0.5909423828125;-0.40325927734375;16.550821726483914;13.229756647061642;0.08583988303851817;-0.6572265625;0.15283203125;0.0185546875;13.25;-4.375;7.6875;
1441975558179950;0.4569091796875;-0.52801513671875;-0.5906982421875;-0.4044189453125;16.52005775983236;13.220159977072928;0.05305800060563571;-0.59912109375;0.11474609375;0.0341796875;14.0625;-6.375;12.5;
1441975558193951;0.45172119140625;-0.5321044921875;-0.5904541015625;-0.40533447265625;16.47281085225998;13.219579626198945;0.022434570990316777;-0.556640625;0.09814453125;0.04541015625;22.875;-7.5;17.875;
1441975558216952;0.4461669921875;-0.53656005859375;-0.5904541015625;-0.405517578125;16.415643844628327;13.225519152956018;17.999073906507256;-0.53857421875;0.15625;0.04345703125;29.25;-8.3125;22.0;
1441975558239953;0.4410400390625;-0.5401611328125;-0.59149169921875;-0.40484619140625;16.354779965419322;13.22168645154335;17.975107939620056;-0.5712890625;0.2109375;0.01904296875;28.5;-8.9375;24.8125;
1441975558253954;0.43597412109375;-0.5421142578125;-0.593994140625;-0.404052734375;16.293468548487052;13.185766418416842;17.928593115706263;-0.59228515625;0.2021484375;4.8828125E-4;18.75;-10.5625;27.5625;
1441975558276955;0.4298095703125;-0.54461669921875;-0.59625244140625;-0.40399169921875;16.227424095266375;13.147387756026806;17.872007085333642;-0.56201171875;0.14501953125;0.03857421875;9.0625;-15.1875;30.6875;
1441975558299957;0.4228515625;-0.54852294921875;-0.59735107421875;-0.4044189453125;16.158389082802103;13.12989981958228;17.825134631162783;-0.54345703125;0.15185546875;0.07275390625;16.6875;-17.4375;31.9375;
1441975558314958;0.41619873046875;-0.55206298828125;-0.5987548828125;-0.4044189453125;16.088752258367133;13.113283509580363;17.783169795009726;-0.587890625;0.19677734375;0.05078125;27.625;-16.9375;32.375;
1441975558336959;0.40936279296875;-0.55474853515625;-0.6015625;-0.403564453125;16.008627527930376;13.082906995200155;17.73594820412577;-0.64892578125;0.2080078125;0.05810546875;23.75;-16.375;33.8125;
1441975558359960;0.40264892578125;-0.55780029296875;-0.6041259765625;-0.40228271484375;15.926462514597338;13.065209326206965;17.701200141783872;-0.654296875;0.248046875;0.103515625;15.9375;-16.5625;36.4375;
1441975558375961;0.39697265625;-0.56109619140625;-0.6058349609375;-0.4007568359375;15.853979029796244;13.06592622609753;17.68534559545615;-0.71044921875;0.35009765625;0.1162109375;16.25;-13.125;33.375;
1441975558396962;0.39398193359375;-0.56219482421875;-0.60760498046875;-0.39959716796875;15.81155968126306;13.055758605739081;17.67187317272923;-0.880859375;0.4638671875;0.06884765625;15.5;-9.875;26.8125;
1441975558419964;0.39251708984375;-0.56097412109375;-0.6102294921875;-0.39862060546875;15.785693659768977;13.022653653080468;17.64862668237656;-1.083984375;0.419921875;0.048828125;1.75;-9.5625;20.9375;
1441975558433964;0.39031982421875;-0.5604248046875;-0.61273193359375;-0.39776611328125;15.753023829200718;12.993456532265462;17.624490222771588;-1.15478515625;0.27099609375;0.0966796875;-10.3125;-9.375;23.8125;
1441975558472967;0.38702392578125;-0.56048583984375;-0.61572265625;-0.396240234375;15.703222127953916;12.966976702245226;17.60151780974278;-1.130859375;0.2265625;0.0810546875;-6.0;-12.0625;29.9375;
1441975558479967;0.3839111328125;-0.5601806640625;-0.62017822265625;-0.39276123046875;15.63702425022278;12.941219068885204;17.590928823594616;-1.1474609375;0.298828125;0.0693359375;-4.9375;-14.6875;34.25;
1441975558493968;0.381591796875;-0.5596923828125;-0.6246337890625;-0.38861083984375;15.573666550860988;12.92224645384627;17.591992528851602;-1.173828125;0.37548828125;0.06884765625;-16.25;-12.1875;40.0;
1441975558516969;0.3792724609375;-0.55914306640625;-0.62890625;-0.38470458984375;15.512873362762102;12.902871263061252;17.591627134274514;-1.21142578125;0.40576171875;0.046875;-20.9375;-9.875;39.375;
1441975558539970;0.37628173828125;-0.5594482421875;-0.6324462890625;-0.38140869140625;15.451323097201385;12.890312226845785;17.58969606795585;-1.21484375;0.37646484375;0.0556640625;-19.625;-10.3125;41.0;
1441975558553971;0.37298583984375;-0.56072998046875;-0.635009765625;-0.3785400390625;15.391686870426117;12.889513005781142;17.591645279472043;-1.17578125;0.35205078125;0.06982421875;-10.9375;-10.3125;42.375;
1441975558577973;0.3695068359375;-0.56182861328125;-0.63787841796875;-0.37548828125;15.328594337467406;12.88550918295927;17.5918587969536;-1.13134765625;0.341796875;0.0439453125;-3.625;-10.125;41.9375;
1441975558599974;0.36578369140625;-0.56378173828125;-0.6396484375;-0.373291015625;15.271376479924097;12.890281878465837;17.591830304751717;-1.08154296875;0.38525390625;0.07080078125;-4.4375;-9.5625;40.0;
1441975558613975;0.362060546875;-0.566650390625;-0.64007568359375;-0.37176513671875;15.221921252746732;12.907464066006703;17.595535113980258;-1.07373046875;0.42431640625;0.06787109375;3.75;-9.125;35.3125;
1441975558636976;0.35858154296875;-0.56915283203125;-0.640625;-0.370361328125;15.17563725442002;12.920680663514863;17.597036208545603;-1.09814453125;0.4580078125;0.0419921875;12.3125;-8.3125;31.1875;
1441975558667978;0.355224609375;-0.57183837890625;-0.64111328125;-0.3685302734375;15.127499380865865;12.938148923132848;17.60368297686449;-1.05908203125;0.45849609375;0.044921875;10.0625;-8.375;29.125;
1441975558681979;0.3536376953125;-0.57427978515625;-0.6409912109375;-0.3665771484375;15.096233609509941;12.96342362614923;17.622562728512882;-1.00537109375;0.48876953125;0.06494140625;10.5;-4.1875;27.25;
1441975558696979;0.3533935546875;-0.5755615234375;-0.64056396484375;-0.365478515625;15.085679265575294;12.981064029095316;17.637715016312136;-1.04150390625;0.4990234375;0.03662109375;7.0;1.375;21.125;
1441975558719981;0.3519287109375;-0.5767822265625;-0.64031982421875;-0.36541748046875;15.071116055850123;12.987800732380814;17.636005630250345;-1.10302734375;0.48779296875;0.02392578125;2.0;0.8125;13.875;
1441975558733981;0.34942626953125;-0.5797119140625;-0.63885498046875;-0.36572265625;15.051057102809228;13.01040262753306;17.637336080935828;-1.05419921875;0.45361328125;0.0712890625;8.0;-4.0625;14.8125;
1441975558756983;0.34716796875;-0.5841064453125;-0.63592529296875;-0.36602783203125;15.035095879562824;13.054226356211663;17.65189865474663;-0.99951171875;0.48974609375;0.0888671875;21.4375;-1.6875;14.0625;
1441975558779984;0.34649658203125;-0.587158203125;-0.63360595703125;-0.36578369140625;15.029295440068893;13.091443996118983;17.67194333056938;-1.02197265625;0.552734375;0.05419921875;29.9375;3.6875;10.1875;
1441975558801985;0.34765625;-0.58843994140625;-0.632080078125;-0.365234375;15.037607634503797;13.117562752435562;17.69479170779318;-1.04443359375;0.56640625;0.0361328125;18.3125;6.5;5.75;
1441975558815986;0.349365234375;-0.589599609375;-0.6298828125;-0.3656005859375;15.059222640732337;13.14479260818653;17.71601547167236;-1.08837890625;0.56396484375;0.0517578125;5.375;9.625;0.6875;
1441975558838988;0.35052490234375;-0.58990478515625;-0.628662109375;-0.3660888671875;15.075725996286266;13.15684166976218;17.725508022569688;-1.10791015625;0.49169921875;0.013671875;6.8125;7.9375;-1.8125;
1441975558861989;0.35223388671875;-0.59136962890625;-0.6263427734375;-0.365966796875;15.09340238004944;13.190112031345713;17.752972650739093;-1.04345703125;0.5009765625;0.0625;4.0625;5.1875;-2.6875;
1441975558876990;0.35577392578125;-0.5916748046875;-0.62445068359375;-0.365478515625;15.12430826932091;13.220570845536646;17.788798370454316;-1.013671875;0.52490234375;0.03173828125;8.375;12.4375;-5.25;
1441975558898991;0.359130859375;-0.59124755859375;-0.62335205078125;-0.36468505859375;15.150636515907618;13.241373339520234;17.819845916303507;-1.05419921875;0.48291015625;0.005859375;-2.3125;15.5;-7.75;
1441975558913992;0.36187744140625;-0.5921630859375;-0.62158203125;-0.36346435546875;15.16737853147967;13.277259141668399;17.85949106335062;-0.998046875;0.43701171875;0.02197265625;-7.125;14.375;-5.375;
1441975558937993;0.36383056640625;-0.595458984375;-0.618408203125;-0.361572265625;15.170274322891476;13.341486832903321;17.9159583161304;-0.923828125;0.4228515625;0.01513671875;0.625;18.1875;-2.25;
1441975558958994;0.3662109375;-0.59832763671875;-0.615966796875;-0.35858154296875;15.16611961247197;13.404097028854727;17.978755858534495;-0.9111328125;0.49951171875;-0.03173828125;12.3125;23.125;-0.5;
1441975558973995;0.36962890625;-0.60064697265625;-0.6142578125;-0.35400390625;15.156140251059076;13.468543526549254;0.0549469707802767;-1.0390625;0.68310546875;-0.0380859375;5.3125;25.875;-4.125;
1441975558995996;0.37384033203125;-0.60076904296875;-0.614990234375;-0.34820556640625;15.141107664532889;13.507302403991906;0.12512932657795883;-1.0634765625;0.63818359375;-0.11962890625;-6.6875;28.375;1.75;
1441975559018998;0.37457275390625;-0.60345458984375;-0.615478515625;-0.341796875;15.08694095105975;13.551921893809272;0.18453067595025535;-0.96630859375;0.52685546875;-0.03759765625;-24.375;31.0;7.6875;
1441975559041999;0.3765869140625;-0.6119384765625;-0.6116943359375;-0.3310546875;14.997830124715389;13.686320727300696;0.32065382355731553;-0.88916015625;0.6396484375;0.32763671875;4.0625;49.8125;17.5625;
1441975559057000;0.3851318359375;-0.61346435546875;-0.61456298828125;-0.31268310546875;14.897134923888496;13.773857076435949;0.4925617291637153;-1.0498046875;1.01416015625;0.1669921875;23.9375;81.8125;16.5;
1441975559079001;0.40185546875;-0.59893798828125;-0.63018798828125;-0.28753662109375;14.830944656868473;13.720526432361357;0.6544306054577279;-1.23388671875;1.1748046875;-0.115234375;-61.3125;88.0625;16.625;
1441975559102003;0.41644287109375;-0.58795166015625;-0.64208984375;-0.2620849609375;14.744836201611134;13.703243881757345;0.8266827618145095;-1.20458984375;0.68017578125;-0.04443359375;-191.5625;87.125;26.625;
1441975559116003;0.4334716796875;-0.56268310546875;-0.662841796875;-0.23687744140625;14.727096103063236;13.547901693288235;0.9375093087929489;-1.18212890625;0.57763671875;-0.59716796875;-168.3125;86.5;38.625;
1441975559139005;0.44488525390625;-0.5390625;-0.67974853515625;-0.22247314453125;14.76312777474507;13.37667481094337;0.9663208646283874;-1.18310546875;0.89013671875;0.2255859375;-246.625;63.6875;4.375;
1441975559162006;0.441650390625;-0.5430908203125;-0.67852783203125;-0.2227783203125;14.727703758432085;13.393843565680541;0.9577904802322776;-1.1826171875;0.396484375;0.22802734375;-193.5;18.8125;-12.9375;
1441975559177007;0.43621826171875;-0.560302734375;-0.66796875;-0.2227783203125;14.634352205171098;13.543488302600974;1.0090906256606518;-1.42919921875;0.58251953125;0.0078125;23.6875;-7.1875;37.875;
1441975559199008;0.4287109375;-0.57598876953125;-0.65838623046875;-0.22576904296875;14.5547496715125;13.657629130246;1.0166709349835945;-1.0361328125;0.54833984375;-0.31640625;94.875;9.3125;54.5625;
1441975559222009;0.4234619140625;-0.58209228515625;-0.65234375;-0.23748779296875;14.598372376589078;13.685480439593055;0.9553598508168449;-1.09716796875;0.64599609375;-0.3115234375;105.1875;1.6875;41.3125;
1441975559237010;0.410888671875;-0.59075927734375;-0.64923095703125;-0.24639892578125;14.554955808375443;13.680462717660616;0.850708479372316;-1.34521484375;0.3701171875;-0.0390625;77.625;-35.0625;11.8125;
1441975559259012;0.39544677734375;-0.6060791015625;-0.6414794921875;-0.2547607421875;14.469264097199233;13.734743964426244;0.764851684071764;-0.93798828125;0.4140625;0.087890625;86.0;-50.0;38.9375;
1441975559282013;0.3763427734375;-0.6246337890625;-0.63067626953125;-0.26556396484375;14.374552716563043;13.808302664970721;0.6606570581450797;-0.92822265625;0.45849609375;-0.03515625;124.6875;-45.875;48.75;
1441975559297014;0.35784912109375;-0.63934326171875;-0.623291015625;-0.2735595703125;14.272823004797234;13.848451935205148;0.5547840715352007;-1.03759765625;0.6767578125;-0.10791015625;157.625;-56.5;53.9375;
1441975559319015;0.34039306640625;-0.65179443359375;-0.617919921875;-0.27838134765625;14.158647800265728;13.876302276512064;0.46166280175938035;-1.0361328125;0.86083984375;-0.05078125;125.5625;-56.375;56.875;
1441975559342016;0.32171630859375;-0.663818359375;-0.61248779296875;-0.2843017578125;14.048406587115684;13.898279429763036;0.35592145396321473;-0.96435546875;0.79443359375;-0.123046875;101.125;-49.75;63.375;
1441975559356017;0.3016357421875;-0.67572021484375;-0.60675048828125;-0.29052734375;13.933775312427455;13.91924169630978;0.24245208818371683;-0.935546875;0.83154296875;-0.16259765625;103.75;-59.3125;62.5;
1441975559379018;0.2799072265625;-0.68597412109375;-0.6021728515625;-0.29754638671875;13.818338267076133;13.921548692560854;0.11031429694860567;-0.8388671875;0.76904296875;-0.18359375;107.0;-65.375;66.5625;
1441975559402020;0.25732421875;-0.696533203125;-0.59759521484375;-0.30255126953125;13.680283015545287;13.931503112587116;17.986872953956016;-0.85791015625;0.734375;-0.05859375;102.375;-77.1875;70.1875;
1441975559417021;0.23602294921875;-0.70721435546875;-0.59368896484375;-0.30291748046875;13.512466961926886;13.955135343538307;17.89506851792259;-0.712890625;0.6748046875;-0.052734375;101.5;-71.625;80.3125;
1441975559439022;0.21917724609375;-0.7159423828125;-0.59149169921875;-0.29931640625;13.345818476801062;13.980392407612754;17.841076555035198;-0.62255859375;0.76904296875;-0.0361328125;93.9375;-46.9375;84.875;
1441975559462023;0.20806884765625;-0.7210693359375;-0.59112548828125;-0.29571533203125;13.225085044976659;13.99138377223383;17.8081239831064;-0.64013671875;0.88427734375;-0.076171875;66.625;-22.6875;78.0625;
1441975559476024;0.19970703125;-0.72381591796875;-0.591064453125;-0.29486083984375;13.15189780929507;13.990149393526636;17.772272609251576;-0.73828125;0.84033203125;-0.1494140625;33.0;-14.125;61.8125;
1441975559499025;0.19024658203125;-0.727783203125;-0.5894775390625;-0.29443359375;13.075573867178022;14.000552761421783;17.734110608368137;-0.79443359375;0.6611328125;-0.1328125;21.6875;-19.0;50.8125;
1441975559530027;0.1788330078125;-0.7342529296875;-0.58563232421875;-0.29315185546875;12.9787973501178;14.033232611972373;17.69843078419992;-0.70703125;0.5908203125;-0.0947265625;36.0625;-19.625;52.4375;
1441975559537027;0.16888427734375;-0.73919677734375;-0.5831298828125;-0.291748046875;12.8919221214475;14.054903957855128;17.665761092716647;-0.6240234375;0.70751953125;-0.126953125;56.125;-17.8125;53.75;
1441975559559029;0.16302490234375;-0.7398681640625;-0.58380126953125;-0.29193115234375;12.8485086771921;14.044670641400362;17.634408392571167;-0.61083984375;0.75390625;-0.17724609375;40.8125;-18.0625;46.9375;
1441975559582030;0.1597900390625;-0.73931884765625;-0.5845947265625;-0.29351806640625;12.83755767482387;14.030026066302158;17.608125422310916;-0.587890625;0.60595703125;-0.1298828125;8.5;-19.3125;31.25;
1441975559605031;0.15765380859375;-0.7391357421875;-0.58441162109375;-0.295654296875;12.84074177810194;14.022799339188865;17.587294022025702;-0.556640625;0.48974609375;-0.0830078125;2.1875;-17.375;18.0;
1441975559619032;0.1566162109375;-0.7376708984375;-0.5848388671875;-0.29888916015625;12.861746760220463;14.006074269087357;17.563701724086844;-0.49609375;0.4423828125;-0.095703125;4.6875;-15.5;8.75;
1441975559642033;0.1566162109375;-0.734619140625;-0.586181640625;-0.3038330078125;12.904571583970096;13.975270380306881;17.532858981365298;-0.42578125;0.4091796875;-0.0673828125;-1.5625;-18.75;-2.0625;
1441975559657034;0.15869140625;-0.729736328125;-0.5880126953125;-0.3109130859375;12.981530516327389;13.931501115441558;17.497583723033685;-0.33251953125;0.3544921875;-0.04443359375;-10.625;-26.5;-15.125;
1441975559679036;0.1632080078125;-0.7244873046875;-0.5888671875;-0.319091796875;13.088207240476951;13.891205129463536;17.469117796815333;-0.23974609375;0.2841796875;-0.00390625;-19.4375;-31.4375;-33.4375;
1441975559704037;0.1712646484375;-0.7188720703125;-0.587646484375;-0.32965087890625;13.24671743375322;13.858617699700405;17.44828458098668;-0.2294921875;0.31787109375;-0.001953125;-19.75;-27.5625;-52.25;
1441975559717038;0.1822509765625;-0.71197509765625;-0.58526611328125;-0.3426513671875;13.452334352324737;13.822824458560186;17.42739498441178;-0.31103515625;0.33203125;-0.041015625;-18.625;-25.5625;-76.375;
1441975559739039;0.196533203125;-0.70379638671875;-0.5816650390625;-0.35748291015625;13.70343701964793;13.78554265014106;17.41066928073583;-0.36865234375;0.38623046875;-0.06689453125;-21.6875;-27.6875;-100.6875;
1441975559761040;0.21405029296875;-0.69464111328125;-0.57598876953125;-0.3741455078125;14.002318991252505;13.75266371252729;17.399817143855394;-0.4150390625;0.41845703125;-0.10302734375;-26.1875;-25.8125;-124.0625;
1441975559776041;0.2332763671875;-0.68609619140625;-0.56597900390625;-0.3931884765625;14.346841279085735;13.741941991206103;17.394091318358036;-0.47998046875;0.349609375;-0.10302734375;-25.5625;-22.1875;-147.5;
1441975559799042;0.25384521484375;-0.677001953125;-0.55267333984375;-0.41461181640625;14.733834147346206;13.741352046128803;17.387167394197103;-0.56201171875;0.37939453125;-0.16064453125;-7.5625;-19.8125;-170.875;
1441975559821044;0.27423095703125;-0.66595458984375;-0.53778076171875;-0.4383544921875;15.149159247373058;13.72431055182496;17.357059646176495;-0.63525390625;0.3583984375;-0.181640625;3.5625;-22.625;-191.8125;
1441975559837045;0.295166015625;-0.6527099609375;-0.52069091796875;-0.46453857421875;15.602684781790577;13.685115376416231;17.298947926143544;-0.666015625;0.37353515625;-0.13916015625;8.25;-33.8125;-206.1875;
1441975559859046;0.31842041015625;-0.63671875;-0.50128173828125;-0.491943359375;16.101555580154248;13.619002045378668;17.2179424230035;-0.69580078125;0.40625;-0.1064453125;12.125;-43.125;-226.1875;
1441975559882047;0.3409423828125;-0.6195068359375;-0.4796142578125;-0.51959228515625;16.611712923530064;13.500291904395429;17.077022930457844;-0.84228515625;0.23681640625;-0.12060546875;8.4375;-44.5625;-246.8125;
1441975559896048;0.36077880859375;-0.60260009765625;-0.45562744140625;-0.5469970703125;17.108270943257132;13.249947506248523;16.788059715765076;-0.98583984375;0.0439453125;-0.09033203125;16.3125;-46.75;-251.0;
1441975559919049;0.37774658203125;-0.5860595703125;-0.431396484375;-0.57257080078125;17.551661407562644;12.459196529896813;15.952093825100723;-1.04638671875;-0.0537109375;-0.0439453125;32.9375;-47.375;-246.6875;
1441975559941051;0.3929443359375;-0.57037353515625;-0.40814208984375;-0.59478759765625;17.7669726136889;8.869623352768444;12.320603027855569;-1.0390625;-0.0986328125;0.0107421875;40.25;-45.9375;-232.6875;
1441975559965052;0.404541015625;-0.55718994140625;-0.3851318359375;-0.614501953125;17.509565247147638;6.365626870420914;9.763464207913563;-1.09375;-0.24609375;0.046875;37.6875;-38.625;-212.25;
1441975559979053;0.41143798828125;-0.54608154296875;-0.3614501953125;-0.634033203125;17.179631780684424;5.858309584161687;9.180493957016465;-1.1240234375;-0.35546875;0.07958984375;49.4375;-29.8125;-187.5;
1441975560001054;0.4168701171875;-0.534423828125;-0.340576171875;-0.651611328125;16.865076358585014;5.718518829949054;8.974900762556809;-1.18798828125;-0.29833984375;-0.03662109375;72.3125;-33.5625;-171.75;
1441975560016055;0.4237060546875;-0.5224609375;-0.32354736328125;-0.66546630859375;16.581705508653474;5.641084413583378;8.858236744370426;-1.203125;-0.2236328125;-0.00244140625;63.125;-38.6875;-156.75;
1441975560039056;0.43048095703125;-0.51092529296875;-0.30950927734375;-0.67669677734375;16.33132140784653;5.5976737489936355;8.790317758854114;-1.14013671875;-0.2294921875;-0.021484375;36.9375;-35.375;-140.75;
1441975560062057;0.4326171875;-0.5020751953125;-0.29595947265625;-0.68792724609375;16.122460583369296;5.609792231130222;8.757489252664985;-1.1396484375;-0.36865234375;-0.01416015625;22.8125;-33.5;-121.9375;
1441975560077058;0.4293212890625;-0.498291015625;-0.282470703125;-0.6983642578125;15.97866537683509;5.648849086776415;8.723343075759416;-1.103515625;-0.29248046875;0.02587890625;43.5625;-31.75;-101.5;
1441975560099060;0.424072265625;-0.4969482421875;-0.2698974609375;-0.7073974609375;15.874001661452082;5.691104079856927;8.686250605704442;-1.068359375;-0.12939453125;0.0205078125;72.0;-25.75;-86.1875;
1441975560121061;0.4207763671875;-0.494140625;-0.2591552734375;-0.71533203125;15.76622741147126;5.7250755543112195;8.659423031167483;-1.080078125;0.017578125;-0.05615234375;78.0;-23.3125;-79.9375;
1441975560137062;0.41943359375;-0.4886474609375;-0.24896240234375;-0.72344970703125;15.632141344239217;5.757279701167487;8.644679262009628;-1.05810546875;0.0654296875;-0.08935546875;60.1875;-30.25;-83.5625;
1441975560159063;0.419921875;-0.48162841796875;-0.23944091796875;-0.7310791015625;15.485175733930024;5.779016269149136;8.632358830444302;-0.9501953125;0.04931640625;-0.04638671875;46.125;-36.8125;-90.875;
1441975560181064;0.42138671875;-0.47491455078125;-0.22930908203125;-0.73779296875;15.338084342454888;5.781452807450295;8.603095555030103;-0.92626953125;0.0263671875;-0.00927734375;32.9375;-39.375;-95.125;
1441975560196065;0.4222412109375;-0.46966552734375;-0.218505859375;-0.74395751953125;15.203893632548295;5.778192608874509;8.561428551082837;-0.86328125;-0.03515625;-0.03271484375;30.0625;-34.0;-94.5625;
1441975560219066;0.42279052734375;-0.46533203125;-0.2080078125;-0.74932861328125;15.08350319983723;5.772825029921814;8.517203374604923;-0.79345703125;-0.03271484375;-0.03369140625;34.9375;-24.9375;-90.0;
1441975560241068;0.42401123046875;-0.4598388671875;-0.19744873046875;-0.7548828125;14.949991182730939;5.7692478666009785;8.478707604438624;-0.8056640625;0.00830078125;-0.03564453125;34.4375;-20.75;-88.8125;
1441975560256069;0.42376708984375;-0.45379638671875;-0.187255859375;-0.76123046875;14.816315909143055;5.786568269254938;8.456297677868214;-0.82080078125;-0.08447265625;-0.02880859375;31.6875;-25.4375;-90.125;
1441975560279070;0.42279052734375;-0.4486083984375;-0.1768798828125;-0.767333984375;14.692494763806105;5.804848215725298;8.429977029820796;-0.796875;-0.07470703125;0.03662109375;36.6875;-29.0625;-87.5;
1441975560301071;0.4224853515625;-0.444091796875;-0.16748046875;-0.772216796875;14.58244428772983;5.813581580819112;8.401134240983119;-0.73828125;-0.052734375;0.04443359375;39.5625;-23.9375;-84.1875;
1441975560316072;0.42315673828125;-0.4395751953125;-0.15899658203125;-0.77618408203125;14.47775815747272;5.814467584612879;8.37316070877857;-0.68359375;-0.03466796875;0.0400390625;31.9375;-19.4375;-78.5625;
1441975560339073;0.42279052734375;-0.43560791015625;-0.150634765625;-0.78033447265625;14.381527646873158;5.823072466522561;8.347878322883297;-0.64599609375;-0.046875;0.03369140625;23.5;-18.375;-74.6875;
1441975560370075;0.42095947265625;-0.43280029296875;-0.14300537109375;-0.7843017578125;14.30546212616514;5.840146776904161;8.32629143728636;-0.65283203125;-0.03076171875;0.0244140625;28.625;-18.6875;-72.0;
1441975560376075;0.42138671875;-0.4306640625;-0.13763427734375;-0.78619384765625;14.247617595533551;5.836615698379104;8.304006997676048;-0.62451171875;0.09814453125;-0.013671875;33.0625;-17.9375;-68.75;
1441975560399077;0.42523193359375;-0.42828369140625;-0.1346435546875;-0.785888671875;14.196893752523447;5.807379949640233;8.282902838198684;-0.5927734375;0.1611328125;-0.060546875;13.25;-15.125;-63.25;
1441975560422078;0.42779541015625;-0.42718505859375;-0.1326904296875;-0.78546142578125;14.16802220207762;5.785800199844036;8.266440657517427;-0.56640625;0.095703125;-0.06201171875;-12.125;-14.125;-55.4375;
1441975560436079;0.42755126953125;-0.42852783203125;-0.13128662109375;-0.78509521484375;14.17296533190779;5.777640231502717;8.250108909205315;-0.56689453125;0.0888671875;-0.03955078125;-8.875;-10.0;-44.1875;
1441975560460080;0.42596435546875;-0.4315185546875;-0.13226318359375;-0.78411865234375;14.213046361485635;5.777112801227669;8.243598515555655;-0.59814453125;0.07958984375;-0.05126953125;5.0;-3.5;-29.8125;
1441975560481081;0.4227294921875;-0.435791015625;-0.13409423828125;-0.783203125;14.274933836547273;5.786462997968776;8.24150530658329;-0.65771484375;0.126953125;-0.09130859375;5.9375;-5.0;-15.875;
1441975560496082;0.41619873046875;-0.44293212890625;-0.13787841796875;-0.78204345703125;14.385663880203136;5.814252761351145;8.24805705686625;-0.63720703125;0.04052734375;-0.119140625;14.6875;-3.6875;0.875;
1441975560519084;0.40826416015625;-0.45501708984375;-0.14501953125;-0.77801513671875;14.572912721890232;5.832660297884639;8.249323282183187;-0.63037109375;0.138671875;-0.1083984375;24.0625;3.375;20.5;
1441975560541085;0.4061279296875;-0.46710205078125;-0.1566162109375;-0.76971435546875;14.779934598572943;5.801413871529324;8.247939272429887;-0.62939453125;0.37939453125;-0.26318359375;19.875;15.375;40.125;
1441975560558086;0.40301513671875;-0.47808837890625;-0.169921875;-0.76171875;14.990919989113769;5.789171535414709;8.269421703361923;-0.6201171875;0.32177734375;-0.38134765625;-22.5;14.0;53.25;
1441975560579087;0.39501953125;-0.49169921875;-0.18243408203125;-0.7542724609375;15.235812486155055;5.806994450745197;8.293561342817075;-0.80419921875;0.0830078125;-0.1962890625;-25.625;11.875;69.5;
1441975560601088;0.3878173828125;-0.5098876953125;-0.199951171875;-0.74139404296875;15.565976390438617;5.788992305529065;8.3050924838115;-0.9296875;0.2353515625;-0.15869140625;-2.625;37.5;104.75;
1441975560618089;0.3836669921875;-0.52728271484375;-0.22406005859375;-0.72430419921875;15.934334589260255;5.75447508867423;8.344434705589975;-1.1240234375;0.48876953125;-0.37451171875;-27.5625;58.1875;135.8125;
1441975560639090;0.37359619140625;-0.54571533203125;-0.24822998046875;-0.7078857421875;16.33330829889149;5.795561022194491;8.433849035797813;-1.349609375;0.32080078125;-0.44970703125;-69.1875;54.5625;160.125;
1441975560661092;0.35223388671875;-0.573974609375;-0.26934814453125;-0.6884765625;16.852757286343746;5.8943051309701;8.515689905008278;-1.40576171875;-0.033203125;-0.17529296875;-42.75;53.9375;187.0;
1441975560678093;0.3319091796875;-0.60504150390625;-0.29803466796875;-0.6595458984375;17.47985177139719;6.082960563831465;8.730942001081994;-1.46240234375;0.1962890625;-0.197265625;19.5625;94.375;232.8125;
1441975560699094;0.32037353515625;-0.62847900390625;-0.34246826171875;-0.62060546875;17.809939174048775;13.083025490435986;15.878345308847305;-1.8359375;0.4833984375;-0.40234375;-24.25;119.875;276.625;
1441975560721095;0.2904052734375;-0.657470703125;-0.3807373046875;-0.58184814453125;17.044368216728223;14.074870594419961;16.918608924095725;-2.60205078125;-0.5;-0.04833984375;-144.6875;119.5625;319.8125;
1441975560738096;0.24798583984375;-0.69171142578125;-0.4078369140625;-0.5419921875;16.218214693534172;14.256542535987382;17.05600270091614;-2.7509765625;-0.71142578125;0.36181640625;-46.0;113.875;374.125;
1441975560759097;0.20196533203125;-0.72564697265625;-0.4415283203125;-0.48760986328125;15.236930195597454;14.343806148786134;17.137888552629516;-2.5263671875;0.0068359375;0.2314453125;48.1875;126.9375;395.0;
1441975560781099;0.17449951171875;-0.7362060546875;-0.49871826171875;-0.42291259765625;14.281937976616984;14.193505750704835;17.208313869334308;-2.60107421875;0.63037109375;-0.3779296875;11.0625;166.0;464.0;
1441975560798100;0.1376953125;-0.7440185546875;-0.5411376953125;-0.36712646484375;13.404537903078822;14.081462596839437;17.22366800041187;-2.66259765625;0.4755859375;-0.0205078125;-210.0;163.75;451.6875;
1441975560819101;0.0909423828125;-0.7655029296875;-0.5450439453125;-0.32977294921875;12.715448314943785;14.18375379203234;17.197969372707885;-2.42333984375;0.10888671875;-0.12353515625;-123.75;107.0;426.5;
1441975560841102;0.04443359375;-0.79412841796875;-0.5277099609375;-0.29833984375;12.137820960503428;14.404519861197873;17.168698737532996;-2.31884765625;-0.09130859375;0.111328125;119.125;56.25;340.9375;
1441975560858103;0.01519775390625;-0.811279296875;-0.51666259765625;-0.27349853515625;11.734866826374805;14.544145485083325;17.155990314494048;-1.98828125;0.55810546875;0.02783203125;240.0;64.6875;308.3125;
