1441975671609438;0.14105224609375;-0.74072265625;-0.61309814453125;-0.23590087890625;12.149186385320816;13.962314286577838;17.729852510592238;-1.5107421875;-0.09326171875;0.15380859375;14.3125;36.25;195.375;
1441975671630439;0.126953125;-0.7462158203125;-0.6187744140625;-0.2103271484375;11.809757380370378;13.975753343334627;17.76977598074633;-1.34814453125;-0.2255859375;0.2138671875;-9.3125;49.1875;191.6875;
1441975671653440;0.11529541015625;-0.749755859375;-0.62530517578125;-0.18341064453125;11.47831742680936;13.97795330590147;17.821654257976558;-1.24853515625;-0.087890625;0.11767578125;-5.0;65.875;181.25;
1441975671669441;0.10809326171875;-0.7491455078125;-0.63458251953125;-0.15655517578125;11.182132534965568;13.951429190521738;17.886609070655055;-1.10205078125;0.1689453125;-0.0390625;-20.9375;76.1875;171.5625;
1441975671693442;0.10504150390625;-0.74505615234375;-0.64556884765625;-0.13116455078125;10.93317886028737;13.902572314276352;17.961057993547822;-0.9208984375;0.40625;-0.1025390625;-52.625;84.6875;148.5625;
1441975671713444;0.10858154296875;-0.73846435546875;-0.65625;-0.1109619140625;10.78404037596377;13.844309086565769;0.04432657442443833;-0.701171875;0.50390625;-0.111328125;-75.5;88.125;121.125;
1441975671729444;0.11566162109375;-0.7325439453125;-0.6641845703125;-0.09454345703125;10.698570241307571;13.799825806553963;0.1314341165213668;-0.52880859375;0.53173828125;-0.037109375;-82.9375;91.875;87.0;
1441975671750446;0.1260986328125;-0.72711181640625;-0.6700439453125;-0.08111572265625;10.667281526716033;13.766666681331344;0.22350929796643726;-0.50390625;0.5849609375;-0.0625;-70.1875;90.0625;54.6875;
1441975671781447;0.1385498046875;-0.720458984375;-0.67596435546875;-0.070068359375;10.675291313382466;13.728852168619968;0.31447244932060553;-0.49365234375;0.64013671875;-0.11376953125;-63.25;90.125;27.0;
1441975671789448;0.15289306640625;-0.71337890625;-0.68109130859375;-0.06195068359375;10.725675853794849;13.693822360857578;0.4025563184763489;-0.44775390625;0.73193359375;-0.1103515625;-67.1875;86.75;3.625;
1441975671811449;0.1688232421875;-0.70526123046875;-0.686279296875;-0.0570068359375;10.81852647326946;13.655850213134988;0.48435832810765445;-0.3740234375;0.8037109375;-0.12548828125;-65.4375;81.375;-23.0;
1441975671833450;0.1866455078125;-0.6981201171875;-0.68896484375;-0.0562744140625;10.961760424413297;13.6349836805231;0.5602826844459645;-0.37646484375;0.76171875;-0.0771484375;-65.125;74.875;-42.6875;
1441975671850451;0.20648193359375;-0.69219970703125;-0.68902587890625;-0.0595703125;11.152963109058673;13.633910771181345;0.6325978810915978;-0.439453125;0.75634765625;-0.0869140625;-48.8125;67.1875;-64.0;
1441975671870453;0.2264404296875;-0.68695068359375;-0.6876220703125;-0.0643310546875;11.356191262212832;13.644475981895765;0.7027459411313884;-0.525390625;0.77392578125;-0.0595703125;-28.0;63.25;-84.3125;
1441975671901454;0.24859619140625;-0.67877197265625;-0.6875;-0.0701904296875;11.591621530769023;13.643208829844829;0.7769091099099997;-0.5546875;0.86083984375;-0.052734375;-16.375;60.125;-101.8125;
1441975671916455;0.2713623046875;-0.66796875;-0.6885986328125;-0.078369140625;11.857793640956693;13.628917606686276;0.8425290969425776;-0.58251953125;0.87744140625;-0.099609375;-33.0;61.0625;-118.4375;
1441975671930456;0.2945556640625;-0.6575927734375;-0.687744140625;-0.0888671875;12.146600585088585;13.628676887779514;0.9055184593819825;-0.7099609375;0.74365234375;-0.04248046875;-44.6875;52.125;-131.1875;
1441975671961458;0.317626953125;-0.649658203125;-0.68310546875;-0.1021728515625;12.451985275858389;13.65957024974025;0.9678867673122562;-0.8154296875;0.65966796875;-0.0185546875;-31.625;48.4375;-140.8125;
1441975671969458;0.34100341796875;-0.6429443359375;-0.6756591796875;-0.117919921875;12.776225265160567;13.714856189928522;1.0337598041588716;-0.9228515625;0.63232421875;-0.009765625;-2.5625;45.0625;-148.3125;
1441975671990459;0.36627197265625;-0.63397216796875;-0.667724609375;-0.13458251953125;13.128091741077002;13.775296855986506;1.1130080750760867;-0.9248046875;0.69677734375;-0.04150390625;16.6875;43.0625;-160.25;
1441975672013461;0.39178466796875;-0.62078857421875;-0.66168212890625;-0.15289306640625;13.509274996165107;13.815817763730813;1.1864065318551575;-0.93212890625;0.8037109375;-0.1240234375;9.25;45.5625;-177.625;
1441975672029462;0.41607666015625;-0.6058349609375;-0.656005859375;-0.171875;13.894877106026174;13.851020288244978;1.2552325717946915;-1.04248046875;0.67724609375;-0.0595703125;-9.4375;34.1875;-190.75;
1441975672050463;0.439208984375;-0.5931396484375;-0.64678955078125;-0.19232177734375;14.277482781718733;13.924874241405014;1.3371957740265867;-1.10107421875;0.5390625;0.02685546875;-14.1875;26.25;-191.5;
1441975672073464;0.46051025390625;-0.58221435546875;-0.6343994140625;-0.21575927734375;14.6666140651985;14.034977508581042;1.4265090948416765;-1.1640625;0.46923828125;0.015625;11.3125;27.375;-191.25;
1441975672089465;0.48065185546875;-0.569580078125;-0.621826171875;-0.2406005859375;15.067349976190195;14.154280622963732;1.5231667097831771;-1.216796875;0.4951171875;-0.0576171875;37.4375;19.625;-196.1875;
1441975672111466;0.500732421875;-0.552978515625;-0.61126708984375;-0.26446533203125;15.476307918340547;14.26786464011604;1.6358605128711556;-1.2197265625;0.59619140625;-0.0859375;37.3125;9.125;-205.4375;
1441975672133468;0.51959228515625;-0.53399658203125;-0.60211181640625;-0.2869873046875;15.877705372979;14.386375948673049;1.7663074693449532;-1.28125;0.49951171875;-0.10107421875;13.625;0.5625;-209.625;
1441975672149468;0.53692626953125;-0.5155029296875;-0.591796875;-0.3094482421875;16.265584757289737;14.562532315306097;1.9463331572448803;-1.2841796875;0.38330078125;-0.0380859375;-0.75;-6.0;-205.6875;
1441975672170470;0.55255126953125;-0.49853515625;-0.579345703125;-0.33251953125;16.63420296056195;14.855916594209969;2.22725266352063;-1.21142578125;0.32177734375;0.00390625;6.625;-6.375;-202.1875;
1441975672193471;0.56622314453125;-0.48187255859375;-0.566650390625;-0.3551025390625;16.971415597586827;15.313207734229906;2.6674822543076533;-1.197265625;0.27880859375;-0.0029296875;23.25;-4.75;-199.1875;
1441975672210472;0.57843017578125;-0.46435546875;-0.55517578125;-0.37628173828125;17.261390052231878;16.067481219992818;3.411564711022229;-1.21435546875;0.27734375;-0.0498046875;26.6875;-9.375;-192.75;
1441975672230473;0.5892333984375;-0.446044921875;-0.54522705078125;-0.39581298828125;17.458701236434433;17.389934883099098;4.732105921737429;-1.22412109375;0.2197265625;-0.0986328125;18.9375;-16.875;-184.8125;
1441975672270475;0.59881591796875;-0.42803955078125;-0.53607177734375;-0.41339111328125;17.477758138651065;1.1706490010533437;6.5152440231751125;-1.22314453125;0.1357421875;-0.09619140625;9.9375;-23.8125;-175.125;
1441975672272476;0.6072998046875;-0.41119384765625;-0.52734375;-0.428955078125;17.33596039562419;2.452117144654992;7.800300517794364;-1.1650390625;0.10400390625;-0.072265625;5.0625;-24.4375;-163.4375;
1441975672290477;0.61407470703125;-0.39581298828125;-0.51934814453125;-0.44329833984375;17.140595793191988;3.156894420187565;8.505514433659933;-1.11669921875;0.06201171875;-0.0927734375;3.0625;-22.25;-150.0625;
1441975672321478;0.61773681640625;-0.38299560546875;-0.51165771484375;-0.458251953125;16.94466948226869;3.601721943334868;8.933604728894728;-1.11962890625;-0.03515625;-0.119140625;5.8125;-24.0;-134.4375;
1441975672331479;0.6182861328125;-0.37322998046875;-0.50421142578125;-0.47357177734375;16.76663465089403;3.9182949680397785;9.215238590954396;-1.10546875;-0.1005859375;-0.11083984375;22.8125;-29.1875;-119.125;
1441975672353480;0.61737060546875;-0.36749267578125;-0.49810791015625;-0.4854736328125;16.63746136511485;4.104714964880289;9.364330580182848;-1.04638671875;-0.03271484375;-0.0986328125;40.8125;-32.25;-103.5625;
1441975672373481;0.61627197265625;-0.36248779296875;-0.493896484375;-0.49493408203125;16.534910687786667;4.247168440649907;9.479152187913536;-0.98095703125;0.0322265625;-0.13818359375;43.25;-29.25;-87.8125;
1441975672389482;0.61383056640625;-0.35833740234375;-0.49090576171875;-0.50384521484375;16.45188878315191;4.388944677754927;9.591947437425741;-0.96728515625;0.00927734375;-0.154296875;34.125;-30.875;-71.9375;
1441975672410483;0.6092529296875;-0.356689453125;-0.48846435546875;-0.51287841796875;16.394929650549763;4.533416249224252;9.6949300733692;-0.92724609375;-0.0654296875;-0.12158203125;35.125;-34.1875;-56.375;
1441975672441485;0.6031494140625;-0.35791015625;-0.4869384765625;-0.52069091796875;16.37402294514114;4.667252663269147;9.780402348155103;-0.85791015625;-0.0595703125;-0.09619140625;47.25;-34.25;-41.6875;
1441975672449486;0.5966796875;-0.36041259765625;-0.48638916015625;-0.52679443359375;16.37712372473238;4.789176547907962;9.856879157712767;-0.7998046875;0.01904296875;-0.1044921875;53.5625;-32.0;-26.5;
1441975672470487;0.590087890625;-0.363525390625;-0.48724365234375;-0.53131103515625;16.40023628987715;4.910347648544504;9.93903018751232;-0.7890625;0.02197265625;-0.11328125;50.6875;-30.25;-13.5625;
1441975672493488;0.58270263671875;-0.3675537109375;-0.4892578125;-0.5347900390625;16.44294158599156;5.044749011300548;10.035783592672873;-0.80126953125;-0.0322265625;-0.1064453125;44.625;-30.375;0.75;
1441975672509489;0.5738525390625;-0.37353515625;-0.49200439453125;-0.5377197265625;16.509326758561347;5.2015975432845;10.148717247051621;-0.79443359375;-0.07275390625;-0.0751953125;42.75;-30.4375;15.4375;
1441975672532490;0.56414794921875;-0.381103515625;-0.4952392578125;-0.5396728515625;16.595553827980247;5.375388161839139;10.275803698477027;-0.71875;-0.03466796875;-0.0556640625;49.1875;-28.5625;28.6875;
1441975672554492;0.5543212890625;-0.38970947265625;-0.49951171875;-0.53985595703125;16.702153600699592;5.568037339533099;10.426548920367178;-0.68310546875;0.0068359375;-0.048828125;51.4375;-25.6875;38.5;
1441975672577493;0.54449462890625;-0.39886474609375;-0.50469970703125;-0.53826904296875;16.823251638338878;5.791944297057466;10.614841483622655;-0.68701171875;0.0546875;-0.02392578125;46.1875;-20.9375;48.125;
1441975672592494;0.53497314453125;-0.4083251953125;-0.5106201171875;-0.53521728515625;16.951647482386736;6.0599503866696836;10.853643621121545;-0.66943359375;0.0810546875;9.765625E-4;39.5;-16.75;57.4375;
1441975672613495;0.52532958984375;-0.417724609375;-0.5167236328125;-0.5316162109375;17.073552942961;6.400660994604475;11.167217802126853;-0.65478515625;0.1123046875;0.009765625;32.8125;-13.375;63.4375;
1441975672629496;0.51568603515625;-0.42730712890625;-0.5230712890625;-0.5272216796875;17.18755503647646;6.840385640067957;11.582351361375975;-0.7001953125;0.1083984375;0.02880859375;30.8125;-12.5;67.125;
1441975672652497;0.50653076171875;-0.4373779296875;-0.52935791015625;-0.521484375;17.293409812700702;7.398668999638752;12.119804080656065;-0.71484375;0.1083984375;0.05224609375;28.1875;-9.375;71.6875;
1441975672673498;0.497802734375;-0.44757080078125;-0.5357666015625;-0.5146484375;17.375169034598212;8.123052379201864;12.827799476171897;-0.7119140625;0.11767578125;0.048828125;24.5625;-3.375;76.875;
1441975672689499;0.4896240234375;-0.45751953125;-0.54241943359375;-0.50677490234375;17.414713878574066;9.002152771032938;13.696520866917256;-0.76416015625;0.14697265625;0.07080078125;19.6875;1.8125;79.125;
1441975672712501;0.48248291015625;-0.466552734375;-0.54931640625;-0.49786376953125;17.401725408848908;9.898196546099522;14.59152661559137;-0.8193359375;0.1708984375;0.07958984375;13.75;5.3125;81.1875;
1441975672733502;0.47613525390625;-0.4744873046875;-0.55645751953125;-0.4884033203125;17.339107479849737;10.658520946752477;15.358573520687328;-0.88671875;0.150390625;0.083984375;5.0;7.5625;83.125;
1441975672749503;0.46978759765625;-0.48187255859375;-0.563720703125;-0.47894287109375;17.237969021515383;11.23494616660563;15.943696210069495;-0.95556640625;0.0986328125;0.10546875;-2.5625;9.125;86.5;
1441975672772504;0.46380615234375;-0.4891357421875;-0.5706787109375;-0.46905517578125;17.118029162526362;11.672438140169206;16.391700450730873;-1.0009765625;0.05078125;0.134765625;-3.8125;9.1875;90.875;
1441975672793505;0.4578857421875;-0.49652099609375;-0.57757568359375;-0.45855712890625;16.981243594434165;12.014287603925467;16.745537606837242;-1.0185546875;0.02978515625;0.1416015625;-4.875;12.375;94.0;
1441975672809506;0.45172119140625;-0.5045166015625;-0.58514404296875;-0.44622802734375;16.818195848467987;12.305906003273773;17.05400614142937;-1.05615234375;0.037109375;0.14013671875;-5.9375;14.875;97.625;
1441975672832508;0.4456787109375;-0.511962890625;-0.59326171875;-0.43292236328125;16.6403441527434;12.522879803713817;17.294321610164477;-1.04150390625;0.05322265625;0.146484375;-10.875;16.5625;101.6875;
1441975672853509;0.44000244140625;-0.51861572265625;-0.601806640625;-0.418701171875;16.454459453662427;12.683660022383282;17.48588472824025;-1.017578125;0.07470703125;0.1552734375;-17.125;17.8125;104.625;
1441975672869510;0.4344482421875;-0.52447509765625;-0.61077880859375;-0.4039306640625;16.262638666394295;12.798507280468662;17.637251461647473;-1.02294921875;0.08740234375;0.15869140625;-24.25;18.125;106.25;
1441975672892511;0.42901611328125;-0.52960205078125;-0.61981201171875;-0.3890380859375;16.070703828702335;12.879710716890711;17.758286786863412;-1.0048828125;0.11083984375;0.15478515625;-29.4375;17.5625;106.875;
1441975672913512;0.42498779296875;-0.53240966796875;-0.62823486328125;-0.3758544921875;15.909646180668453;12.918969086949158;17.841630048791014;-0.98876953125;0.1474609375;0.1396484375;-33.375;16.1875;105.0625;
1441975672929513;0.421142578125;-0.5345458984375;-0.63629150390625;-0.3634033203125;15.758156375617398;12.941902306731576;17.908185690393594;-1.00927734375;0.15771484375;0.1259765625;-36.625;14.5625;99.25;
1441975672952514;0.41748046875;-0.5361328125;-0.64361572265625;-0.35223388671875;15.621244246270154;12.952774633062907;17.959113788203744;-1.01025390625;0.189453125;0.11865234375;-36.875;11.5625;93.5;
1441975672973516;0.414306640625;-0.537109375;-0.65008544921875;-0.34246826171875;15.502962585978809;12.955483697810571;17.998566082982915;-0.99755859375;0.19677734375;0.1103515625;-34.0625;8.5;86.0;
1441975672989517;0.4112548828125;-0.53790283203125;-0.65570068359375;-0.33416748046875;15.399377215675452;12.95352257726898;0.02745665213982875;-0.97509765625;0.19677734375;0.11181640625;-31.0625;6.25;77.0;
1441975673012518;0.40869140625;-0.53875732421875;-0.65985107421875;-0.32763671875;15.317016729139807;12.954281287267985;0.05070331366602209;-0.94091796875;0.20263671875;0.10888671875;-26.125;4.0625;68.875;
1441975673033519;0.40631103515625;-0.53985595703125;-0.66253662109375;-0.32330322265625;15.255514151403363;12.956313883470411;0.06401649271192962;-0.92333984375;0.2041015625;0.09228515625;-18.25;2.5;58.1875;
1441975673055520;0.40423583984375;-0.54107666015625;-0.66412353515625;-0.32073974609375;15.211917415507711;12.95919902864824;0.06998170894157314;-0.91552734375;0.220703125;0.08984375;-8.4375;0.3125;46.5625;
1441975673073521;0.40301513671875;-0.5416259765625;-0.6649169921875;-0.3197021484375;15.190518458281542;12.958197140809329;0.06944668414724138;-0.89111328125;0.25927734375;0.08642578125;-1.375;-1.5625;34.6875;
1441975673093522;0.40289306640625;-0.541259765625;-0.6649169921875;-0.3203125;15.194855775455332;12.951866899214059;0.0620028534147527;-0.8828125;0.283203125;0.0830078125;0.6875;-2.75;21.375;
1441975673115524;0.40386962890625;-0.5401611328125;-0.664306640625;-0.32232666015625;15.221833997327607;12.941426566071778;0.049548665448852;-0.88427734375;0.28662109375;0.0830078125;1.0;-3.375;8.25;
1441975673132525;0.40582275390625;-0.53857421875;-0.66265869140625;-0.32598876953125;15.27301219045572;12.929648034108762;0.03183875505903898;-0.880859375;0.28857421875;0.09521484375;1.8125;-2.9375;-4.1875;
1441975673153526;0.40869140625;-0.5364990234375;-0.66009521484375;-0.33087158203125;15.34468384134089;12.9170635096528;0.01096808053960611;-0.87451171875;0.28564453125;0.095703125;5.0;-2.4375;-17.0;
1441975673175527;0.41253662109375;-0.53387451171875;-0.65679931640625;-0.3369140625;15.436291170571064;12.901884853435973;17.986200984110127;-0.87646484375;0.30224609375;0.09716796875;7.0;-1.8125;-29.0;
1441975673193528;0.4176025390625;-0.53057861328125;-0.652587890625;-0.343994140625;15.55022954058424;12.885330173732179;17.959718618733618;-0.8818359375;0.31494140625;0.0986328125;8.1875;-0.375;-40.8125;
1441975673213529;0.42352294921875;-0.52655029296875;-0.64764404296875;-0.35205078125;15.68269331554814;12.86318493609212;17.927228914804502;-0.89990234375;0.29931640625;0.0888671875;8.0625;0.9375;-51.6875;
1441975673243531;0.4300537109375;-0.52191162109375;-0.6422119140625;-0.36102294921875;15.829675770933774;12.83218169320123;17.88527867364546;-0.9189453125;0.2744140625;0.0791015625;8.0;1.0;-60.5625;
1441975673252532;0.4368896484375;-0.51702880859375;-0.6361083984375;-0.37054443359375;15.986132556969444;12.796201899062728;17.836480696149298;-0.93359375;0.24951171875;0.08251953125;8.25;1.0;-67.875;
1441975673274533;0.44390869140625;-0.5118408203125;-0.62957763671875;-0.38037109375;16.148620137333815;12.751647882329102;17.778532695737468;-0.9462890625;0.224609375;0.080078125;10.0625;1.1875;-72.8125;
1441975673295534;0.451171875;-0.50634765625;-0.6226806640625;-0.390380859375;16.316436346817728;12.696433495282692;17.710051564647358;-0.9482421875;0.20361328125;0.0830078125;10.8125;1.875;-76.8125;
1441975673312535;0.45806884765625;-0.50067138671875;-0.6158447265625;-0.400390625;16.480802476150757;12.621889919434954;17.622072991987185;-0.97314453125;0.17822265625;0.06640625;10.5;1.25;-79.125;
1441975673333536;0.4647216796875;-0.494873046875;-0.609130859375;-0.41009521484375;16.64000156981795;12.52688198988343;17.514695970128923;-0.99755859375;0.1611328125;0.0712890625;10.0625;-0.3125;-79.0625;
1441975673355537;0.47100830078125;-0.4893798828125;-0.60247802734375;-0.419189453125;16.790182867400937;12.417049565486575;17.392683647411165;-1.00830078125;0.13037109375;0.0712890625;9.3125;-0.5625;-77.3125;
1441975673379539;0.4766845703125;-0.48431396484375;-0.59613037109375;-0.427734375;16.927555161055942;12.285776892651397;17.24884070154327;-1.0185546875;0.1142578125;0.05908203125;9.375;-0.375;-73.6875;
1441975673401540;0.48150634765625;-0.4796142578125;-0.5902099609375;-0.4356689453125;17.04886175439404;12.125517844813782;17.075669308066264;-1.02734375;0.0888671875;0.0693359375;10.0625;-0.4375;-68.4375;
1441975673417541;0.485595703125;-0.4757080078125;-0.5848388671875;-0.44268798828125;17.15177788180514;11.951584319297064;16.88873862498113;-1.0146484375;0.07373046875;0.0771484375;10.5625;-0.8125;-62.375;
1441975673447543;0.489013671875;-0.47259521484375;-0.5799560546875;-0.4486083984375;17.237373810779914;11.776471896946;16.701101655567633;-1.00537109375;0.07666015625;0.0751953125;11.0625;-0.5;-55.625;
1441975673454543;0.49169921875;-0.469970703125;-0.57598876953125;-0.4534912109375;17.303675458947364;11.595974118646406;16.5102643118499;-1.025390625;0.083984375;0.05908203125;10.6875;-0.4375;-48.1875;
1441975673475544;0.49395751953125;-0.4678955078125;-0.57281494140625;-0.4571533203125;17.35479670765347;11.43436773705312;16.341357267951217;-1.025390625;0.08642578125;0.06640625;8.6875;-0.5625;-40.375;
1441975673492545;0.4957275390625;-0.46636962890625;-0.570556640625;-0.45965576171875;17.390968638341818;11.305000892758404;16.20769933804879;-1.00244140625;0.0986328125;0.0634765625;6.0;0.25;-33.125;
1441975673514547;0.4970703125;-0.46551513671875;-0.56890869140625;-0.461181640625;17.416632115574675;11.222687843114343;16.122518343280884;-0.98681640625;0.10986328125;0.07275390625;3.5;1.5;-25.875;
1441975673535548;0.4979248046875;-0.46527099609375;-0.56793212890625;-0.461669921875;17.43178477586294;11.197851644553111;16.096609928653216;-0.9814453125;0.1171875;0.07373046875;1.875;2.8125;-18.5625;
1441975673552549;0.49847412109375;-0.46533203125;-0.56756591796875;-0.46136474609375;17.43901320777857;11.21432070284289;16.114313633018998;-0.97607421875;0.13720703125;0.0634765625;0.5;3.125;-12.0625;
1441975673574550;0.498779296875;-0.4656982421875;-0.56781005859375;-0.46044921875;17.438837036682077;11.265848897130995;16.168985158945844;-0.966796875;0.1376953125;0.06103515625;-1.5;3.375;-6.25;
1441975673595551;0.49859619140625;-0.466552734375;-0.56842041015625;-0.45904541015625;17.430756935977627;11.353858720926228;16.259813636019338;-0.9619140625;0.13330078125;0.0615234375;-3.125;3.25;-0.75;
1441975673612552;0.4979248046875;-0.46783447265625;-0.56927490234375;-0.4573974609375;17.41547971388936;11.462325058916802;16.36988886118886;-0.958984375;0.1396484375;0.06494140625;-3.0;3.4375;4.125;
1441975673634553;0.496826171875;-0.46954345703125;-0.57025146484375;-0.45556640625;17.3940908925491;11.585079810736662;16.492693391208153;-0.9580078125;0.14501953125;0.06201171875;-1.3125;3.25;8.0625;
1441975673658555;0.49530029296875;-0.4715576171875;-0.57159423828125;-0.45355224609375;17.36453152236975;11.710378357027347;16.61750527320995;-0.96142578125;0.1435546875;0.05859375;0.375;2.4375;11.875;
1441975673679556;0.49322509765625;-0.473876953125;-0.57305908203125;-0.45147705078125;17.327770837671867;11.831277818218467;16.736033446645106;-0.95654296875;0.146484375;0.0625;0.9375;2.0625;15.625;
1441975673694557;0.4908447265625;-0.4765625;-0.57452392578125;-0.4493408203125;17.28653314860588;11.95069335676001;16.851329103884428;-0.94873046875;0.1455078125;0.06982421875;2.9375;1.25;18.875;
1441975673717558;0.4881591796875;-0.4794921875;-0.576171875;-0.44708251953125;17.23949958670095;12.062875275366792;16.95868995781879;-0.9501953125;0.146484375;0.06884765625;4.625;1.125;21.75;
1441975673733559;0.48541259765625;-0.48236083984375;-0.5780029296875;-0.44464111328125;17.189248034921878;12.162225084572276;17.05428952406245;-0.96533203125;0.15185546875;0.0703125;5.5;0.75;24.5625;
1441975673754560;0.48248291015625;-0.48516845703125;-0.580078125;-0.44195556640625;17.134323531821586;12.249427796581456;17.138837022502923;-0.97998046875;0.14208984375;0.06640625;4.6875;0.1875;27.125;
1441975673778562;0.4794921875;-0.48797607421875;-0.58233642578125;-0.43914794921875;17.076516506931448;12.326139675398295;17.213591655250493;-0.98291015625;0.14111328125;0.07373046875;3.6875;-0.125;29.3125;
1441975673799563;0.47662353515625;-0.49078369140625;-0.584716796875;-0.43603515625;17.017022456748872;12.399555460869355;17.286636323570914;-0.9755859375;0.1435546875;0.07666015625;3.0;-0.375;31.25;
1441975673814564;0.47381591796875;-0.493408203125;-0.58734130859375;-0.4326171875;16.955133042190827;12.463905437106941;17.352927687068906;-0.9638671875;0.14794921875;0.0732421875;1.125;0.375;32.6875;
1441975673835565;0.47119140625;-0.49591064453125;-0.59002685546875;-0.428955078125;16.893098352900736;12.523541771941986;17.41628374036059;-0.9599609375;0.1494140625;0.08349609375;-0.25;1.0;34.0;
1441975673852566;0.46875;-0.4981689453125;-0.5928955078125;-0.42498779296875;16.8302939398436;12.576356493456863;17.47548857961532;-0.970703125;0.15478515625;0.07666015625;-2.4375;1.3125;34.8125;
1441975673874567;0.466796875;-0.5;-0.59588623046875;-0.42083740234375;16.77068789319306;12.621393108165682;17.530430897831863;-0.970703125;0.1650390625;0.0791015625;-5.125;1.8125;35.125;
1441975673895568;0.46502685546875;-0.50146484375;-0.59893798828125;-0.4166259765625;16.712813413802593;12.657345632929609;17.57826843500985;-0.96826171875;0.166015625;0.0703125;-8.25;2.1875;34.5625;
1441975673912569;0.4635009765625;-0.50274658203125;-0.6019287109375;-0.4124755859375;16.657879557642623;12.688608383895897;17.622294622295517;-0.96142578125;0.1640625;0.0751953125;-10.625;2.1875;33.625;
1441975673934571;0.462158203125;-0.50390625;-0.60467529296875;-0.4085693359375;16.607269621358974;12.716067201785801;17.66199011562342;-0.95458984375;0.171875;0.07275390625;-11.0625;2.375;32.1875;
1441975673964572;0.4610595703125;-0.5048828125;-0.6070556640625;-0.405029296875;16.563061692583197;12.739862107264354;17.69714180371546;-0.9482421875;0.1884765625;0.07275390625;-10.6875;2.625;29.625;
1441975673972573;0.4603271484375;-0.50531005859375;-0.609375;-0.40185546875;16.525857377593745;12.753219665909098;17.723244173057516;-0.96337890625;0.197265625;0.05859375;-10.625;2.0625;26.25;
1441975673995574;0.45965576171875;-0.5054931640625;-0.61151123046875;-0.39910888671875;16.493326204280848;12.7597395972298;17.741625635255367;-0.9619140625;0.19091796875;0.06396484375;-11.625;1.1875;23.375;
1441975674017575;0.45941162109375;-0.50543212890625;-0.6131591796875;-0.39697265625;16.470941914485454;12.76380592274375;17.75625630362965;-0.9560546875;0.197265625;0.06787109375;-10.8125;0.6875;20.1875;
1441975674032576;0.4595947265625;-0.50494384765625;-0.61456298828125;-0.395263671875;16.457066186974306;12.76271430880897;17.766215034077543;-0.9619140625;0.193359375;0.0634765625;-10.1875;0.5625;15.9375;
1441975674054577;0.45989990234375;-0.5042724609375;-0.6156005859375;-0.39410400390625;16.449843280929244;12.757713176163282;17.770478202940907;-0.9521484375;0.185546875;0.0625;-10.125;0.5625;12.1875;
1441975674083579;0.46044921875;-0.50341796875;-0.61627197265625;-0.3934326171875;16.449847645429905;12.750415065211794;17.771168004680927;-0.94970703125;0.1806640625;0.06640625;-8.9375;0.0;8.625;
1441975674091580;0.46112060546875;-0.50250244140625;-0.6168212890625;-0.39300537109375;16.452993800785652;12.741764422529146;17.76992982745189;-0.9453125;0.1787109375;0.072265625;-7.5;0.4375;5.0625;
1441975674113581;0.4622802734375;-0.5013427734375;-0.6170654296875;-0.3927001953125;16.463110913046293;12.735017477516024;17.77145634545979;-0.94091796875;0.189453125;0.07763671875;-7.0625;0.875;2.375;
1441975674137582;0.46380615234375;-0.499755859375;-0.61724853515625;-0.39263916015625;16.47925981420378;12.722885761137528;17.76896770585627;-0.95068359375;0.19482421875;0.0634765625;-8.0;1.125;-0.8125;
1441975674151583;0.46563720703125;-0.49786376953125;-0.6171875;-0.39300537109375;16.50251322149444;12.706230303279824;17.761724870720258;-0.9619140625;0.185546875;0.0595703125;-9.625;0.875;-3.6875;
1441975674181585;0.4674072265625;-0.49603271484375;-0.616943359375;-0.3936767578125;16.527706378564744;12.688005726567177;17.751118481336448;-0.96435546875;0.16796875;0.06298828125;-9.3125;0.8125;-6.1875;
1441975674196586;0.46917724609375;-0.49432373046875;-0.61639404296875;-0.39453125;16.55512465746038;12.67210391487841;17.741076321324243;-0.9501953125;0.17041015625;0.06884765625;-7.8125;0.75;-8.0625;
1441975674211586;0.4710693359375;-0.49273681640625;-0.61553955078125;-0.39556884765625;16.585691476402367;12.659506520478148;17.732897503517403;-0.95166015625;0.17724609375;0.05859375;-6.0625;0.8125;-10.0;
1441975674233588;0.4730224609375;-0.490966796875;-0.61474609375;-0.396728515625;16.61765560890483;12.641926771989388;17.72024141856693;-0.95556640625;0.17919921875;0.05029296875;-4.75;0.75;-11.8125;
1441975674256589;0.47503662109375;-0.48895263671875;-0.6138916015625;-0.39801025390625;16.651943249828403;12.61931938056485;17.702940195570257;-0.96044921875;0.18359375;0.05322265625;-5.3125;0.75;-13.375;
1441975674271590;0.47711181640625;-0.48699951171875;-0.61297607421875;-0.39947509765625;16.68766769143763;12.59541594585232;17.683567135206847;-0.96044921875;0.17431640625;0.0595703125;-6.0;0.5;-14.5625;
1441975674293591;0.47900390625;-0.48516845703125;-0.61175537109375;-0.4012451171875;16.72483027832238;12.569985272389388;17.660056278650874;-0.95849609375;0.166015625;0.0595703125;-4.875;0.375;-15.4375;
1441975674316592;0.48089599609375;-0.4835205078125;-0.61041259765625;-0.403076171875;16.762265522964825;12.546794096555857;17.637697752382085;-0.96337890625;0.162109375;0.05615234375;-2.5625;0.0;-16.25;
1441975674331593;0.482666015625;-0.48187255859375;-0.609130859375;-0.40478515625;16.797738799932276;12.522249857125367;17.61421477486259;-0.9736328125;0.16552734375;0.05078125;-1.625;0.125;-16.6875;
1441975674353595;0.484375;-0.48028564453125;-0.60784912109375;-0.40655517578125;16.83272718507813;12.495899429225927;17.58838236607163;-0.966796875;0.15966796875;0.0546875;-1.5625;0.1875;-16.375;
1441975674376596;0.48590087890625;-0.47900390625;-0.6064453125;-0.40826416015625;16.865630097903434;12.474573152677953;17.566018977560827;-0.96044921875;0.1591796875;0.0556640625;-1.0625;0.25;-16.0625;
1441975674391597;0.48736572265625;-0.477783203125;-0.6051025390625;-0.4100341796875;16.897671992033114;12.450853878029369;17.540877537362764;-0.962890625;0.15625;0.05908203125;0.4375;0.5625;-15.5625;
1441975674415598;0.4886474609375;-0.4766845703125;-0.6038818359375;-0.41156005859375;16.925936707745542;12.429228894874734;17.51806000136854;-0.970703125;0.15478515625;0.06005859375;1.125;0.75;-15.0;
1441975674436599;0.4898681640625;-0.47576904296875;-0.6026611328125;-0.41290283203125;16.95223299278522;12.412934627998059;17.500417032935932;-0.96728515625;0.15966796875;0.0625;0.75;0.75;-14.0;
1441975674452600;0.490966796875;-0.47503662109375;-0.60150146484375;-0.4141845703125;16.976269073188263;12.398897002202805;17.484489405285668;-0.96435546875;0.154296875;0.05615234375;0.9375;1.0625;-12.8125;
1441975674473601;0.49176025390625;-0.4744873046875;-0.6004638671875;-0.41534423828125;16.995995390094524;12.38595810896635;17.468998562355967;-0.958984375;0.14306640625;0.05224609375;1.6875;1.0;-11.1875;
1441975674496603;0.492431640625;-0.47430419921875;-0.5994873046875;-0.41619873046875;17.011814553718118;12.38449565313656;17.464635668014516;-0.9638671875;0.14453125;0.06103515625;2.3125;0.9375;-9.375;
1441975674511604;0.49310302734375;-0.4739990234375;-0.59869384765625;-0.41680908203125;17.02580159599448;12.38260739780934;17.46147207649833;-0.97412109375;0.15673828125;0.04931640625;2.4375;1.1875;-7.75;
1441975674541605;0.49346923828125;-0.4737548828125;-0.59820556640625;-0.41748046875;17.035502994117927;12.37384557729323;17.45105063117735;-0.98095703125;0.1513671875;0.05029296875;1.0;1.0625;-6.25;
1441975674556606;0.4935302734375;-0.47406005859375;-0.59747314453125;-0.41815185546875;17.042612161654567;12.377531576413057;17.449935177091376;-0.97509765625;0.14013671875;0.068359375;1.625;0.5;-4.3125;
1441975674572607;0.49322509765625;-0.47479248046875;-0.5966796875;-0.418701171875;17.0453529980844;12.390518406326807;17.4560607564989;-0.96533203125;0.1416015625;0.0537109375;4.8125;0.6875;-2.625;
1441975674593608;0.49285888671875;-0.47552490234375;-0.59613037109375;-0.4190673828125;17.045230329450472;12.403385750083498;17.463114245694253;-0.96240234375;0.15673828125;0.05712890625;6.875;1.0;-1.5;
1441975674616610;0.4925537109375;-0.47607421875;-0.59588623046875;-0.41925048828125;17.043404086916443;12.412339717851198;17.468349898077197;-0.95947265625;0.16552734375;0.05029296875;5.5;0.5;-0.75;
1441975674639611;0.49212646484375;-0.4766845703125;-0.5955810546875;-0.41937255859375;17.040568381186596;12.423374450301832;17.475193237576033;-0.9560546875;0.1630859375;0.064453125;3.8125;0.6875;0.3125;
1441975674653612;0.49169921875;-0.47747802734375;-0.59521484375;-0.4195556640625;17.037746678738582;12.438112233477991;17.484815474758282;-0.95263671875;0.15966796875;0.0634765625;4.25;0.9375;0.8125;
1441975674676613;0.49114990234375;-0.4783935546875;-0.59490966796875;-0.4195556640625;17.03234972486988;12.456978905346455;17.49859979481339;-0.9609375;0.162109375;0.06201171875;5.1875;1.25;1.3125;
1441975674692614;0.49066162109375;-0.479248046875;-0.5947265625;-0.41943359375;17.02626634985033;12.475678385303105;17.51326465652081;-0.962890625;0.17333984375;0.06494140625;5.25;1.5;2.0;
1441975674715615;0.4903564453125;-0.47991943359375;-0.59454345703125;-0.41937255859375;17.02246352813606;12.490917396796446;17.525326043325283;-0.96337890625;0.1748046875;0.0576171875;4.0625;1.3125;2.0625;
1441975674736616;0.489990234375;-0.48052978515625;-0.5943603515625;-0.4193115234375;17.018404330760426;12.504055313991177;17.5353188922095;-0.97021484375;0.16162109375;0.056640625;3.375;1.0625;2.25;
1441975674752617;0.489501953125;-0.481201171875;-0.59429931640625;-0.419189453125;17.01213151316432;12.516644206135028;17.54476239493836;-0.96533203125;0.15283203125;0.0595703125;3.3125;0.9375;2.75;
1441975674773619;0.489013671875;-0.48187255859375;-0.59429931640625;-0.4189453125;17.004894485489036;12.530541847743596;17.5560547093932;-0.95849609375;0.16015625;0.06298828125;3.25;1.0;3.1875;
1441975674803620;0.4886474609375;-0.482421875;-0.59442138671875;-0.41864013671875;16.99794296085018;12.5424427392269;17.566557387341202;-0.9658203125;0.162109375;0.05859375;2.75;0.8125;3.6875;
1441975674812621;0.48822021484375;-0.48284912109375;-0.5946044921875;-0.41827392578125;16.990307227121615;12.551241959093693;17.57453071557668;-0.9619140625;0.1591796875;0.06201171875;1.6875;0.875;3.875;
1441975674833622;0.48785400390625;-0.48333740234375;-0.5948486328125;-0.4178466796875;16.982215742112754;12.562136416672022;17.58491675865097;-0.9560546875;0.1591796875;0.068359375;1.0;0.9375;4.125;
1441975674857623;0.48760986328125;-0.48382568359375;-0.59503173828125;-0.4173583984375;16.97511470538751;12.576046762086262;17.59866828365285;-0.95947265625;0.1689453125;0.06396484375;0.8125;1.25;4.125;
1441975674872624;0.48736572265625;-0.48406982421875;-0.59539794921875;-0.416748046875;16.96719060506853;12.584441341265657;17.608525495933055;-0.96240234375;0.1728515625;0.0595703125;0.3125;1.1875;3.625;
1441975674901626;0.48736572265625;-0.48419189453125;-0.595703125;-0.41619873046875;16.962201723703235;12.592523553236349;17.618737789154636;-0.96240234375;0.17919921875;0.0615234375;-1.0;1.0;3.125;
1441975674916627;0.4874267578125;-0.48406982421875;-0.5960693359375;-0.415771484375;16.958790107974433;12.593257689130377;17.622301421741053;-0.96533203125;0.17626953125;0.0576171875;-2.125;0.875;2.375;
1441975674932628;0.48748779296875;-0.48394775390625;-0.5963134765625;-0.41546630859375;16.956724754069782;12.593475114710929;17.624649155453174;-0.96435546875;0.1689453125;0.064453125;-2.8125;0.6875;1.8125;
1441975674954629;0.487548828125;-0.48388671875;-0.59649658203125;-0.41522216796875;16.955098806688973;12.594681492586854;17.62744518857254;-0.96484375;0.16455078125;0.05859375;-2.0;0.4375;1.5;
1441975674976630;0.48760986328125;-0.48382568359375;-0.5966796875;-0.41497802734375;16.953472460065072;12.59588162853135;17.630234995350925;-0.96630859375;0.15869140625;0.060546875;-1.4375;0.3125;1.375;
1441975674993631;0.4876708984375;-0.483642578125;-0.59686279296875;-0.41473388671875;16.952314093307677;12.594595016887487;17.630920511122156;-0.96923828125;0.16015625;0.056640625;-1.5;0.3125;1.5625;
1441975675013632;0.48773193359375;-0.4835205078125;-0.59716796875;-0.4144287109375;16.949866726669345;12.593993984733856;17.63260852308789;-0.96923828125;0.1533203125;0.0546875;-2.0;0.0;1.8125;
1441975675036634;0.48779296875;-0.48333740234375;-0.59747314453125;-0.4140625;16.94736179985846;12.593199053869045;17.634485336091128;-0.9677734375;0.154296875;0.05712890625;-2.3125;-0.125;2.125;
1441975675052635;0.4879150390625;-0.483154296875;-0.59783935546875;-0.41363525390625;16.944634940829403;12.593284082230884;17.63775013727532;-0.97021484375;0.1591796875;0.0546875;-2.5;-0.0625;2.3125;
1441975675073636;0.488037109375;-0.48291015625;-0.59832763671875;-0.4132080078125;16.941380423194865;12.590540388455661;17.638693882689164;-0.97412109375;0.16015625;0.05712890625;-3.0625;0.0;2.3125;
1441975675096637;0.48809814453125;-0.48272705078125;-0.59857177734375;-0.41290283203125;16.939549246074336;12.589496711139441;17.639972896008132;-0.9580078125;0.16064453125;0.05712890625;-3.5625;-0.25;2.1875;
1441975675112638;0.4881591796875;-0.48260498046875;-0.59881591796875;-0.41265869140625;16.937776305501178;12.588644213989232;17.64105993817496;-0.96337890625;0.1552734375;0.0537109375;-2.5625;-0.375;1.875;
1441975675133639;0.48828125;-0.4822998046875;-0.59912109375;-0.412353515625;16.936483730169126;12.584994668592524;17.640432569597245;-0.97021484375;0.15966796875;0.0517578125;-1.8125;-0.4375;1.6875;
1441975675157641;0.488525390625;-0.48193359375;-0.59942626953125;-0.412109375;16.936619837375176;12.580357035668326;17.639132722875893;-0.9677734375;0.17138671875;0.05517578125;-3.0625;-0.375;0.75;
1441975675172641;0.48870849609375;-0.48162841796875;-0.59954833984375;-0.41204833984375;16.938087573464934;12.575576532943817;17.63629176706788;-0.966796875;0.16650390625;0.0537109375;-3.375;-0.25;0.25;
1441975675195643;0.48895263671875;-0.48138427734375;-0.59954833984375;-0.41204833984375;16.940828189506554;12.573188226832663;17.635301525361704;-0.9658203125;0.16162109375;0.0615234375;-2.1875;-0.1875;-0.375;
1441975675216644;0.489013671875;-0.48138427734375;-0.5994873046875;-0.412109375;16.94195313775829;12.57357261860821;17.635493968714613;-0.958984375;0.1591796875;0.05419921875;-1.1875;0.1875;-0.75;
1441975675232645;0.48931884765625;-0.48114013671875;-0.5994873046875;-0.41204833984375;16.944855523000093;12.572853091210385;17.63652188510349;-0.95703125;0.15625;0.0576171875;-0.75;0.5;-0.8125;
1441975675253646;0.48974609375;-0.48077392578125;-0.59954833984375;-0.411865234375;16.948165343382158;12.572230955730596;17.638887498992062;-0.962890625;0.15869140625;0.05078125;-1.8125;0.375;-0.75;
1441975675276647;0.4901123046875;-0.48040771484375;-0.59967041015625;-0.41168212890625;16.95064115848997;12.570176338811937;17.63982050629032;-0.96044921875;0.15869140625;0.05419921875;-2.875;0.4375;-0.625;
1441975675292648;0.49041748046875;-0.4801025390625;-0.5997314453125;-0.41156005859375;16.953104485425133;12.568468547634279;17.640401400485533;-0.9619140625;0.15869140625;0.05126953125;-3.0;0.4375;-0.625;
1441975675321650;0.49066162109375;-0.47991943359375;-0.59967041015625;-0.41156005859375;16.955994661794463;12.56810000805774;17.641081072614238;-0.9609375;0.1591796875;0.0546875;-2.25;0.25;-0.5625;
1441975675336651;0.49066162109375;-0.47991943359375;-0.59967041015625;-0.41156005859375;16.955994661794463;12.56810000805774;17.641081072614238;-0.9580078125;0.1630859375;0.0517578125;-1.0625;0.125;-0.75;
1441975675352652;0.49066162109375;-0.47991943359375;-0.59967041015625;-0.41156005859375;16.955994661794463;12.56810000805774;17.641081072614238;-0.9658203125;0.16552734375;0.0546875;-0.4375;0.4375;-1.0;
1441975675373653;0.49066162109375;-0.47991943359375;-0.59967041015625;-0.41156005859375;16.955994661794463;12.56810000805774;17.641081072614238;-0.97216796875;0.16357421875;0.0556640625;-0.625;0.4375;-1.0;
1441975675403655;0.49072265625;-0.47991943359375;-0.599609375;-0.41156005859375;16.956829013723105;12.569545103783287;17.64252616833979;-0.970703125;0.154296875;0.048828125;-0.75;0.375;-0.75;
1441975675412655;0.49072265625;-0.47991943359375;-0.599609375;-0.41156005859375;16.956829013723105;12.569545103783287;17.64252616833979;-0.966796875;0.15673828125;0.0517578125;-0.5625;0.375;-0.375;
1441975675434656;0.49090576171875;-0.47991943359375;-0.59954833984375;-0.41143798828125;16.957984726840237;12.574397642885478;17.64807749387076;-0.96435546875;0.16015625;0.0517578125;-0.25;0.6875;-0.0625;
1441975675456658;0.49114990234375;-0.4798583984375;-0.5994873046875;-0.4112548828125;16.959531130483082;12.579720043623068;17.654640317235625;-0.96240234375;0.16552734375;0.05419921875;-0.75;1.0625;0.0;
1441975675472659;0.491455078125;-0.479736328125;-0.59942626953125;-0.4111328125;16.96205199466106;12.583408887041944;17.65972666423221;-0.966796875;0.162109375;0.0498046875;-1.25;0.9375;0.0;
1441975675495660;0.49176025390625;-0.47967529296875;-0.599365234375;-0.4110107421875;16.964333826121443;12.588370233908456;17.665893103632776;-0.96240234375;0.15478515625;0.0537109375;-1.25;1.1875;0.0;
1441975675516661;0.49188232421875;-0.47955322265625;-0.59942626953125;-0.410888671875;16.964739840478355;12.588487207634607;17.66725045043476;-0.96337890625;0.15625;0.05322265625;-1.0625;1.125;0.125;
1441975675532662;0.49212646484375;-0.47943115234375;-0.59942626953125;-0.41070556640625;16.96613154538928;12.591802765187005;17.672155733418457;-0.96826171875;0.1611328125;0.0634765625;-1.125;0.875;0.125;
1441975675555663;0.49224853515625;-0.47930908203125;-0.5994873046875;-0.41064453125;16.966831067726027;12.59086309591938;17.672264029322996;-0.96435546875;0.16015625;0.0546875;-1.625;0.75;0.125;
1441975675576665;0.49224853515625;-0.47930908203125;-0.5994873046875;-0.41064453125;16.966831067726027;12.59086309591938;17.672264029322996;-0.97021484375;0.162109375;0.0595703125;-1.0625;0.75;0.0625;
1441975675592665;0.49224853515625;-0.479248046875;-0.5994873046875;-0.41070556640625;16.967361914729658;12.588549099336264;17.669950032739884;-0.966796875;0.15576171875;0.0556640625;-0.25;0.625;-0.0625;
1441975675615667;0.49224853515625;-0.479248046875;-0.5994873046875;-0.41070556640625;16.967361914729658;12.588549099336264;17.669950032739884;-0.96826171875;0.15869140625;0.06494140625;0.3125;0.5;-0.1875;
1441975675636668;0.492431640625;-0.4791259765625;-0.5994873046875;-0.41064453125;16.96889126650757;12.589088763479973;17.671537623022726;-0.95751953125;0.16162109375;0.05517578125;-0.5625;0.5;-0.25;
1441975675667670;0.492431640625;-0.4791259765625;-0.5994873046875;-0.41058349609375;16.968597690947746;12.590151253102482;17.672792584845993;-0.94775390625;0.1591796875;0.0556640625;-1.125;0.375;-0.25;
1441975675675670;0.49267578125;-0.4788818359375;-0.59954833984375;-0.41046142578125;16.9703772178566;12.589089780165622;17.673670134887352;-0.9638671875;0.166015625;0.0498046875;-0.5;0.25;-0.375;
1441975675697671;0.49310302734375;-0.47833251953125;-0.59979248046875;-0.4102783203125;16.9732562888011;12.58232535976378;17.67094034573318;-0.9755859375;0.1728515625;0.0546875;-1.9375;0.5;-1.0625;
1441975675720673;0.4935302734375;-0.47784423828125;-0.599853515625;-0.4102783203125;16.977917008040965;12.576045441231472;17.667454345535525;-0.97021484375;0.16796875;0.05517578125;-4.125;0.0;-1.8125;
1441975675735674;0.493896484375;-0.4775390625;-0.59967041015625;-0.41046142578125;16.98381875089162;12.572930724225076;17.665194556724753;-0.96484375;0.1591796875;0.06103515625;-3.0625;0.5;-1.9375;
1441975675756675;0.494140625;-0.47735595703125;-0.59954833984375;-0.4105224609375;16.987382855768434;12.572350777219762;17.665313002124037;-0.96044921875;0.1533203125;0.06396484375;-0.6875;1.0625;-2.1875;
1441975675772676;0.4945068359375;-0.47711181640625;-0.59954833984375;-0.41033935546875;16.990153077616515;12.574533910132294;17.669783991056363;-0.9599609375;0.1611328125;0.05810546875;-0.625;1.0625;-1.75;
1441975675795677;0.49505615234375;-0.4765625;-0.59979248046875;-0.4100341796875;16.993344696539154;12.571190906014493;17.671172770139577;-0.96044921875;0.1630859375;0.0537109375;-2.125;1.0;-1.375;
1441975675816678;0.49554443359375;-0.4759521484375;-0.60015869140625;-0.40960693359375;16.994976861847213;12.566396965950366;17.671845245863587;-0.96337890625;0.158203125;0.05419921875;-4.6875;0.6875;-1.0;
1441975675832679;0.4959716796875;-0.4754638671875;-0.60040283203125;-0.4093017578125;16.99703327225657;12.562973168882637;17.672647433834882;-0.96044921875;0.15478515625;0.05322265625;-5.5625;0.3125;-0.5625;
1441975675855680;0.4962158203125;-0.47515869140625;-0.6005859375;-0.4090576171875;16.997704362131383;12.561120178498117;17.673624171446086;-0.9658203125;0.158203125;0.052734375;-4.25;0.0625;-0.5;
1441975675877682;0.49639892578125;-0.47491455078125;-0.6007080078125;-0.408935546875;16.998653142129996;12.558515290783419;17.672957705006336;-0.97412109375;0.166015625;0.04833984375;-2.875;-0.25;-0.625;
1441975675892683;0.4964599609375;-0.47467041015625;-0.600830078125;-0.40899658203125;16.999570436246678;12.55124201892352;17.666731480029437;-0.96142578125;0.16162109375;0.04736328125;-2.0625;-0.5625;-0.625;
1441975675915684;0.49652099609375;-0.4744873046875;-0.6009521484375;-0.408935546875;16.99967020574447;12.547466065188383;17.66419588442937;-0.96337890625;0.15771484375;0.0556640625;-1.375;-0.5625;-0.625;
1441975675943686;0.49664306640625;-0.47430419921875;-0.60107421875;-0.4088134765625;16.999931246558642;12.545469970895349;17.663789161978073;-0.9560546875;0.16357421875;0.05859375;-1.0625;-0.25;-0.5625;
1441975675952686;0.496826171875;-0.47406005859375;-0.601318359375;-0.4085693359375;16.999532884886673;12.543398512220215;17.66435400501872;-0.9580078125;0.166015625;0.0546875;-1.5625;-0.25;-0.5625;
1441975675975687;0.49725341796875;-0.47357177734375;-0.6016845703125;-0.40802001953125;16.999666585683393;12.542697933987501;17.668964015630245;-0.962890625;0.17138671875;0.056640625;-3.125;0.1875;-0.5625;
1441975675997689;0.497802734375;-0.4730224609375;-0.60205078125;-0.407470703125;17.00093742768935;12.542055140969456;17.67413608055573;-0.96044921875;0.17236328125;0.0498046875;-5.0625;0.3125;-0.75;
1441975676027690;0.49847412109375;-0.472412109375;-0.60235595703125;-0.40692138671875;17.00372849609815;12.542315665780194;17.68056007772967;-0.955078125;0.16748046875;0.05224609375;-6.0;0.8125;-1.125;
1441975676035691;0.4991455078125;-0.47174072265625;-0.60272216796875;-0.40625;17.005793002338514;12.542670301883907;17.6878148565728;-0.955078125;0.1689453125;0.052734375;-6.25;1.25;-1.4375;
1441975676056692;0.5;-0.47100830078125;-0.60308837890625;-0.40557861328125;17.00944318762684;12.54380349707954;17.696506053944546;-0.9541015625;0.171875;0.05224609375;-6.75;1.5;-1.6875;
1441975676072693;0.5008544921875;-0.47027587890625;-0.6033935546875;-0.40496826171875;17.013765290656945;12.544707221154216;17.704618237298416;-0.9658203125;0.1669921875;0.05224609375;-7.5;1.75;-1.75;
1441975676095694;0.501708984375;-0.46954345703125;-0.6036376953125;-0.404296875;17.018176452960038;12.547625791666107;17.714785277435162;-0.9677734375;0.16064453125;0.05078125;-7.1875;1.8125;-1.9375;
1441975676116695;0.50250244140625;-0.46875;-0.60400390625;-0.4036865234375;17.02190613575998;12.545733473008088;17.72029518561114;-0.96337890625;0.16357421875;0.05126953125;-7.1875;1.875;-2.0;
1441975676132696;0.50335693359375;-0.468017578125;-0.6043701171875;-0.4029541015625;17.025259041177435;12.548140994947502;17.730452982440184;-0.9609375;0.16162109375;0.0556640625;-7.3125;1.875;-1.75;
1441975676155698;0.50421142578125;-0.4671630859375;-0.6048583984375;-0.40216064453125;17.028037261490024;12.547334744318722;17.73828853150548;-0.95361328125;0.16162109375;0.05810546875;-7.5625;2.125;-1.6875;
1441975676176699;0.50506591796875;-0.46630859375;-0.60546875;-0.40118408203125;17.029173800796187;12.548193409789704;17.74868072197925;-0.9462890625;0.166015625;0.060546875;-8.6875;2.3125;-1.75;
1441975676192700;0.506103515625;-0.46533203125;-0.6060791015625;-0.40008544921875;17.031543853926003;12.550843338829505;17.762104386074732;-0.9423828125;0.1767578125;0.06201171875;-9.3125;2.5;-1.9375;
1441975676215701;0.507568359375;-0.4639892578125;-0.6068115234375;-0.398681640625;17.036255055028263;12.554578941678537;17.780138925039797;-0.96044921875;0.18994140625;0.05517578125;-10.75;2.875;-2.6875;
1441975676236702;0.50921630859375;-0.46209716796875;-0.6077880859375;-0.3973388671875;17.043289825077768;12.543932416914847;17.78642268092255;-0.95947265625;0.1865234375;0.05126953125;-14.3125;3.0625;-3.5625;
1441975676252703;0.5108642578125;-0.4603271484375;-0.6085205078125;-0.39617919921875;17.052244744351796;12.536080720812475;17.793910383942052;-0.95654296875;0.169921875;0.064453125;-16.6875;3.0625;-4.4375;
1441975676274704;0.512451171875;-0.458740234375;-0.6090087890625;-0.39508056640625;17.061836555816317;12.534014491611071;17.80564017170127;-0.95068359375;0.15771484375;0.068359375;-15.125;3.75;-4.3125;
1441975676296706;0.51397705078125;-0.45721435546875;-0.6097412109375;-0.393798828125;17.0683360141255;12.532503629637661;17.818769776935596;-0.947265625;0.1513671875;0.06494140625;-13.6875;4.1875;-4.1875;
1441975676318707;0.5155029296875;-0.45550537109375;-0.6107177734375;-0.3922119140625;17.07258501105663;12.529142546973837;17.83222929726758;-0.947265625;0.16015625;0.064453125;-14.3125;4.0625;-3.4375;
1441975676343708;0.517333984375;-0.4534912109375;-0.61187744140625;-0.390380859375;17.077973372087367;12.524768124997468;17.84765162969947;-0.943359375;0.16455078125;0.06787109375;-16.625;4.0;-2.75;
1441975676356709;0.51910400390625;-0.45135498046875;-0.6131591796875;-0.38836669921875;17.081779892887337;12.518590336184046;17.86241192622699;-0.94189453125;0.1640625;0.06103515625;-19.5625;3.875;-2.8125;
1441975676378710;0.52099609375;-0.44927978515625;-0.61431884765625;-0.38653564453125;17.087876880212747;12.513735207494042;17.877696393226305;-0.9375;0.16552734375;0.06298828125;-20.75;3.75;-2.875;
1441975676402712;0.5228271484375;-0.447265625;-0.61529541015625;-0.384765625;17.094718369105568;12.51119757759437;17.894308343636038;-0.931640625;0.15869140625;0.06005859375;-20.0;4.0;-3.25;
1441975676417713;0.52459716796875;-0.4453125;-0.61627197265625;-0.38311767578125;17.10147072075501;12.506949070803524;17.90846064513081;-0.943359375;0.1591796875;0.06005859375;-18.875;3.875;-3.625;
1441975676438714;0.52642822265625;-0.443359375;-0.6171875;-0.38140869140625;17.108743700380966;12.505782446124906;17.925893203697573;-0.93798828125;0.16259765625;0.05419921875;-18.3125;3.75;-4.125;
1441975676462715;0.52825927734375;-0.44122314453125;-0.61810302734375;-0.3798828125;17.11769009786536;12.496800910286545;17.935508593954612;-0.931640625;0.16259765625;0.048828125;-18.5625;3.5625;-4.5;
1441975676477716;0.5299072265625;-0.4393310546875;-0.618896484375;-0.37847900390625;17.12565960172834;12.490556886555467;17.945927642245728;-0.919921875;0.14794921875;0.052734375;-18.5625;3.3125;-4.625;
1441975676500717;0.5313720703125;-0.4376220703125;-0.61956787109375;-0.37725830078125;17.133206101026136;12.484393008529246;17.954494248818875;-0.912109375;0.1474609375;0.05322265625;-16.5625;3.125;-4.5625;
1441975676522719;0.5328369140625;-0.4359130859375;-0.62017822265625;-0.37615966796875;17.14173483803708;12.476732490293177;17.961014900322272;-0.91455078125;0.146484375;0.05810546875;-14.625;3.1875;-4.3125;
1441975676537719;0.53436279296875;-0.4342041015625;-0.62078857421875;-0.37493896484375;17.150106340286943;12.47248358197476;17.97149398277076;-0.9150390625;0.14404296875;0.0546875;-14.0625;2.875;-4.375;
1441975676558721;0.535888671875;-0.43243408203125;-0.6214599609375;-0.373779296875;17.15866387586155;12.464493835005417;17.97837251051214;-0.90283203125;0.13623046875;0.04638671875;-14.5625;2.625;-4.1875;
1441975676574722;0.53729248046875;-0.43084716796875;-0.6219482421875;-0.372802734375;17.1676083926062;12.458421253860498;17.985236833882873;-0.8740234375;0.12060546875;0.0517578125;-14.875;2.875;-3.75;
1441975676597723;0.538330078125;-0.42962646484375;-0.62225341796875;-0.37213134765625;17.175016395853802;12.452614915978721;17.988853928121316;-0.84326171875;0.10595703125;0.0498046875;-12.875;2.875;-3.1875;
1441975676618724;0.53912353515625;-0.428955078125;-0.6224365234375;-0.3714599609375;17.179104933838563;12.459006626224028;0.0019874526230045874;-0.82861328125;0.1025390625;0.0517578125;-9.1875;2.4375;-2.625;
1441975676634725;0.53997802734375;-0.42791748046875;-0.6229248046875;-0.37060546875;17.18240091845487;12.455923491179254;0.008326916997071995;-0.802734375;0.1123046875;0.04443359375;-6.6875;2.5;-1.625;
1441975676657726;0.540771484375;-0.42669677734375;-0.62359619140625;-0.36968994140625;17.184613732024108;12.445486789263681;0.008410679765175046;-0.7568359375;0.08642578125;0.04443359375;-9.25;2.0625;-0.25;
1441975676678728;0.541259765625;-0.42584228515625;-0.62432861328125;-0.36871337890625;17.18241484012411;12.439941963635697;0.011803571896060345;-0.7001953125;0.04443359375;0.0517578125;-10.4375;1.4375;2.25;
1441975676695729;0.54119873046875;-0.42572021484375;-0.62518310546875;-0.36749267578125;17.171223045156644;12.447613596613708;0.025797366815325313;-0.65625;0.0244140625;0.05224609375;-8.5;1.1875;5.75;
1441975676717730;0.540771484375;-0.42608642578125;-0.62628173828125;-0.3658447265625;17.151694405451405;12.466217019934598;0.05024023772640772;-0.6171875;0.0234375;0.0458984375;-5.6875;0.875;10.0;
1441975676738731;0.5400390625;-0.42645263671875;-0.6279296875;-0.36358642578125;17.12355137468805;12.482528002914876;0.07500180985309877;-0.59033203125;0.02734375;0.03662109375;-5.6875;0.0625;14.1875;
1441975676762732;0.53887939453125;-0.4271240234375;-0.6300048828125;-0.3609619140625;17.086573477099492;12.498518669290432;0.09965235980512165;-0.56005859375;0.0107421875;0.03515625;-7.625;-0.9375;19.125;
1441975676777733;0.537109375;-0.42816162109375;-0.6324462890625;-0.35809326171875;17.040194201066665;12.511294911869992;0.12012701933045064;-0.53857421875;0.01025390625;0.04345703125;-8.25;-2.0625;23.4375;
1441975676798734;0.534912109375;-0.4298095703125;-0.63458251953125;-0.35565185546875;16.99209450345624;12.526830717205364;0.1382024347951681;-0.5390625;0.02392578125;0.04296875;-6.8125;-3.75;27.0625;
1441975676814735;0.53204345703125;-0.4320068359375;-0.6368408203125;-0.353271484375;16.936394881290884;12.540593198831727;0.15119878120125965;-0.5810546875;0.037109375;0.03759765625;-2.0;-5.125;27.8125;
1441975676837737;0.52899169921875;-0.4342041015625;-0.6392822265625;-0.35076904296875;16.877674435950787;12.55025419412872;0.160505419408527;-0.6376953125;0.0791015625;0.03466796875;1.0;-7.25;29.125;
1441975676858738;0.52593994140625;-0.43646240234375;-0.6412353515625;-0.34893798828125;16.825058467760535;12.557008737613762;0.16332024241759627;-0.6591796875;0.10009765625;0.05419921875;0.6875;-7.0;30.125;
1441975676874739;0.52203369140625;-0.43975830078125;-0.64263916015625;-0.3480224609375;16.769826286352796;12.566595247797233;0.15916654623396226;-0.68408203125;0.06103515625;0.06689453125;4.8125;-6.875;30.0625;
1441975676898740;0.517578125;-0.44403076171875;-0.64349365234375;-0.34771728515625;16.71279657569949;12.585154689331361;0.15610251820901516;-0.7138671875;0.08349609375;0.1015625;14.5;-6.1875;30.25;
1441975676918741;0.51312255859375;-0.44769287109375;-0.64453125;-0.34771728515625;16.65906489074024;12.587816567720687;0.1385671309872814;-0.794921875;0.1494140625;0.07421875;21.9375;-8.3125;28.125;
1441975676934742;0.50860595703125;-0.45037841796875;-0.646728515625;-0.3468017578125;16.597628810121464;12.573575075787781;0.11300957121606704;-0.8896484375;0.17431640625;0.05810546875;19.5625;-12.8125;26.375;
1441975676957744;0.5037841796875;-0.45245361328125;-0.649658203125;-0.345703125;16.53135393369224;12.543950798888408;0.07571265532550958;-0.9169921875;0.18603515625;0.07763671875;10.75;-15.5625;29.125;
1441975676995746;0.4986572265625;-0.45477294921875;-0.65234375;-0.344970703125;16.464964844855775;12.516832668852269;0.037580793594529906;-0.935546875;0.22412109375;0.10888671875;7.25;-17.1875;28.9375;
1441975676997746;0.49371337890625;-0.45758056640625;-0.6546630859375;-0.343994140625;16.39861838627756;12.506346410476699;0.01481570873184835;-0.99853515625;0.27783203125;0.125;9.9375;-18.1875;26.5;
1441975677017747;0.48974609375;-0.4593505859375;-0.65740966796875;-0.342041015625;16.33611825153072;12.495859322235955;0.002082649708407732;-1.078125;0.34619140625;0.10009765625;10.875;-17.375;25.1875;
1441975677038748;0.48675537109375;-0.45904541015625;-0.66131591796875;-0.3392333984375;16.278035240246282;12.463800629827386;17.9826281392634;-1.11572265625;0.3828125;0.08056640625;0.6875;-16.4375;23.75;
1441975677054749;0.48394775390625;-0.45745849609375;-0.66583251953125;-0.3365478515625;16.22323685510869;12.412122749002247;17.9493345718174;-1.107421875;0.333984375;0.06884765625;-14.5;-18.875;24.125;
1441975677077750;0.47998046875;-0.45654296875;-0.67047119140625;-0.334228515625;16.15780791597125;12.360378603462099;17.910081071304436;-1.0693359375;0.24072265625;0.08740234375;-20.25;-22.0;27.0625;
1441975677098752;0.4749755859375;-0.45745849609375;-0.67449951171875;-0.33203125;16.081488703299776;12.33185559068488;17.883625181364316;-1.0185546875;0.21044921875;0.1298828125;-13.6875;-23.8125;32.3125;
1441975677114752;0.46954345703125;-0.459228515625;-0.67852783203125;-0.3291015625;15.995049129297149;12.319234568479274;17.871667132884237;-0.984375;0.2587890625;0.138671875;-2.875;-22.5625;35.75;
1441975677137754;0.4647216796875;-0.4605712890625;-0.68267822265625;-0.32537841796875;15.91022811280525;12.311037962017833;17.86998896879839;-1.0107421875;0.36669921875;0.14501953125;-1.75;-21.0;35.875;
1441975677166755;0.4609375;-0.46026611328125;-0.6873779296875;-0.3212890625;15.834330398483813;12.288949160772434;17.864988969145834;-1.05322265625;0.43212890625;0.1376953125;-7.875;-19.3125;34.4375;
1441975677181756;0.457275390625;-0.4595947265625;-0.69207763671875;-0.3175048828125;15.762114178678694;12.262173861843525;17.855835931547777;-1.080078125;0.388671875;0.140625;-18.25;-19.4375;33.6875;
1441975677197757;0.4532470703125;-0.4593505859375;-0.6964111328125;-0.31402587890625;15.689027685061884;12.239651055255402;17.846774116003246;-1.068359375;0.35009765625;0.15771484375;-18.5;-19.9375;34.75;
1441975677218758;0.4483642578125;-0.459716796875;-0.7010498046875;-0.31024169921875;15.60380026705501;12.221161195928183;17.839465067689424;-1.04736328125;0.3115234375;0.158203125;-13.75;-20.625;37.6875;
1441975677235759;0.44244384765625;-0.46075439453125;-0.7060546875;-0.3057861328125;15.502616205517848;12.208508042649434;17.836480879980417;-0.9873046875;0.30517578125;0.181640625;-11.0;-21.6875;42.875;
1441975677256761;0.43670654296875;-0.46246337890625;-0.71038818359375;-0.3013916015625;15.404808494158523;12.206909596360978;17.840929078580913;-0.92529296875;0.3857421875;0.21240234375;-9.3125;-21.25;45.375;
1441975677280762;0.431884765625;-0.46356201171875;-0.71435546875;-0.29718017578125;15.319303962033523;12.203535083982139;17.846372694782513;-0.93017578125;0.4580078125;0.189453125;-6.625;-20.25;41.5625;
1441975677294763;0.4281005859375;-0.46295166015625;-0.71905517578125;-0.292236328125;15.240028529289102;12.187969574579691;17.852225087926723;-0.99072265625;0.4609375;0.15283203125;-10.375;-20.6875;38.5;
1441975677317764;0.42401123046875;-0.4619140625;-0.72412109375;-0.287353515625;15.15786820717432;12.16564996771366;17.852815829014457;-0.9921875;0.43408203125;0.15673828125;-22.25;-19.5625;38.8125;
1441975677346766;0.41864013671875;-0.4625244140625;-0.72845458984375;-0.28326416015625;15.067903292063582;12.154198982406395;17.85119075919956;-0.94580078125;0.40869140625;0.19677734375;-23.0;-20.0625;39.9375;
1441975677354766;0.413330078125;-0.4649658203125;-0.73114013671875;-0.280029296875;14.985960007820417;12.162885134909335;17.85666576421113;-0.91650390625;0.47119140625;0.23388671875;-10.5625;-20.9375;38.875;
1441975677376767;0.40936279296875;-0.467529296875;-0.73248291015625;-0.27813720703125;14.928644557399593;12.176102934682564;17.86150412896146;-0.953125;0.6083984375;0.21826171875;1.3125;-18.1875;30.9375;
1441975677407769;0.4068603515625;-0.4686279296875;-0.73333740234375;-0.27764892578125;14.897501636061087;12.176583870918115;17.856047862609515;-1.0703125;0.6787109375;0.1787109375;3.875;-17.0;19.8125;
1441975677414770;0.40423583984375;-0.468505859375;-0.73486328125;-0.27777099609375;14.868448372435976;12.1605393670774;17.8374719576853;-1.15185546875;0.611328125;0.16259765625;0.25;-18.4375;13.125;
1441975677436771;0.400634765625;-0.4700927734375;-0.735595703125;-0.2784423828125;14.83304393019025;12.157638532463327;17.819996728557452;-1.119140625;0.51904296875;0.2333984375;-1.125;-19.375;14.0625;
1441975677460772;0.3961181640625;-0.47369384765625;-0.7354736328125;-0.279052734375;14.788320002798597;12.173458485699092;17.810232263412672;-1.033203125;0.486328125;0.28369140625;13.1875;-16.625;16.6875;
1441975677474773;0.39154052734375;-0.4775390625;-0.73541259765625;-0.279052734375;14.739049478138702;12.193490708424932;17.80590562291184;-0.998046875;0.54052734375;0.29736328125;25.1875;-13.6875;18.625;
1441975677496774;0.3878173828125;-0.4803466796875;-0.73583984375;-0.2783203125;14.693740558787363;12.2080690273286;17.80543921660911;-0.99755859375;0.62060546875;0.29052734375;23.0;-12.25;18.3125;
1441975677520776;0.3846435546875;-0.48284912109375;-0.7362060546875;-0.277587890625;14.65426262235931;12.221675428305513;17.80619430326276;-0.9990234375;0.62890625;0.2861328125;14.25;-10.25;17.5;
1441975677541777;0.3822021484375;-0.48577880859375;-0.73577880859375;-0.27685546875;14.623744956334207;12.243910268805221;17.813912451978524;-1.005859375;0.6318359375;0.29150390625;12.625;-7.8125;16.125;
1441975677556778;0.3807373046875;-0.48846435546875;-0.735107421875;-0.27581787109375;14.60172767822796;12.268765324635229;17.82790056604471;-0.99755859375;0.63427734375;0.2861328125;15.3125;-2.5;13.75;
1441975677580779;0.3797607421875;-0.4901123046875;-0.73516845703125;-0.274169921875;14.579855170849463;12.285652420428228;17.84259475400764;-0.99755859375;0.65673828125;0.26953125;12.0625;1.875;10.5;
1441975677594780;0.37847900390625;-0.4918212890625;-0.73529052734375;-0.2725830078125;14.55515619688914;12.301538586114363;17.855272807304733;-0.9921875;0.671875;0.27734375;3.875;2.75;10.0625;
1441975677616781;0.37774658203125;-0.4937744140625;-0.73504638671875;-0.27069091796875;14.534424960537567;12.323361393438562;17.874536852932714;-0.9609375;0.64111328125;0.27685546875;4.9375;2.125;11.625;
1441975677640783;0.37744140625;-0.49615478515625;-0.734619140625;-0.2679443359375;14.512088850500087;12.353432043280803;17.904128174434057;-0.919921875;0.61767578125;0.25146484375;5.5;5.625;11.8125;
1441975677654783;0.37744140625;-0.49822998046875;-0.73443603515625;-0.26458740234375;14.4883470943494;12.382806700288516;17.937551073390335;-0.86865234375;0.60205078125;0.22265625;4.4375;10.375;14.125;
1441975677678785;0.37823486328125;-0.49951171875;-0.7344970703125;-0.26080322265625;14.46972453486334;12.408389211234207;17.97396157830879;-0.80908203125;0.626953125;0.2265625;0.625;13.5;12.875;
1441975677700786;0.37945556640625;-0.498779296875;-0.73590087890625;-0.25640869140625;14.450980703786431;12.415779488071498;0.005656547418111306;-0.77294921875;0.6103515625;0.1865234375;-6.5;15.0;10.625;
1441975677721787;0.38037109375;-0.49835205078125;-0.73724365234375;-0.25189208984375;14.428220409804155;12.425122721077665;0.037814122963372464;-0.7265625;0.5693359375;0.224609375;-18.25;15.375;10.375;
1441975677736788;0.38140869140625;-0.49951171875;-0.737548828125;-0.24725341796875;14.405183627144096;12.4514290975827;0.07961051241904386;-0.67919921875;0.53173828125;0.2333984375;-16.125;16.5625;13.0625;
1441975677760789;0.38348388671875;-0.50054931640625;-0.73724365234375;-0.24273681640625;14.393970798170642;12.481839720855886;0.12653627047926014;-0.6630859375;0.564453125;0.21484375;-7.4375;20.875;12.9375;
1441975677788791;0.3865966796875;-0.500732421875;-0.73699951171875;-0.23809814453125;14.392534901583423;12.508980028804011;0.17625283350043017;-0.6513671875;0.560546875;0.19384765625;-8.3125;25.5;8.0625;
1441975677796792;0.39007568359375;-0.49884033203125;-0.7379150390625;-0.23358154296875;14.396529349404569;12.51625337673113;0.2166244749426696;-0.6767578125;0.56298828125;0.16650390625;-14.5625;27.0625;5.0625;
1441975677820793;0.39324951171875;-0.4971923828125;-0.73876953125;-0.22900390625;14.396950034357676;12.524928661608444;0.2568897047005018;-0.701171875;0.52734375;0.17431640625;-25.875;23.125;3.75;
1441975677841794;0.3963623046875;-0.495849609375;-0.7392578125;-0.22491455078125;14.400107787470318;12.535821428357162;0.2955418997681793;-0.69580078125;0.49951171875;0.18017578125;-23.75;23.125;6.1875;
1441975677857795;0.3995361328125;-0.4954833984375;-0.73895263671875;-0.22100830078125;14.404372308477686;12.557250872108467;0.33888337277769487;-0.69189453125;0.47509765625;0.20361328125;-18.9375;24.125;5.8125;
1441975677880796;0.4034423828125;-0.49285888671875;-0.739990234375;-0.21636962890625;14.412562811888161;12.56072148717416;0.37974341746476026;-0.6943359375;0.513671875;0.17529296875;-13.6875;25.1875;4.4375;
1441975677901798;0.40838623046875;-0.4888916015625;-0.741455078125;-0.21112060546875;14.428505938934789;12.557995014331134;0.4247301603986474;-0.697265625;0.53857421875;0.17919921875;-29.9375;25.3125;0.1875;
1441975677916798;0.41424560546875;-0.48443603515625;-0.74249267578125;-0.2061767578125;14.457162400807878;12.556351911614096;0.4724855536645371;-0.70361328125;0.51416015625;0.1826171875;-38.9375;28.375;-1.0;
1441975677940800;0.42138671875;-0.4791259765625;-0.74298095703125;-0.20233154296875;14.508256046770178;12.552856095161953;0.518984065770816;-0.6787109375;0.49560546875;0.1650390625;-40.8125;31.25;-7.1875;
1441975677962801;0.42938232421875;-0.4722900390625;-0.74365234375;-0.198974609375;14.574487540743704;12.539656413041927;0.5616379458886106;-0.716796875;0.51318359375;0.169921875;-41.625;34.1875;-17.5;
1441975677976802;0.437744140625;-0.46502685546875;-0.7440185546875;-0.1966552734375;14.65316297658771;12.523563479948404;0.5990683306471289;-0.76611328125;0.51416015625;0.1923828125;-47.8125;34.75;-24.9375;
1441975678001803;0.44659423828125;-0.45745849609375;-0.74365234375;-0.19580078125;14.749056083882753;12.50672358768407;0.6307333787417381;-0.77294921875;0.49609375;0.15478515625;-48.125;31.6875;-31.125;
1441975678021804;0.45660400390625;-0.44940185546875;-0.7421875;-0.19696044921875;14.872967009002;12.49038203049465;0.6571239640324548;-0.76708984375;0.48828125;0.158203125;-43.9375;32.0;-41.0;
1441975678037805;0.46636962890625;-0.44183349609375;-0.7398681640625;-0.19970703125;15.006292769885285;12.476232210404916;0.6755934129515307;-0.86865234375;0.47314453125;0.15087890625;-39.6875;32.25;-52.25;
1441975678060807;0.47723388671875;-0.43499755859375;-0.73577880859375;-0.2042236328125;15.163081656213956;12.476978925964165;0.6981907999160243;-0.91650390625;0.47607421875;0.18212890625;-30.0;31.8125;-58.0625;
1441975678082808;0.486572265625;-0.42718505859375;-0.732421875;-0.2105712890625;15.320673039032107;12.450024267147942;0.6882467477283158;-0.94189453125;0.44091796875;0.130859375;-20.25;34.6875;-67.5625;
1441975678096809;0.4964599609375;-0.4210205078125;-0.7266845703125;-0.219482421875;15.500932708952096;12.441887554495048;0.677995165383358;-1.10498046875;0.39892578125;0.20556640625;-16.6875;24.25;-67.5625;
1441975678120810;0.513427734375;-0.41162109375;-0.71722412109375;-0.2293701171875;15.770701614602054;12.46593005467207;0.7146319999595782;-1.08984375;0.04345703125;-0.17138671875;-4.1875;5.6875;-58.1875;
1441975678141811;0.51080322265625;-0.397216796875;-0.7275390625;-0.2281494140625;15.75850858675953;12.237516859314317;0.5581269206754147;-2.26953125;0.40478515625;-0.29345703125;-12.375;52.0;-113.375;
1441975678156812;0.49261474609375;-0.408203125;-0.7347412109375;-0.2257080078125;15.52411342239014;12.216083974104503;0.4845157616258831;-1.5888671875;0.189453125;0.47802734375;-74.4375;-43.8125;8.9375;
1441975678179813;0.48553466796875;-0.42333984375;-0.729248046875;-0.2308349609375;15.462873400764293;12.330378512642572;0.5000797715000274;-0.74951171875;0.49365234375;0.57373046875;54.625;-49.75;81.75;
1441975678208815;0.48345947265625;-0.437255859375;-0.7193603515625;-0.24005126953125;15.488583935199758;12.463911867078782;0.5255283016215107;-1.2041015625;0.94873046875;0.37451171875;100.1875;-4.25;23.875;
1441975678216816;0.47943115234375;-0.44903564453125;-0.711181640625;-0.2506103515625;15.508392148823141;12.550510377393241;0.5065109296865253;-1.69287109375;0.73876953125;0.0185546875;108.5625;10.5;-7.6875;
1441975678239817;0.469970703125;-0.4654541015625;-0.70257568359375;-0.262451171875;15.478102446754466;12.647200233342684;0.4640398439194463;-1.77099609375;0.50537109375;0.03515625;102.6875;-8.0;-8.0625;
1441975678270819;0.4521484375;-0.491943359375;-0.690185546875;-0.278076171875;15.384597619989849;12.796071288901764;0.3977762140233938;-1.73095703125;0.21630859375;0.12744140625;135.5;-23.6875;17.5;
1441975678276819;0.4268798828125;-0.52301025390625;-0.67572021484375;-0.296142578125;15.245115261974497;12.948256288414838;0.28728604167349864;-1.6337890625;0.4541015625;0.16796875;209.25;-40.9375;42.5625;
1441975678299820;0.401611328125;-0.548583984375;-0.66424560546875;-0.31085205078125;15.09879486239174;13.051561638433476;0.16352245176484245;-1.46728515625;0.78369140625;0.18310546875;251.1875;-63.375;56.875;
1441975678322822;0.37969970703125;-0.566162109375;-0.65716552734375;-0.32177734375;14.968972013936973;13.09742508637722;0.0398519308549894;-1.2626953125;0.947265625;0.14501953125;212.25;-69.75;57.6875;
1441975678345823;0.36029052734375;-0.580078125;-0.651123046875;-0.33135986328125;14.860150998272672;13.128027253665653;17.925659473876618;-1.16845703125;0.876953125;0.17431640625;153.75;-69.125;52.3125;
1441975678359824;0.34375;-0.59130859375;-0.64532470703125;-0.34033203125;14.77873765553033;13.152756879845526;17.824034224418156;-1.1064453125;0.81103515625;0.080078125;128.625;-65.25;44.0;
1441975678382825;0.33001708984375;-0.60028076171875;-0.641357421875;-0.345703125;14.695823278989435;13.175679052317037;17.751548572770623;-0.95458984375;0.81298828125;0.05859375;110.75;-58.625;30.4375;
1441975678396826;0.322998046875;-0.60693359375;-0.6380615234375;-0.3468017578125;14.64165932502822;13.216279493173387;17.73819540548299;-0.77880859375;0.85205078125;0.09765625;84.1875;-40.75;16.0;
1441975678419827;0.3201904296875;-0.60858154296875;-0.638671875;-0.34539794921875;14.602896568919821;13.22115294610656;17.735778512173404;-0.7421875;0.7900390625;-0.07421875;45.5;-17.25;8.25;
1441975678442828;0.31842041015625;-0.60614013671875;-0.64306640625;-0.34326171875;14.564204941435372;13.181804080225124;17.71803895022763;-0.84130859375;0.77392578125;-0.083984375;1.0;-11.5625;6.9375;
1441975678456829;0.316162109375;-0.606689453125;-0.64495849609375;-0.3406982421875;14.520062565138524;13.178002670446345;17.719229853605388;-0.7900390625;0.67578125;0.021484375;-27.0625;-14.25;10.0625;
1441975678479831;0.3165283203125;-0.60540771484375;-0.6484375;-0.3359375;14.48082898478499;13.16812660612539;17.7391166871571;-0.71142578125;0.60791015625;-0.076171875;-10.4375;-9.25;15.25;
1441975678518833;0.31842041015625;-0.60284423828125;-0.65301513671875;-0.32989501953125;14.44450837848093;13.152100931746679;17.76852033338946;-0.73828125;0.619140625;-0.0546875;-31.375;2.125;14.75;
1441975678523833;0.3221435546875;-0.59820556640625;-0.65838623046875;-0.3240966796875;14.427521729282095;13.121729174982674;17.797002212531062;-0.7978515625;0.6513671875;-0.05322265625;-45.1875;7.8125;15.3125;
1441975678539834;0.33056640625;-0.5933837890625;-0.66131591796875;-0.31842041015625;14.458934158971216;13.116459623615569;17.85733096743849;-0.712890625;0.6357421875;0.00146484375;-57.1875;11.5625;3.1875;
1441975678562835;0.342529296875;-0.5916748046875;-0.6588134765625;-0.3140869140625;14.537872153266028;13.170137214164344;17.957054509706477;-0.6630859375;0.5107421875;0.05126953125;-55.0625;36.125;-13.625;
1441975678583837;0.3543701171875;-0.59088134765625;-0.65496826171875;-0.31036376953125;14.619700446524718;13.239140197353708;0.06295187259020167;-0.81982421875;0.4248046875;-0.05517578125;-32.25;54.8125;-24.0625;
1441975678600837;0.365478515625;-0.58843994140625;-0.653076171875;-0.30621337890625;14.68931911071319;13.28772960902489;0.15826568572910948;-0.96044921875;0.50927734375;-0.0810546875;-23.5625;55.3125;-26.75;
1441975678622839;0.37567138671875;-0.5845947265625;-0.6531982421875;-0.30084228515625;14.740207458662098;13.317525544991;0.2460230616138458;-0.9501953125;0.400390625;-0.06982421875;-34.625;48.5;-17.5625;
1441975678643840;0.38470458984375;-0.580810546875;-0.65386962890625;-0.29522705078125;14.777911531119333;13.342144130734548;0.3273802054167017;-0.89501953125;0.30419921875;-0.0224609375;-45.25;45.875;-6.375;
1441975678659841;0.39093017578125;-0.57989501953125;-0.65350341796875;-0.28961181640625;14.786509760185421;13.38236206425926;0.4045725167081631;-0.86962890625;0.240234375;-0.03759765625;-45.8125;40.8125;2.0;
1441975678682842;0.393310546875;-0.582763671875;-0.6517333984375;-0.28460693359375;14.7600241630296;13.438777109249541;0.46956131002352264;-0.83203125;0.23486328125;-0.0341796875;-26.875;38.0;14.875;
1441975678711844;0.392578125;-0.58660888671875;-0.6512451171875;-0.27874755859375;14.696319607627087;13.481121214786075;0.5151602945143282;-0.77197265625;0.27392578125;-0.04052734375;-0.25;30.9375;27.125;
1441975678719844;0.39044189453125;-0.590087890625;-0.65283203125;-0.27056884765625;14.600299667198792;13.506411379449284;0.5542928564196724;-0.6689453125;0.3369140625;-0.0048828125;3.875;23.875;37.75;
1441975678742846;0.38653564453125;-0.59454345703125;-0.6546630859375;-0.26190185546875;14.483229370897677;13.528425942416877;0.5845014448469301;-0.5517578125;0.37646484375;0.01513671875;-6.8125;22.25;47.8125;
1441975678763847;0.3817138671875;-0.6007080078125;-0.65521240234375;-0.2535400390625;14.358134802267946;13.56258122852233;0.6143187680132428;-0.44091796875;0.37841796875;0.068359375;0.0625;21.75;54.375;
1441975678779848;0.37506103515625;-0.60858154296875;-0.654541015625;-0.24609375;14.223221317102311;13.603187066723587;0.633571852342082;-0.3623046875;0.365234375;0.05126953125;12.125;21.6875;56.75;
1441975678802849;0.3682861328125;-0.61761474609375;-0.6531982421875;-0.23724365234375;14.072810976724657;13.65453319692558;0.6620090906171218;-0.30517578125;0.39453125;0.06298828125;28.5;17.5625;58.5625;
1441975678825850;0.36126708984375;-0.6251220703125;-0.65350341796875;-0.2275390625;13.916168042829646;13.686078891849244;0.682212542524562;-0.23583984375;0.42919921875;0.0166015625;30.625;22.5625;61.5;
1441975678839851;0.35321044921875;-0.631591796875;-0.6552734375;-0.21673583984375;13.744755885572278;13.700565478717863;0.6935407772906461;-0.24658203125;0.45703125;0.04345703125;19.3125;20.6875;64.375;
1441975678862852;0.34429931640625;-0.639892578125;-0.65625;-0.203369140625;13.540946302940831;13.728679455997488;0.7162646913905701;-0.203125;0.41259765625;0.1103515625;12.5;19.6875;73.375;
1441975678885854;0.33331298828125;-0.647216796875;-0.6588134765625;-0.1898193359375;13.322411991292295;13.735829789367225;0.720467905645599;-0.20458984375;0.48193359375;0.01708984375;14.125;25.0;86.4375;
1441975678899855;0.32183837890625;-0.6541748046875;-0.6619873046875;-0.1741943359375;13.084011891683835;13.738640889728675;0.7289442116892749;-0.201171875;0.48046875;0.08349609375;10.25;16.875;95.9375;
1441975678923856;0.3089599609375;-0.66131591796875;-0.6654052734375;-0.1566162109375;12.818906981900888;13.73900421368749;0.7378221348559125;-0.16845703125;0.576171875;0.09716796875;-0.9375;17.375;113.8125;
1441975678943857;0.29412841796875;-0.6685791015625;-0.66900634765625;-0.13775634765625;12.529015104496196;13.735275609066601;0.7416720450798021;-0.1796875;0.64794921875;0.07861328125;-3.75;18.6875;127.25;
1441975678959858;0.27655029296875;-0.67596435546875;-0.6728515625;-0.117919921875;12.211034253720072;13.726064726224076;0.7358476803732598;-0.2470703125;0.7451171875;0.0419921875;-4.375;16.0625;140.125;
1441975678982859;0.2572021484375;-0.68377685546875;-0.6759033203125;-0.09735107421875;11.873817187597055;13.720361089925351;0.7269994891972001;-0.2880859375;0.79541015625;0.0322265625;-4.8125;8.5625;156.0;
1441975679003861;0.23638916015625;-0.69195556640625;-0.67779541015625;-0.076904296875;11.526935887968387;13.719947160201853;0.7134511367573335;-0.26904296875;0.85986328125;0.013671875;0.0;5.875;165.5625;
1441975679019861;0.21600341796875;-0.696044921875;-0.68255615234375;-0.05523681640625;11.182281380971522;13.692081693344344;0.7021968301260515;-0.27734375;0.95556640625;-0.05908203125;5.8125;1.125;171.3125;
1441975679042863;0.19549560546875;-0.6990966796875;-0.68701171875;-0.03369140625;10.840301661661725;13.662611800401017;0.6921645066129093;-0.31201171875;0.8955078125;-0.03955078125;-22.9375;2.0625;171.875;
1441975679063864;0.175048828125;-0.70269775390625;-0.689453125;-0.01507568359375;10.522222296327454;13.645105557124783;0.6749090488250972;-0.306640625;0.84716796875;-0.04150390625;-26.0625;1.125;171.5;
1441975679079865;0.15576171875;-0.70562744140625;-0.69134521484375;0.0010986328125;10.234465070075625;13.629684196658499;0.6546945567542305;-0.27783203125;0.87451171875;-0.03857421875;-12.4375;-7.625;160.4375;
1441975679102866;0.13739013671875;-0.70721435546875;-0.693359375;0.01531982421875;9.972101884674284;13.610608693890164;0.631666763520873;-0.23291015625;0.90576171875;-0.07958984375;-11.25;-12.9375;145.1875;
1441975679123867;0.12005615234375;-0.70794677734375;-0.69549560546875;0.02691650390625;9.740492836224757;13.590038782121077;0.6036662135326789;-0.189453125;0.826171875;-0.1005859375;-15.8125;-17.5625;132.75;
1441975679139868;0.10382080078125;-0.70916748046875;-0.696533203125;0.035400390625;9.541732647061323;13.578519418464685;0.5693302793117967;-0.1767578125;0.75390625;-0.0244140625;-16.6875;-23.5;118.3125;
1441975679161870;0.09075927734375;-0.71026611328125;-0.6968994140625;0.04180908203125;9.384744734907441;13.57263649810925;0.5406320309478972;-0.14990234375;0.6943359375;-0.0087890625;-7.4375;-31.25;101.5625;
1441975679183871;0.08056640625;-0.71044921875;-0.69769287109375;0.044921875;9.27851391080804;13.564353591282385;0.5108174667858935;-0.14013671875;0.681640625;-0.044921875;-5.5;-26.4375;85.9375;
1441975679206872;0.0732421875;-0.71063232421875;-0.69842529296875;0.04327392578125;9.233850810965663;13.559330452063824;0.4739189544019639;-0.1650390625;0.6611328125;-0.0244140625;-7.3125;-28.4375;62.875;
1441975679221873;0.0693359375;-0.71087646484375;-0.698974609375;0.03680419921875;9.255614745548712;13.558020076355234;0.43183155724341604;-0.1728515625;0.60302734375;-0.01123046875;-3.3125;-36.0625;33.5625;
1441975679245874;0.06866455078125;-0.7103271484375;-0.70013427734375;0.024169921875;9.354362573446071;13.553121337061427;0.3782124414010954;-0.1806640625;0.6328125;-0.03271484375;-1.25;-42.3125;0.5625;
1441975679259875;0.07275390625;-0.70928955078125;-0.701171875;0.0067138671875;9.530716967775671;13.548040200044593;0.3246997148650764;-0.20849609375;0.6142578125;-0.03466796875;-3.5625;-54.3125;-36.3125;
1441975679289877;0.08154296875;-0.7081298828125;-0.7012939453125;-0.0140380859375;9.771457867211534;13.5465036071819;0.2773462773639462;-0.23486328125;0.55029296875;-0.0390625;-3.3125;-54.9375;-75.0;
1441975679304878;0.095703125;-0.706787109375;-0.69989013671875;-0.0391845703125;10.091408565667825;13.550546263349824;0.23491253988053568;-0.32666015625;0.55712890625;-0.01611328125;3.5625;-49.0;-115.0625;
1441975679319879;0.1131591796875;-0.70452880859375;-0.69732666015625;-0.0677490234375;10.467139339701552;13.554228646578892;0.19251413672720763;-0.42724609375;0.54638671875;-0.02099609375;10.75;-44.5625;-153.8125;
1441975679341880;0.133056640625;-0.70074462890625;-0.69390869140625;-0.0989990234375;10.886781353455214;13.552789921955805;0.14866089878760158;-0.4765625;0.54052734375;-0.01220703125;13.125;-44.75;-181.8125;
1441975679366881;0.15557861328125;-0.6953125;-0.68890380859375;-0.1337890625;11.359986674816964;13.547439684453714;0.10009515473391066;-0.48583984375;0.57373046875;0.00146484375;11.3125;-45.875;-204.3125;
1441975679393883;0.18121337890625;-0.68829345703125;-0.6806640625;-0.17388916015625;11.907818113163168;13.5427575573023;0.04174336501790275;-0.52001953125;0.5390625;0.02294921875;12.6875;-49.0;-231.375;
1441975679409884;0.2093505859375;-0.67755126953125;-0.67071533203125;-0.2176513671875;12.514809012774238;13.519870742948155;17.971019030806527;-0.5849609375;0.5751953125;-0.0283203125;20.9375;-56.9375;-269.125;
1441975679425885;0.239013671875;-0.6666259765625;-0.6553955078125;-0.2628173828125;13.157576541431864;13.511109837106748;17.901064547824962;-0.76806640625;0.4716796875;0.07080078125;15.875;-62.75;-297.125;
1441975679446886;0.26678466796875;-0.6588134765625;-0.63397216796875;-0.30487060546875;13.772439372665884;13.544043388508067;17.85073624400947;-0.98291015625;0.3076171875;0.14013671875;36.375;-55.125;-312.375;
1441975679461887;0.291259765625;-0.65045166015625;-0.61175537109375;-0.3433837890625;14.341821616792322;13.57577263974407;17.801652487434293;-1.2626953125;0.255859375;0.072265625;69.125;-37.6875;-295.75;
1441975679484888;0.3133544921875;-0.63720703125;-0.59161376953125;-0.3819580078125;14.903003716670504;13.546343181839209;17.706692740539587;-1.41259765625;0.328125;-0.02783203125;69.375;-37.1875;-274.3125;
1441975679506889;0.33599853515625;-0.6171875;-0.5738525390625;-0.42071533203125;15.480119301257245;13.415939426859333;17.539799390653346;-1.4404296875;0.34814453125;-0.046875;49.1875;-59.6875;-272.0625;
1441975679522890;0.3592529296875;-0.59356689453125;-0.55767822265625;-0.45574951171875;16.03287253368475;13.181698615629658;17.296513861202634;-1.4091796875;0.27783203125;0.03271484375;17.1875;-76.5;-283.0625;
1441975679544891;0.3818359375;-0.57080078125;-0.54052734375;-0.486083984375;16.538474722565436;12.849177021905053;16.96035874562524;-1.40478515625;0.0966796875;0.11865234375;-8.625;-72.4375;-275.875;
1441975679567893;0.40020751953125;-0.5523681640625;-0.52056884765625;-0.513671875;16.974262454026324;12.350216081522195;16.43204900099033;-1.47265625;-0.1201171875;0.10546875;-10.5;-54.875;-257.25;
1441975679581894;0.41241455078125;-0.5386962890625;-0.49749755859375;-0.5406494140625;17.31001627321591;11.427667637574508;15.440829995540318;-1.57275390625;-0.203125;0.11083984375;18.0;-41.1875;-233.9375;
1441975679605895;0.421630859375;-0.52630615234375;-0.474609375;-0.56573486328125;17.464710970025394;9.698306074211706;13.635885498911627;-1.61328125;-0.0693359375;0.08447265625;58.3125;-37.3125;-214.8125;
1441975679625896;0.4310302734375;-0.51263427734375;-0.4541015625;-0.587646484375;17.363798923011935;7.914044569422201;11.795573106724119;-1.60595703125;0.12255859375;0.03173828125;65.9375;-37.3125;-201.8125;
1441975679641897;0.44110107421875;-0.497314453125;-0.435791015625;-0.60687255859375;17.11037639271366;6.93851263600593;10.784003518570922;-1.5810546875;0.20947265625;-0.03076171875;46.375;-38.5;-192.375;
1441975679680899;0.4501953125;-0.48175048828125;-0.41815185546875;-0.6248779296875;16.809459610539516;6.463008730651715;10.275059040005209;-1.544921875;0.185546875;-0.04736328125;27.25;-40.6875;-184.9375;
1441975679686900;0.4573974609375;-0.46746826171875;-0.40008544921875;-0.64208984375;16.506649863298065;6.206621311979841;9.97635929780394;-1.4775390625;0.11572265625;-0.01953125;25.0625;-41.6875;-178.0;
1441975679709901;0.46368408203125;-0.453369140625;-0.381591796875;-0.65869140625;16.20090373118883;6.048448947061023;9.772291126021809;-1.3505859375;0.14404296875;-0.0234375;33.875;-38.6875;-170.25;
1441975679732902;0.4693603515625;-0.4388427734375;-0.36346435546875;-0.674560546875;15.894317288059122;5.950579346871988;9.630224985992085;-1.22412109375;0.19287109375;-0.03466796875;37.125;-37.1875;-168.75;
1441975679746903;0.47454833984375;-0.42401123046875;-0.3458251953125;-0.6895751953125;15.591120693891849;5.8880447014884965;9.525933524376816;-1.13427734375;0.1953125;-0.03515625;35.5625;-39.4375;-165.875;
1441975679761904;0.47833251953125;-0.409912109375;-0.3280029296875;-0.70404052734375;15.298645701333097;5.851470565405247;9.441363308376141;-1.1455078125;0.13916015625;-0.029296875;33.5625;-41.1875;-161.625;
1441975679784905;0.48199462890625;-0.3953857421875;-0.31036376953125;-0.71771240234375;15.007277293902565;5.826033695300814;9.370548182464484;-1.119140625;0.16748046875;-0.05712890625;39.1875;-39.625;-157.1875;
1441975679806906;0.4864501953125;-0.37994384765625;-0.2939453125;-0.7298583984375;14.719462183894446;5.8034200095600506;9.314848455338435;-1.0009765625;0.17431640625;-0.0517578125;36.75;-40.125;-155.8125;
1441975679821907;0.4903564453125;-0.36505126953125;-0.27899169921875;-0.7406005859375;14.45176744420944;5.78985520805446;9.272999095398127;-0.93115234375;0.12158203125;-0.01708984375;24.4375;-41.9375;-151.4375;
1441975679844909;0.49139404296875;-0.3524169921875;-0.2642822265625;-0.7513427734375;14.211866091441424;5.797486871637852;9.237190652523614;-0.9267578125;-0.01123046875;0.037109375;20.8125;-40.9375;-138.9375;
1441975679874910;0.4893798828125;-0.34228515625;-0.2501220703125;-0.76214599609375;14.003983054347412;5.825898578439805;9.206434962765726;-0.89697265625;-0.0693359375;0.04345703125;36.25;-36.375;-124.9375;
1441975679881911;0.486328125;-0.33660888671875;-0.2398681640625;-0.76983642578125;13.872679775505711;5.854328445372702;9.18214861130711;-0.81396484375;0.00439453125;0.0390625;51.6875;-32.25;-109.9375;
1441975679905912;0.4847412109375;-0.33154296875;-0.23150634765625;-0.775634765625;13.761913697765563;5.870376322812871;9.160311239945877;-0.7353515625;0.029296875;0.03369140625;44.875;-28.875;-97.875;
1441975679926913;0.484130859375;-0.327392578125;-0.22509765625;-0.77960205078125;13.67535132811435;5.877417354190206;9.142101845361115;-0.6708984375;0.01171875;0.0380859375;30.375;-24.6875;-84.5625;
1441975679941914;0.484130859375;-0.3250732421875;-0.220703125;-0.7818603515625;13.621745420567613;5.877067826587814;9.125740384988013;-0.5859375;0.015625;0.037109375;18.5;-19.9375;-69.375;
1441975679965916;0.4837646484375;-0.32427978515625;-0.2176513671875;-0.78326416015625;13.593358420301238;5.877449891427256;9.112089074009948;-0.5078125;0.029296875;0.0126953125;10.125;-13.125;-52.125;
1441975679986917;0.4822998046875;-0.3250732421875;-0.21551513671875;-0.784423828125;13.587626897028386;5.884241690188113;9.101013710474886;-0.4365234375;0.060546875;0.00634765625;8.5625;-7.625;-38.875;
1441975680002918;0.479736328125;-0.32757568359375;-0.21453857421875;-0.78521728515625;13.607488661933406;5.8974032307464155;9.093419636890143;-0.40234375;0.1025390625;-0.00537109375;12.4375;-3.6875;-28.375;
1441975680025919;0.47711181640625;-0.331787109375;-0.21502685546875;-0.784912109375;13.655215796546319;5.908210127225676;9.087305094516264;-0.41162109375;0.1474609375;-0.0146484375;16.1875;-0.5625;-18.625;
1441975680046920;0.47509765625;-0.33758544921875;-0.21771240234375;-0.78289794921875;13.734543601218181;5.9121771309109175;9.085083443274918;-0.38720703125;0.17333984375;-0.0361328125;12.875;4.625;-5.8125;
1441975680061921;0.47100830078125;-0.34649658203125;-0.22235107421875;-0.78021240234375;13.859732449097493;5.928303019426663;9.089053244051554;-0.44580078125;0.138671875;-0.017578125;3.125;9.1875;8.875;
1441975680084922;0.46453857421875;-0.358642578125;-0.2288818359375;-0.77667236328125;14.032904966922137;5.958658564255801;9.100206996585925;-0.56005859375;0.146484375;-0.033203125;11.25;13.5;26.125;
1441975680106924;0.458251953125;-0.37310791015625;-0.2379150390625;-0.7708740234375;14.248981103084333;5.984693665686332;9.116942252151317;-0.60205078125;0.240234375;-0.1005859375;20.375;17.375;43.1875;
1441975680121924;0.45123291015625;-0.38922119140625;-0.24822998046875;-0.7637939453125;14.493530399254539;6.0150772554986816;9.139336768013761;-0.68212890625;0.251953125;-0.16015625;14.0;20.8125;60.0;
1441975680144926;0.4417724609375;-0.408203125;-0.2598876953125;-0.7554931640625;14.781402494924329;6.063478453028238;9.172300288127484;-0.740234375;0.19580078125;-0.17138671875;14.1875;25.3125;75.9375;
1441975680165927;0.43023681640625;-0.427734375;-0.27099609375;-0.74737548828125;15.07482172131399;6.134600857763523;9.217214891649533;-0.72705078125;0.2021484375;-0.1494140625;21.875;35.125;98.0;
1441975680181928;0.41864013671875;-0.449951171875;-0.28472900390625;-0.7357177734375;15.42122648594622;6.21072806352472;9.278478252244899;-0.83447265625;0.3798828125;-0.17626953125;32.0625;51.8125;124.875;
1441975680204929;0.40704345703125;-0.4737548828125;-0.302001953125;-0.72021484375;15.816007629740582;6.31060277855836;9.381021648754617;-0.9658203125;0.44287109375;-0.26708984375;21.5625;63.75;147.1875;
1441975680233931;0.3941650390625;-0.5029296875;-0.32305908203125;-0.6981201171875;16.31064895468598;6.456983567429719;9.541397876413255;-1.1455078125;0.49755859375;-0.212890625;5.375;72.125;171.125;
1441975680242931;0.39056396484375;-0.52960205078125;-0.353515625;-0.6649169921875;16.86139825637708;6.638439456210843;9.8303645702377;-1.23681640625;0.95947265625;-0.3837890625;-6.625;98.75;207.8125;
1441975680255932;0.38055419921875;-0.555419921875;-0.388671875;-0.62896728515625;17.40015763110193;7.664792585397595;10.965051273516893;-1.5;0.66552734375;-0.46923828125;-99.5;115.1875;239.125;
1441975680277933;0.35205078125;-0.59027099609375;-0.41656494140625;-0.59515380859375;17.4755981576706;11.635643037028279;14.931533875272695;-2.0224609375;0.09521484375;-0.169921875;-96.5625;102.4375;292.125;
1441975680301935;0.314697265625;-0.62872314453125;-0.43597412109375;-0.56182861328125;16.87596261264257;13.332403516173233;16.555644798446274;-2.583984375;-0.1328125;-0.04541015625;17.8125;109.125;343.25;
1441975680315936;0.2742919921875;-0.667724609375;-0.45855712890625;-0.5184326171875;16.06939579106034;13.865262504716846;17.0361837226553;-2.72216796875;0.1123046875;0.2626953125;86.4375;115.6875;350.25;
1441975680337937;0.2425537109375;-0.69622802734375;-0.496337890625;-0.45849609375;15.153320902935048;14.025743032983444;17.287203247306287;-2.6689453125;0.5224609375;0.10693359375;68.125;140.4375;398.0625;
1441975680361938;0.22320556640625;-0.7005615234375;-0.55316162109375;-0.39178466796875;14.273128704868036;13.884909255473643;17.425178141354067;-2.62939453125;0.8779296875;-0.0224609375;-69.875;171.625;437.3125;
1441975680383939;0.19891357421875;-0.70025634765625;-0.60186767578125;-0.32855224609375;13.438683561188753;13.739711655554762;17.52928029477428;-2.86669921875;0.18359375;0.2529296875;-257.25;144.3125;423.875;
1441975680397940;0.1611328125;-0.71429443359375;-0.619873046875;-0.28216552734375;12.70734267918344;13.760017992834957;17.568883529711748;-2.736328125;-0.24658203125;0.09228515625;-223.75;114.0;408.0625;
1441975680421942;0.12249755859375;-0.73748779296875;-0.6160888671875;-0.248291015625;12.113834035089946;13.89508644467116;17.579293951359208;-2.40234375;-0.13427734375;0.04345703125;-5.5625;62.0625;362.25;
1441975680443943;0.09765625;-0.75604248046875;-0.6087646484375;-0.2200927734375;11.684770427923432;14.02330676815679;17.61260117988142;-2.0947265625;0.400390625;0.083984375;129.1875;42.3125;294.3125;
