1441975282783198;-0.87591552734375;-0.02978515625;-0.32843017578125;-0.35223388671875;5.63344818828061;15.505255752542173;9.995874977216012;1.64306640625;0.447265625;-0.2763671875;92.375;-69.5625;-171.0;
1441975282804199;-0.87481689453125;-0.038330078125;-0.31280517578125;-0.36810302734375;5.87339299779344;15.430391212388637;10.017744433820386;1.60791015625;0.46875;-0.13525390625;4.3125;-79.8125;-138.9375;
1441975282819200;-0.87310791015625;-0.0474853515625;-0.29913330078125;-0.38214111328125;6.092081885770042;15.362577558273198;10.044104358799181;1.56787109375;0.095703125;-0.17041015625;-64.25;-74.75;-121.6875;
1441975282843201;-0.87347412109375;-0.0595703125;-0.2877197265625;-0.3883056640625;6.284902494717173;15.339554356679546;10.079757604442019;1.4091796875;-0.1650390625;-0.091796875;-57.3125;-61.6875;-118.5625;
1441975282863203;-0.87591552734375;-0.070068359375;-0.28485107421875;-0.38311767578125;6.355767190276465;15.37142329058686;10.119264818196935;1.1572265625;-0.1259765625;-0.19287109375;-9.75;-42.0625;-111.0;
1441975282879204;-0.87969970703125;-0.082763671875;-0.2841796875;-0.372314453125;6.400360484286871;15.432178585927756;10.170773844809156;0.91845703125;-0.02197265625;-0.25927734375;35.625;-19.5;-95.9375;
1441975282911205;-0.88250732421875;-0.0950927734375;-0.28631591796875;-0.3609619140625;6.411002668200688;15.488553292454716;10.229959738583991;0.8369140625;0.20458984375;-0.3212890625;75.6875;0.125;-81.25;
1441975282924206;-0.8841552734375;-0.1046142578125;-0.29144287109375;-0.34991455078125;6.376041832439303;15.536526786762488;10.284850705233225;0.7890625;0.46142578125;-0.32177734375;84.6875;16.1875;-62.3125;
1441975282939207;-0.88482666015625;-0.11065673828125;-0.30029296875;-0.33880615234375;6.284666467448443;15.577279842257099;10.333040211685487;0.73681640625;0.5146484375;-0.412109375;73.5;31.5;-37.9375;
1441975282963208;-0.88543701171875;-0.114013671875;-0.312255859375;-0.3248291015625;6.138716948949649;15.628927107157812;10.372790274433715;0.68505859375;0.416015625;-0.40283203125;60.5;47.375;-12.8125;
1441975282984210;-0.88592529296875;-0.1170654296875;-0.32696533203125;-0.3076171875;5.9518575504852365;15.692245790455583;10.414904222805276;0.68701171875;0.3349609375;-0.447265625;63.75;61.6875;10.5625;
1441975282999210;-0.88641357421875;-0.12261962890625;-0.341796875;-0.2872314453125;5.7625070157674525;15.770155302924728;10.466482802916712;0.697265625;0.3173828125;-0.45947265625;77.1875;77.8125;24.0625;
1441975283023212;-0.886962890625;-0.1309814453125;-0.35791015625;-0.26104736328125;5.549612204284462;15.874840427655627;10.528690124653101;0.71923828125;0.27001953125;-0.47802734375;102.6875;94.9375;31.4375;
1441975283044213;-0.88720703125;-0.14105224609375;-0.3746337890625;-0.2294921875;5.313116433558782;16.00636284681729;10.59271792813635;0.72998046875;0.291015625;-0.45556640625;137.5625;109.75;31.5;
1441975283059214;-0.88616943359375;-0.15240478515625;-0.3917236328125;-0.19512939453125;5.059779287041071;16.149131835175524;10.659378879429887;0.7744140625;0.34130859375;-0.462890625;168.3125;120.0625;35.125;
1441975283082215;-0.88330078125;-0.164794921875;-0.40899658203125;-0.15936279296875;4.7934897391916795;16.29453188126568;10.729552066892055;0.79443359375;0.41796875;-0.4599609375;184.6875;128.5625;35.75;
1441975283111217;-0.87841796875;-0.17767333984375;-0.4259033203125;-0.12451171875;4.525609420902561;16.429967217540405;10.803430149204495;0.86181640625;0.439453125;-0.44775390625;192.75;135.1875;32.9375;
1441975283120217;-0.8714599609375;-0.1898193359375;-0.4425048828125;-0.09417724609375;4.266031188924091;16.532798347401197;10.883517269333609;0.93017578125;0.4716796875;-0.40087890625;188.6875;136.9375;26.875;
1441975283143219;-0.86297607421875;-0.2015380859375;-0.458251953125;-0.06927490234375;4.028020790970692;16.596447941601905;10.975214107697829;0.9521484375;0.42333984375;-0.31640625;163.0625;134.5625;17.4375;
1441975283165220;-0.853271484375;-0.21173095703125;-0.47381591796875;-0.05242919921875;3.8162127037851854;16.600051465387097;11.08444408415652;0.943359375;0.345703125;-0.20947265625;134.6875;126.9375;3.1875;
1441975283179221;-0.84210205078125;-0.21893310546875;-0.4912109375;-0.0418701171875;3.60135552494268;16.547132063780058;11.209325540832372;0.96044921875;0.3017578125;-0.1767578125;90.0625;119.375;-12.25;
1441975283203222;-0.82952880859375;-0.223388671875;-0.51080322265625;-0.03472900390625;3.371447529038525;16.450502247483698;11.350706194301576;1.0703125;0.38330078125;-0.26708984375;48.875;124.5;-14.6875;
1441975283231224;-0.81549072265625;-0.2266845703125;-0.53192138671875;-0.02703857421875;3.1215406401642882;16.33038307254244;11.512436108560339;1.22314453125;0.33251953125;-0.30712890625;20.3125;134.375;-14.0625;
1441975283239224;-0.80035400390625;-0.229248046875;-0.5538330078125;-0.01654052734375;2.8498378404757525;16.20059890860151;11.69207487132281;1.353515625;0.2626953125;-0.25439453125;16.875;145.5;-9.625;
1441975283263225;-0.78424072265625;-0.2288818359375;-0.57672119140625;-0.006591796875;2.5644743690060072;16.033282295062868;11.894355857520972;1.3857421875;0.302734375;-0.2744140625;26.9375;157.625;1.3125;
1441975283283227;-0.76763916015625;-0.224609375;-0.60028076171875;0.00115966796875;2.277000663662575;15.810212100445243;12.126980257021572;1.373046875;0.3671875;-0.318359375;13.625;166.0;13.5625;
1441975283299228;-0.75079345703125;-0.2174072265625;-0.623779296875;0.0076904296875;1.9966359956404864;15.525057057089548;12.404954046831229;1.375;0.3125;-0.341796875;-11.3125;169.75;22.625;
1441975283323229;-0.7340087890625;-0.2078857421875;-0.646484375;0.01416015625;1.7289427709008098;15.17253754993156;12.741212087317546;1.37255859375;0.22216796875;-0.31640625;-26.6875;169.5625;29.625;
1441975283344230;-0.717529296875;-0.197021484375;-0.66778564453125;0.0213623046875;1.4834049246587107;14.738485210431193;13.157364427339953;1.32958984375;0.1328125;-0.275390625;-34.6875;167.0;38.9375;
1441975283359231;-0.7015380859375;-0.18499755859375;-0.68768310546875;0.02777099609375;1.2815516813235106;14.18717647151565;13.683580498221941;1.31591796875;0.07861328125;-0.2265625;-35.1875;161.375;46.9375;
1441975283382232;-0.6866455078125;-0.17047119140625;-0.70611572265625;0.031982421875;1.1349504010179752;13.513393388462854;14.313672821088588;1.2802734375;0.1396484375;-0.25;-40.8125;154.6875;50.9375;
1441975283404234;-0.67279052734375;-0.15277099609375;-0.72314453125;0.0338134765625;1.0481181759045377;12.733526821124693;15.02779170022405;1.21240234375;0.17529296875;-0.21630859375;-58.5625;143.125;55.0625;
1441975283419234;-0.6600341796875;-0.13238525390625;-0.73876953125;0.03436279296875;1.0200380803521103;11.901263205212649;15.778538104449572;1.1611328125;0.115234375;-0.1796875;-79.1875;132.1875;58.9375;
1441975283443236;-0.64862060546875;-0.1119384765625;-0.7520751953125;0.0350341796875;1.0459251867865513;11.130788583828465;16.468214486588373;1.08251953125;0.05029296875;-0.1513671875;-94.1875;121.75;64.625;
1441975283463237;-0.64068603515625;-0.09234619140625;-0.7613525390625;0.037109375;1.0768777781706085;10.493599754475238;17.03393823245134;1.0009765625;0.00537109375;-0.10546875;-92.0625;107.5;66.625;
1441975283479238;-0.63494873046875;-0.07464599609375;-0.76800537109375;0.03875732421875;1.118404872482376;9.985807519357275;17.476319908564744;0.94873046875;-0.0458984375;-0.10107421875;-81.625;91.5;65.3125;
1441975283503239;-0.6312255859375;-0.05780029296875;-0.7724609375;0.0401611328125;1.1551997673737155;9.55555226400929;17.84366012626604;0.92724609375;-0.00390625;-0.12060546875;-74.25;74.1875;62.875;
1441975283525240;-0.62933349609375;-0.042724609375;-0.77490234375;0.04144287109375;1.1816151371761485;9.196729241133326;0.14628143078537809;0.86962890625;-0.0390625;-0.08984375;-70.25;55.0;59.625;
1441975283539241;-0.62933349609375;-0.03021240234375;-0.775390625;0.0435791015625;1.1905033473435056;8.88890352036626;0.41180030444531396;0.8623046875;-0.05322265625;-0.0673828125;-62.125;37.875;54.25;
1441975283563243;-0.63079833984375;-0.0218505859375;-0.77435302734375;0.04620361328125;1.1818312607198391;8.657231134229665;0.6200467470783348;0.85400390625;-0.1298828125;-0.05908203125;-46.0625;21.5625;45.875;
1441975283584244;-0.63372802734375;-0.0167236328125;-0.7718505859375;0.0489501953125;1.1511571836202963;8.477095155332423;0.790417348283805;0.83349609375;-0.08203125;-0.04541015625;-26.9375;7.25;38.1875;
1441975283614246;-0.63836669921875;-0.01287841796875;-0.76800537109375;0.05078125;1.0960404612158152;8.314712275622314;0.9444611194111121;0.81640625;-0.001953125;-0.03369140625;-13.0625;-6.625;33.75;
1441975283622246;-0.64471435546875;-0.0086669921875;-0.7626953125;0.05084228515625;1.016549812549964;8.137523222957087;1.10459538201689;0.82666015625;0.06298828125;-0.03466796875;-12.1875;-20.4375;30.625;
1441975283645247;-0.65289306640625;-0.00390625;-0.75592041015625;0.04925537109375;0.9130157174610227;7.920178810709359;1.2959244612427556;0.814453125;0.091796875;-0.02685546875;-20.9375;-34.5625;26.75;
1441975283667249;-0.66241455078125;0.001220703125;-0.74774169921875;0.0465087890625;0.7928118134513651;7.630904795144425;1.5530411064043492;0.8056640625;0.10546875;-0.02001953125;-30.0;-49.6875;23.5625;
1441975283682249;-0.6727294921875;0.00665283203125;-0.7386474609375;0.04339599609375;0.6709853704255535;7.214167712393952;1.9349599045721106;0.814453125;0.12109375;-0.0283203125;-36.0625;-61.375;21.6875;
1441975283705251;-0.68377685546875;0.01251220703125;-0.72857666015625;0.03985595703125;0.5586054452197783;6.582769349342095;2.528143800489035;0.81591796875;0.14404296875;-0.048828125;-38.9375;-68.3125;23.625;
1441975283726252;-0.69537353515625;0.01800537109375;-0.71759033203125;0.03564453125;0.4706311533754522;5.660500869699332;3.4110223275906293;0.826171875;0.125;-0.03662109375;-42.125;-77.8125;22.5625;
1441975283742253;-0.70745849609375;0.0224609375;-0.70574951171875;0.03118896484375;0.4350295023592978;4.426467593150748;4.608918052090728;0.8330078125;0.076171875;-0.0322265625;-43.1875;-85.8125;15.3125;
1441975283766254;-0.71990966796875;0.02545166015625;-0.69317626953125;0.026611328125;0.47433000446483903;3.1433673026051907;5.861334751499671;0.8232421875;0.01953125;-0.07275390625;-39.375;-90.25;6.375;
1441975283786255;-0.73223876953125;0.026611328125;-0.68017578125;0.02252197265625;0.5802947927447195;2.158791579915787;6.824619653389411;0.83056640625;-0.01611328125;-0.076171875;-34.125;-97.3125;-2.8125;
1441975283810257;-0.74432373046875;0.02667236328125;-0.66705322265625;0.01904296875;0.7279521145613611;1.5149997486899336;7.454028522022253;0.8720703125;0.00634765625;-0.12548828125;-24.875;-97.375;-6.3125;
1441975283825258;-0.75604248046875;0.0255126953125;-0.6539306640625;0.01544189453125;0.8923144939782263;1.0722650637343327;7.886811846964229;0.92041015625;-9.765625E-4;-0.1474609375;-17.6875;-98.6875;-9.4375;
1441975283847259;-0.76708984375;0.023681640625;-0.64105224609375;0.0113525390625;1.0614665004184478;0.7516241372141819;8.19821136308195;0.94580078125;0.01904296875;-0.162109375;-13.5625;-98.5;-14.25;
1441975283862260;-0.7774658203125;0.02203369140625;-0.6285400390625;0.00628662109375;1.230687473389283;0.5062677180088709;8.429564487762445;0.939453125;0.03125;-0.1650390625;-12.6875;-97.1875;-18.1875;
1441975283885261;-0.78680419921875;0.021240234375;-0.616943359375;8.544921875E-4;1.3912753324719667;0.3289575807617944;8.587841213898729;0.94091796875;0.05859375;-0.16650390625;-17.4375;-95.0;-19.8125;
1441975283906262;-0.7947998046875;0.021728515625;-0.60650634765625;-0.00408935546875;1.536962267558086;0.2148145619052489;8.679634791366034;0.99169921875;0.08154296875;-0.19873046875;-21.75;-87.875;-16.25;
1441975283922263;-0.80133056640625;0.0218505859375;-0.5977783203125;-0.008056640625;1.6589139928604024;0.1326111193057962;8.744932583330794;1.04443359375;0.015625;-0.1953125;-24.875;-80.75;-13.6875;
1441975283951265;-0.806640625;0.02099609375;-0.59063720703125;-0.01055908203125;1.7591210766972227;0.07362994414799984;8.796999140030948;1.0830078125;0.01806640625;-0.1650390625;-19.0625;-72.6875;-12.0625;
1441975283966266;-0.81085205078125;0.01995849609375;-0.5848388671875;-0.0125732421875;1.8401584606500816;0.026814733507920616;8.839660441286624;1.1220703125;0.05419921875;-0.18212890625;-7.9375;-62.625;-9.0625;
1441975283982267;-0.8138427734375;0.01934814453125;-0.58062744140625;-0.01513671875;1.8986232835302692;17.980896020182495;8.877441973033843;1.171875;0.08837890625;-0.20751953125;-4.5;-52.8125;-6.375;
1441975284011268;-0.81573486328125;0.01971435546875;-0.57794189453125;-0.01727294921875;1.935975520554729;17.953399729304735;8.894576560458301;1.197265625;0.12451171875;-0.21435546875;-7.1875;-42.4375;-3.75;
1441975284026269;-0.81634521484375;0.02130126953125;-0.57696533203125;-0.0191650390625;1.9489932300148978;17.94238526427593;8.891255762711669;1.17578125;0.12158203125;-0.25244140625;-8.5;-29.4375;1.8125;
1441975284042270;-0.81561279296875;0.0233154296875;-0.577880859375;-0.0201416015625;1.9355522021063996;17.948932533952725;8.872444638082522;1.14501953125;0.080078125;-0.25341796875;-12.375;-16.5;5.75;
1441975284065271;-0.8140869140625;0.0252685546875;-0.57989501953125;-0.01995849609375;1.9068468766086193;17.97203093283797;8.842140944575512;1.07763671875;0.05712890625;-0.2294921875;-10.1875;-3.5625;9.6875;
1441975284086273;-0.8118896484375;0.02703857421875;-0.5828857421875;-0.0196533203125;1.8647320289928015;17.996489225268625;8.81177740789637;1.00732421875;0.0341796875;-0.23291015625;-4.5625;6.5625;12.25;
1441975284102273;-0.80902099609375;0.0291748046875;-0.5867919921875;-0.0194091796875;1.8098797453202589;0.026134954735185824;8.774516426131234;0.94677734375;0.0478515625;-0.224609375;-3.375;14.625;13.125;
1441975284132275;-0.80535888671875;0.03192138671875;-0.5916748046875;-0.01922607421875;1.7411329538361207;0.06516453551618938;8.725160826555546;0.888671875;0.05810546875;-0.22314453125;-4.25;22.875;15.5625;
1441975284146276;-0.80108642578125;0.03521728515625;-0.5972900390625;-0.0185546875;1.6626025035187868;0.12360228809048794;8.65618591697741;0.8466796875;0.04345703125;-0.2001953125;-7.125;30.3125;18.0625;
1441975284162277;-0.796630859375;0.0382080078125;-0.60308837890625;-0.01739501953125;1.5822316260366216;0.19314934672986786;8.579366132008845;0.81640625;0.01806640625;-0.18310546875;-6.875;36.0625;20.5625;
1441975284185278;-0.7921142578125;0.0411376953125;-0.60888671875;-0.01617431640625;1.5025762733769898;0.27079041234650275;8.494955183211294;0.80224609375;0.00634765625;-0.1748046875;-3.9375;37.8125;20.9375;
1441975284206279;-0.7874755859375;0.0439453125;-0.61468505859375;-0.01531982421875;1.4227444103019211;0.349311966709126;8.408659969016004;0.80908203125;0.01025390625;-0.169921875;-3.0;38.25;21.0625;
1441975284222280;-0.78277587890625;0.047119140625;-0.620361328125;-0.01507568359375;1.3444484611428966;0.43113921658813026;8.31506023819401;0.8330078125;0.0341796875;-0.17236328125;-4.0625;39.4375;21.4375;
1441975284252282;-0.7783203125;0.05078125;-0.62567138671875;-0.015625;1.27183555895828;0.5130774646798331;8.216125749092397;0.8486328125;0.04296875;-0.16943359375;-7.9375;39.5625;21.875;
1441975284266283;-0.77423095703125;0.0550537109375;-0.63031005859375;-0.0172119140625;1.2080118796811254;0.589312498248385;8.116152318703037;0.85498046875;0.0439453125;-0.1650390625;-13.3125;37.75;21.4375;
1441975284290284;-0.77056884765625;0.05999755859375;-0.63427734375;-0.02001953125;1.152773293626741;0.6543965729168348;8.019610919283787;0.86376953125;0.03662109375;-0.15771484375;-20.4375;33.9375;20.0;
1441975284305285;-0.767333984375;0.06597900390625;-0.637451171875;-0.02398681640625;1.1077410809893733;0.7126046917058291;7.920959778142695;0.8828125;0.037109375;-0.16162109375;-28.375;30.3125;18.75;
1441975284326286;-0.76458740234375;0.07281494140625;-0.63983154296875;-0.0286865234375;1.073768505804721;0.7672933830411391;7.819331997647692;0.87548828125;0.01513671875;-0.169921875;-37.8125;26.375;17.5625;
1441975284342287;-0.76220703125;0.079833984375;-0.6416015625;-0.0338134765625;1.047365963366734;0.8128714109038531;7.724291264834548;0.873046875;-0.0166015625;-0.15771484375;-44.875;21.4375;15.8125;
1441975284365289;-0.76031494140625;0.08673095703125;-0.642578125;-0.03924560546875;1.030034670909172;0.8416915219719652;7.645181856647975;0.88818359375;-0.03369140625;-0.15625;-47.5625;17.3125;14.25;
1441975284386290;-0.75885009765625;0.093505859375;-0.64300537109375;-0.044921875;1.0191874593167947;0.8556590596009247;7.580395797075127;0.904296875;-0.0224609375;-0.18017578125;-48.6875;13.875;13.0;
1441975284402291;-0.757568359375;0.10015869140625;-0.64312744140625;-0.05029296875;1.0127794463333777;0.8706804123035332;7.516244204470935;0.919921875;-0.01025390625;-0.18798828125;-49.3125;10.625;12.0;
1441975284425292;-0.75653076171875;0.10650634765625;-0.64288330078125;-0.05535888671875;1.0111192056476728;0.881621259010352;7.458590839673175;0.92822265625;-0.01806640625;-0.20751953125;-47.5625;9.9375;12.0;
1441975284446293;-0.7557373046875;0.1123046875;-0.6424560546875;-0.05987548828125;1.0127180050941227;0.890773391638598;7.407193599828356;0.93359375;-0.0234375;-0.22021484375;-45.25;8.0;11.25;
1441975284462294;-0.75518798828125;0.11810302734375;-0.64166259765625;-0.06396484375;1.0204304229985042;0.9034728738841789;7.353910773532156;0.92431640625;-0.021484375;-0.22314453125;-41.1875;6.375;10.9375;
1441975284485295;-0.75482177734375;0.123779296875;-0.640625;-0.06756591796875;1.032726371484428;0.920047692947684;7.299175347793032;0.91552734375;-0.0400390625;-0.22412109375;-39.0625;4.0625;10.6875;
1441975284506297;-0.75469970703125;0.12969970703125;-0.63934326171875;-0.07061767578125;1.0515817463289552;0.9471487149045905;7.235135522211035;0.90478515625;-0.05712890625;-0.23583984375;-37.25;2.6875;11.0;
1441975284530298;-0.75457763671875;0.13531494140625;-0.63800048828125;-0.07305908203125;1.072386712055715;0.9796741490526673;7.1693124006521005;0.9013671875;-0.076171875;-0.2431640625;-35.9375;0.5625;12.25;
1441975284545299;-0.7547607421875;0.13995361328125;-0.6365966796875;-0.07415771484375;1.0975629459392942;1.018071343862341;7.107085788173234;0.8974609375;-0.10498046875;-0.2265625;-32.25;-1.4375;11.625;
1441975284567300;-0.7552490234375;0.1436767578125;-0.63525390625;-0.07415771484375;1.1254479674395108;1.0591145880959616;7.050533400978594;0.892578125;-0.1328125;-0.22265625;-23.5;-3.5625;10.5;
1441975284582301;-0.75592041015625;0.146728515625;-0.6339111328125;-0.0731201171875;1.1564891898096565;1.1056936505230865;6.995428648750047;0.9052734375;-0.12939453125;-0.21484375;-15.0;-6.1875;10.5625;
1441975284604302;-0.7567138671875;0.14984130859375;-0.63232421875;-0.072265625;1.189918874934515;1.1432536919415348;6.948278311921407;0.97900390625;-0.10693359375;-0.24072265625;-7.75;-6.4375;13.5;
1441975284626303;-0.75775146484375;0.15301513671875;-0.63031005859375;-0.07196044921875;1.226098143721131;1.162530167081081;6.916831611895038;1.06591796875;-0.0888671875;-0.275390625;-8.0625;-7.0625;15.25;
1441975284648305;-0.75897216796875;0.15679931640625;-0.6279296875;-0.072021484375;1.267164926504237;1.1766077844191656;6.886526118559397;1.13818359375;-0.07763671875;-0.28564453125;-11.0;-10.125;14.5625;
1441975284665306;-0.7601318359375;0.16094970703125;-0.6253662109375;-0.07269287109375;1.3081060513738083;1.1824229935829789;6.860378942953966;1.142578125;-0.13427734375;-0.3115234375;-15.5625;-11.0625;12.0;
1441975284687307;-0.76116943359375;0.16424560546875;-0.6231689453125;-0.0731201171875;1.343030919599217;1.1854129826173168;6.841625828831049;1.09521484375;-0.18359375;-0.32177734375;-20.375;-10.3125;7.9375;
1441975284702308;-0.76220703125;0.16644287109375;-0.6214599609375;-0.0721435546875;1.3760090319168634;1.2019202115134477;6.8197459868052;1.0576171875;-0.19189453125;-0.34130859375;-15.9375;-6.875;4.625;
1441975284724309;-0.763427734375;0.16741943359375;-0.619873046875;-0.0706787109375;1.4061390432542284;1.2104789517644043;6.812897384688718;1.05810546875;-0.21533203125;-0.3720703125;-5.3125;-3.6875;3.8125;
1441975284747310;-0.764892578125;0.167724609375;-0.6181640625;-0.06884765625;1.437399428491965;1.213429784504196;6.815917904147836;1.07958984375;-0.1640625;-0.36767578125;1.75;-5.0;4.1875;
1441975284762311;-0.7666015625;0.168212890625;-0.61590576171875;-0.0684814453125;1.468265741578619;1.189081225828267;6.8393966300746;1.140625;-0.1064453125;-0.392578125;6.9375;-5.5625;6.5;
1441975284784312;-0.7684326171875;0.16900634765625;-0.61328125;-0.0697021484375;1.4968594496043708;1.140967353921232;6.878851169707806;1.13818359375;-0.06982421875;-0.4267578125;0.375;-6.125;4.4375;
1441975284824315;-0.770263671875;0.17034912109375;-0.61053466796875;-0.07080078125;1.5295102309643116;1.1012993267636533;6.908048286209923;1.0078125;-0.0556640625;-0.37841796875;-8.375;-8.25;-0.4375;
1441975284836315;-0.77227783203125;0.17242431640625;-0.60723876953125;-0.0718994140625;1.5706978595199677;1.0651044472146898;6.930554932344226;0.84423828125;-0.09521484375;-0.33251953125;-10.625;-10.1875;-1.3125;
1441975284844316;-0.77447509765625;0.17510986328125;-0.6036376953125;-0.07269287109375;1.6192374003384626;1.0374539411168853;6.94318596796892;0.73291015625;-0.10595703125;-0.28515625;-14.5;-15.0625;0.0625;
1441975284867317;-0.77667236328125;0.177978515625;-0.599853515625;-0.0732421875;1.6710665814552228;1.0148488251434125;6.95086640661019;0.69140625;-0.08984375;-0.2744140625;-15.5;-18.125;4.0625;
1441975284888318;-0.77911376953125;0.180419921875;-0.5958251953125;-0.073974609375;1.7238988427175164;0.9831764056187885;6.968577587894567;0.71923828125;-0.08251953125;-0.2841796875;-14.75;-19.5;6.5625;
1441975284912320;-0.78179931640625;0.18212890625;-0.59173583984375;-0.07470703125;1.7760140658923729;0.9441654336286089;6.996697791646724;0.7783203125;-0.05224609375;-0.3037109375;-13.375;-21.4375;6.125;
1441975284927321;-0.78466796875;0.1832275390625;-0.58740234375;-0.07568359375;1.8282218448803158;0.8955958903110028;7.035792135548135;0.83447265625;-0.03759765625;-0.31787109375;-11.0;-23.0625;3.8125;
1441975284948322;-0.78778076171875;0.18402099609375;-0.582763671875;-0.0772705078125;1.8813232115319274;0.8355889077319023;7.085031610906982;0.89501953125;-0.0419921875;-0.3388671875;-10.1875;-25.0625;0.125;
1441975284964323;-0.79095458984375;0.18438720703125;-0.578125;-0.079345703125;1.932142636814041;0.7682452399846975;7.141392647391953;0.953125;-0.052734375;-0.3642578125;-11.9375;-26.3125;-4.375;
1441975284987324;-0.79412841796875;0.18426513671875;-0.57342529296875;-0.0816650390625;1.981905712251302;0.6964234870114024;7.203153983478627;0.99560546875;-0.07177734375;-0.3818359375;-13.4375;-26.5;-9.125;
1441975285009325;-0.79736328125;0.183349609375;-0.56890869140625;-0.083984375;2.029119585438644;0.6217697506003234;7.271129605058488;0.98583984375;-0.09228515625;-0.39453125;-13.5625;-25.9375;-14.375;
1441975285024326;-0.80084228515625;0.181396484375;-0.5643310546875;-0.0859375;2.0778795289987837;0.5449971570704055;7.347033288693172;0.93603515625;-0.10791015625;-0.38623046875;-11.1875;-25.1875;-19.5625;
1441975285056328;-0.8043212890625;0.177978515625;-0.56024169921875;-0.0869140625;2.1229937840194975;0.47372164455826266;7.427700974992928;0.884765625;-0.12646484375;-0.388671875;-6.9375;-25.3125;-25.3125;
1441975285068329;-0.80780029296875;0.1729736328125;-0.556884765625;-0.0867919921875;2.162400164376532;0.4089381079422949;7.513338642122649;0.84619140625;-0.130859375;-0.39111328125;2.3125;-23.0625;-29.3125;
1441975285084330;-0.81134033203125;0.166259765625;-0.5538330078125;-0.08575439453125;2.19961717298992;0.34508993712817526;7.608991563957944;0.83984375;-0.12841796875;-0.36474609375;13.0;-21.9375;-33.3125;
1441975285107331;-0.8150634765625;0.158935546875;-0.55078125;-0.08416748046875;2.239682634127129;0.2852250002522502;7.7055514978581;0.83251953125;-0.08837890625;-0.353515625;23.75;-21.9375;-35.875;
1441975285130332;-0.81866455078125;0.15155029296875;-0.5477294921875;-0.08294677734375;2.2795589753016583;0.22355656038651456;7.802634281868334;0.84765625;-0.056640625;-0.37255859375;29.3125;-22.375;-35.625;
1441975285144333;-0.82196044921875;0.14447021484375;-0.54473876953125;-0.08233642578125;2.317773440257303;0.16052319212838576;7.897228416737663;0.85693359375;-0.04443359375;-0.37548828125;27.125;-22.1875;-36.375;
1441975285167334;-0.8250732421875;0.13739013671875;-0.54193115234375;-0.0819091796875;2.3543923801777;0.0986285862284258;7.9899792484335626;0.8515625;-0.056640625;-0.36083984375;23.125;-21.625;-38.0;
1441975285188336;-0.8280029296875;0.13006591796875;-0.53936767578125;-0.08148193359375;2.388858324652473;0.038002685242767655;8.082538721873313;0.8330078125;-0.07763671875;-0.35986328125;21.625;-20.1875;-40.125;
1441975285211337;-0.83056640625;0.12225341796875;-0.537353515625;-0.080810546875;2.417282444449976;17.980059486121778;8.175566703711848;0.82275390625;-0.0927734375;-0.36181640625;21.375;-18.3125;-42.375;
1441975285227338;-0.8326416015625;0.113525390625;-0.53619384765625;-0.07958984375;2.436042934741358;17.92500797446986;8.271963186849487;0.80810546875;-0.09619140625;-0.3525390625;24.4375;-14.9375;-44.1875;
1441975285250339;-0.834228515625;0.10406494140625;-0.53594970703125;-0.07781982421875;2.444668606463641;17.873344133571308;8.370501926009892;0.81689453125;-0.06982421875;-0.341796875;30.375;-10.5;-44.8125;
1441975285264340;-0.835205078125;0.09417724609375;-0.53662109375;-0.07562255859375;2.442353811162502;17.82499679447129;8.469405051329197;0.89501953125;0.0;-0.3681640625;37.625;-5.4375;-42.125;
1441975285295342;-0.83551025390625;0.08447265625;-0.5379638671875;-0.0736083984375;2.4307230694349338;17.776274495640017;8.567164338857603;0.96630859375;0.05908203125;-0.4033203125;42.5;1.0625;-38.625;
1441975285308342;-0.8353271484375;0.07525634765625;-0.5399169921875;-0.07171630859375;2.411488916269924;17.72932547464028;8.660668529327552;0.99658203125;0.10205078125;-0.39404296875;42.4375;5.0;-35.625;
1441975285332344;-0.83477783203125;0.06683349609375;-0.5421142578125;-0.06982421875;2.388693909928693;17.687321201703533;8.745869595358434;0.9765625;0.11962890625;-0.35693359375;40.8125;7.5625;-32.25;
1441975285347345;-0.83367919921875;0.0592041015625;-0.544921875;-0.0677490234375;2.3573061597539575;17.652177966972822;8.821678472993735;0.96142578125;0.119140625;-0.32177734375;38.25;8.375;-28.8125;
1441975285368346;-0.83203125;0.05218505859375;-0.5484619140625;-0.06524658203125;2.3158094754284337;17.625029791068098;8.888754210697087;0.97998046875;0.11572265625;-0.29248046875;36.3125;10.3125;-24.5;
1441975285384347;-0.82989501953125;0.0457763671875;-0.5526123046875;-0.0623779296875;2.265426625272592;17.605024446208176;8.94765861165806;1.07275390625;0.154296875;-0.2998046875;37.8125;13.9375;-17.75;
1441975285407348;-0.8275146484375;0.040283203125;-0.556884765625;-0.06005859375;2.2122922721726153;17.583757806466785;9.00168513238927;1.19970703125;0.2001953125;-0.33837890625;38.1875;17.625;-10.8125;
1441975285436350;-0.8251953125;0.03631591796875;-0.5606689453125;-0.0589599609375;2.1639956617578386;17.558723993035475;9.047995797887754;1.2685546875;0.24951171875;-0.3408203125;33.875;17.9375;-5.125;
1441975285444350;-0.822998046875;0.03460693359375;-0.5638427734375;-0.05987548828125;2.121930775545023;17.526682452815212;9.083576211091374;1.23486328125;0.26220703125;-0.330078125;23.5625;16.1875;-1.3125;
1441975285467352;-0.82098388671875;0.03515625;-0.56646728515625;-0.0628662109375;2.0859047651475113;17.487266146762302;9.10861462412996;1.13671875;0.21435546875;-0.28076171875;5.4375;12.6875;0.0625;
1441975285496353;-0.8189697265625;0.03729248046875;-0.5687255859375;-0.06732177734375;2.0531192508052216;17.442301076533237;9.126578417796331;1.02783203125;0.13525390625;-0.24951171875;-14.0;10.125;-1.5625;
1441975285504354;-0.81689453125;0.0400390625;-0.5709228515625;-0.072021484375;2.020237042869691;17.3987653289714;9.139596351732543;0.9560546875;0.06689453125;-0.25537109375;-27.625;11.1875;-3.375;
1441975285527355;-0.81500244140625;0.042236328125;-0.572998046875;-0.07598876953125;1.9897757588447773;17.35958241318395;9.153566989849878;0.9111328125;-0.0068359375;-0.28369140625;-33.0;13.9375;-6.1875;
1441975285549356;-0.81353759765625;0.04339599609375;-0.57476806640625;-0.07763671875;1.9639967516302885;17.342834250972828;9.15891994393058;0.87451171875;-0.02783203125;-0.310546875;-28.3125;15.9375;-7.6875;
1441975285564357;-0.81243896484375;0.04315185546875;-0.57635498046875;-0.07720947265625;1.9419740784353285;17.341894255304634;9.162783329285585;0.87548828125;-0.02783203125;-0.3447265625;-14.3125;15.5625;-5.5625;
1441975285587358;-0.8116455078125;0.04132080078125;-0.57781982421875;-0.0753173828125;1.9235723882530067;17.346457231786044;9.173700334129668;0.91455078125;0.01025390625;-0.37744140625;0.875;15.0;-3.0;
1441975285610360;-0.81103515625;0.03857421875;-0.5792236328125;-0.0728759765625;1.9075099466911287;17.34997767627257;9.191690434270122;0.94873046875;0.06787109375;-0.3974609375;14.375;14.9375;-1.75;
1441975285632361;-0.8106689453125;0.036376953125;-0.580078125;-0.0712890625;1.898330875094573;17.34819316524149;9.209129021255748;0.95556640625;0.13037109375;-0.38916015625;21.3125;13.375;-0.25;
1441975285647362;-0.8104248046875;0.035888671875;-0.58038330078125;-0.07159423828125;1.8948900483879445;17.337911536926317;9.22017983515144;0.95703125;0.1650390625;-0.37548828125;16.375;9.3125;1.6875;
1441975285670363;-0.810302734375;0.03765869140625;-0.5802001953125;-0.07354736328125;1.8956135644975334;17.32812912689703;9.214618689420902;0.9462890625;0.177734375;-0.3486328125;2.1875;4.6875;3.8125;
1441975285692364;-0.8101806640625;0.0413818359375;-0.579833984375;-0.0762939453125;1.8962970147428053;17.327132446801354;9.188967099817555;0.935546875;0.15283203125;-0.33154296875;-13.1875;0.625;6.9375;
1441975285715366;-0.81011962890625;0.04608154296875;-0.5792236328125;-0.07879638671875;1.89815012157989;17.339977116149313;9.146413089487652;0.93505859375;0.11767578125;-0.3203125;-24.5625;-1.875;10.6875;
1441975285730367;-0.810302734375;0.0506591796875;-0.57830810546875;-0.08062744140625;1.9040931265111487;17.361924906220825;9.097975921424705;0.943359375;0.0732421875;-0.3349609375;-27.5;-2.875;13.125;
1441975285744367;-0.810791015625;0.05487060546875;-0.5770263671875;-0.08203125;1.9157352516826909;17.386944682143643;9.04968124883654;0.93798828125;0.04541015625;-0.3349609375;-24.625;-4.9375;13.125;
1441975285773369;-0.81146240234375;0.05908203125;-0.575439453125;-0.0833740234375;1.931653533731227;17.412954929252948;9.000586386522416;0.9189453125;0.06201171875;-0.3466796875;-20.9375;-6.875;13.75;
1441975285790370;-0.812255859375;0.06341552734375;-0.57366943359375;-0.084716796875;1.9502674268747937;17.439864586970415;8.950055145272547;0.91064453125;0.08154296875;-0.35986328125;-20.25;-8.0625;15.25;
1441975285811371;-0.8131103515625;0.06756591796875;-0.57183837890625;-0.0859375;1.970246242255175;17.466048057024995;8.90148479348596;0.91552734375;0.09716796875;-0.37841796875;-20.1875;-8.6875;16.5625;
1441975285827372;-0.8138427734375;0.0714111328125;-0.57025146484375;-0.0865478515625;1.9874231666284423;17.49667711602655;8.852254827093839;0.91015625;0.10009765625;-0.37744140625;-18.875;-8.8125;17.1875;
1441975285850373;-0.81451416015625;0.0748291015625;-0.56878662109375;-0.08636474609375;2.0034668640753006;17.533281048830546;8.802057945188615;0.88232421875;0.1005859375;-0.35791015625;-14.75;-8.5625;17.625;
1441975285871375;-0.8150634765625;0.0780029296875;-0.56768798828125;-0.08575439453125;2.0157729896070666;17.572561701160936;8.752038233414439;0.86962890625;0.09619140625;-0.353515625;-9.875;-8.25;18.5625;
1441975285887376;-0.81549072265625;0.08111572265625;-0.5667724609375;-0.0848388671875;2.026057470722261;17.614810981180586;8.700572491075127;0.85107421875;0.11376953125;-0.33740234375;-6.3125;-7.0625;20.3125;
1441975285910377;-0.8157958984375;0.08428955078125;-0.56610107421875;-0.08380126953125;2.033781003409959;17.658839183598516;8.647634938870148;0.8447265625;0.125;-0.3388671875;-4.125;-5.625;22.375;
1441975285931378;-0.81597900390625;0.08734130859375;-0.56549072265625;-0.0826416015625;2.0407348368077147;17.703008457467348;8.59552167737855;0.84619140625;0.12646484375;-0.328125;-3.4375;-5.0;23.5;
1441975285947379;-0.81610107421875;0.0904541015625;-0.5650634765625;-0.08111572265625;2.04630357909123;17.75246488511827;8.539427829152144;0.8671875;0.12841796875;-0.32177734375;-2.5;-5.5;23.9375;
1441975285977381;-0.81585693359375;0.09320068359375;-0.56524658203125;-0.078857421875;2.0447829398434245;17.80871617546236;8.481150775340112;0.90478515625;0.11376953125;-0.3271484375;-0.8125;-5.125;24.875;
1441975285991382;-0.81512451171875;0.0953369140625;-0.56634521484375;-0.07586669921875;2.032606619746377;17.87052258572743;8.423020786153893;0.9453125;0.111328125;-0.333984375;3.6875;-2.0625;26.125;
1441975286007382;-0.81402587890625;0.09698486328125;-0.56805419921875;-0.07275390625;2.0130331499800027;17.93122301548077;8.368610870514836;1.05224609375;0.14306640625;-0.37255859375;10.25;3.6875;28.8125;
1441975286030384;-0.81268310546875;0.0982666015625;-0.570068359375;-0.070556640625;1.9885506693140864;17.97774084787293;8.326167195858174;1.17041015625;0.17041015625;-0.42919921875;13.75;9.1875;29.9375;
1441975286051385;-0.81146240234375;0.09979248046875;-0.57159423828125;-0.070068359375;1.9680842192526729;0.0031126075249084274;8.296712566166947;1.19970703125;0.171875;-0.44189453125;10.5625;12.375;25.75;
1441975286067386;-0.810546875;0.10235595703125;-0.572265625;-0.07122802734375;1.9566315403313443;0.014390319210870047;8.27012019507726;1.08203125;0.1201171875;-0.4052734375;0.4375;11.4375;18.25;
1441975286097388;-0.80999755859375;0.105224609375;-0.5723876953125;-0.07318115234375;1.95202469848647;0.016334081168418647;8.248291528199374;0.9365234375;0.01220703125;-0.35205078125;-13.375;7.0625;9.625;
1441975286111388;-0.8099365234375;0.10699462890625;-0.57196044921875;-0.0745849609375;1.955417202098268;0.01348092895857377;8.237947990670598;0.82373046875;-0.109375;-0.29443359375;-21.0;2.375;0.25;
1441975286127389;-0.81060791015625;0.10693359375;-0.57098388671875;-0.0745849609375;1.9688181084970087;0.010172355736990601;8.241341911470375;0.75048828125;-0.171875;-0.2607421875;-16.75;-2.1875;-7.625;
1441975286151391;-0.811767578125;0.1046142578125;-0.56988525390625;-0.07318115234375;1.9863123041842352;0.0035754161857017713;8.263154335672793;0.74853515625;-0.1640625;-0.255859375;-3.875;-7.5;-12.0625;
1441975286171392;-0.8135986328125;0.1007080078125;-0.5682373046875;-0.0714111328125;2.01249895722519;17.98544765817471;8.30454264021337;0.806640625;-0.1025390625;-0.25146484375;11.25;-11.375;-14.0625;
1441975286187393;-0.81591796875;0.09625244140625;-0.5657958984375;-0.07049560546875;2.0482243855250033;17.949906680219105;8.361963967433518;0.86474609375;-0.033203125;-0.28466796875;19.9375;-15.125;-16.4375;
1441975286210394;-0.81866455078125;0.092041015625;-0.5623779296875;-0.071533203125;2.0948660175389056;17.891010808294272;8.433510215846061;0.951171875;0.02294921875;-0.32861328125;18.9375;-19.5625;-19.125;
1441975286231395;-0.82171630859375;0.0889892578125;-0.5579833984375;-0.07476806640625;2.1526529537139036;17.815887635378278;8.50723222792173;1.01806640625;0.06201171875;-0.36181640625;9.125;-24.5;-22.8125;
1441975286247396;-0.8248291015625;0.0880126953125;-0.552734375;-0.0802001953125;2.2194607855021258;17.734139219296367;8.569674315285218;1.02685546875;0.06591796875;-0.40087890625;-5.625;-27.875;-25.625;
1441975286277398;-0.82781982421875;0.08880615234375;-0.54718017578125;-0.08636474609375;2.289220189184817;17.66191130204212;8.612068471077267;0.97412109375;0.0205078125;-0.41162109375;-24.1875;-30.375;-26.75;
1441975286292399;-0.83074951171875;0.08978271484375;-0.54168701171875;-0.091796875;2.358842482481104;17.603202746159813;8.643125257243787;0.9248046875;-0.04296875;-0.41064453125;-35.625;-31.5;-25.8125;
1441975286307400;-0.8336181640625;0.0899658203125;-0.5364990234375;-0.095947265625;2.426020587579424;17.555967969484655;8.67129722249857;0.88525390625;-0.10400390625;-0.42822265625;-34.5;-30.1875;-26.6875;
1441975286330401;-0.83648681640625;0.08856201171875;-0.53192138671875;-0.097900390625;2.4884217018843033;17.524216098057806;8.69983751515847;0.86962890625;-0.1259765625;-0.4521484375;-27.1875;-27.25;-28.1875;
1441975286351402;-0.83953857421875;0.08587646484375;-0.5274658203125;-0.09832763671875;2.5516113154690565;17.50204086615443;8.730520091968781;0.87744140625;-0.126953125;-0.47509765625;-11.875;-24.5625;-29.0625;
1441975286367403;-0.84259033203125;0.08245849609375;-0.5230712890625;-0.09832763671875;2.6147986993598886;17.48078690681335;8.76511684233551;0.89697265625;-0.095703125;-0.51416015625;0.1875;-23.0625;-29.3125;
1441975286390404;-0.845458984375;0.079345703125;-0.5189208984375;-0.09844970703125;2.6745387181041265;17.46136205987051;8.796187478689353;0.8935546875;-0.04443359375;-0.53857421875;5.375;-21.375;-28.0625;
1441975286411406;-0.847900390625;0.07684326171875;-0.5152587890625;-0.0989990234375;2.726798168961928;17.44195348235172;8.823012082050761;0.88818359375;-0.01416015625;-0.5498046875;4.6875;-19.9375;-25.25;
1441975286427406;-0.84991455078125;0.0751953125;-0.511962890625;-0.10003662109375;2.772562527853767;17.423203867689697;8.843603347901944;0.88916015625;-0.00634765625;-0.54638671875;1.125;-17.4375;-23.125;
1441975286456408;-0.8515625;0.0743408203125;-0.50921630859375;-0.1005859375;2.810052602336641;17.41454970444837;8.852936035022841;0.86572265625;0.00537109375;-0.5419921875;-3.875;-14.375;-18.9375;
1441975286471409;-0.85296630859375;0.073974609375;-0.50689697265625;-0.10052490234375;2.8413081448940134;17.41502871763561;8.853740123482496;0.85205078125;0.001953125;-0.53125;-4.0;-12.3125;-13.625;
1441975286487410;-0.854248046875;0.07373046875;-0.50482177734375;-0.100341796875;2.8693086982911558;17.417305314866756;8.852813286680114;0.8408203125;0.00341796875;-0.521484375;-2.0;-10.6875;-9.125;
1441975286517412;-0.85528564453125;0.07379150390625;-0.5029296875;-0.10089111328125;2.8940773947077605;17.413668368233616;8.85346300824682;0.82080078125;0.0244140625;-0.51513671875;-1.4375;-9.1875;-6.5625;
1441975286532412;-0.85626220703125;0.07440185546875;-0.5008544921875;-0.102294921875;2.9201133417605654;17.40471647747221;8.853464706879047;0.80908203125;0.0654296875;-0.509765625;-4.25;-7.8125;-4.4375;
1441975286547413;-0.85693359375;0.07598876953125;-0.49908447265625;-0.10430908203125;2.9407254044942928;17.395066311529995;8.847564119124728;0.80517578125;0.08203125;-0.52734375;-9.9375;-7.25;-3.3125;
1441975286576415;-0.85736083984375;0.07843017578125;-0.49737548828125;-0.107177734375;2.958831518982807;17.381642688456864;8.838223981408955;0.81494140625;0.08349609375;-0.52294921875;-15.9375;-6.1875;0.0;
1441975286592416;-0.857666015625;0.080810546875;-0.495849609375;-0.11004638671875;2.974442239549004;17.367705217207135;8.829668466647156;0.79833984375;0.0859375;-0.5234375;-22.5625;-4.9375;1.875;
1441975286607417;-0.85797119140625;0.08251953125;-0.49444580078125;-0.1124267578125;2.989270255636687;17.354718896489455;8.825031986347991;0.7939453125;0.0849609375;-0.5107421875;-22.1875;-4.4375;1.375;
1441975286629418;-0.8582763671875;0.08367919921875;-0.49310302734375;-0.114990234375;3.004071090839554;17.336799961605315;8.826872176623892;0.80810546875;0.09765625;-0.525390625;-17.75;-3.3125;0.25;
1441975286652419;-0.8585205078125;0.08441162109375;-0.4920654296875;-0.11737060546875;3.0158814376648637;17.318165356933676;8.832101025612424;0.81201171875;0.1201171875;-0.5400390625;-16.8125;-1.9375;-1.75;
1441975286667420;-0.85870361328125;0.08489990234375;-0.49127197265625;-0.11920166015625;3.0249938759787387;17.30345996018236;8.836801653140016;0.810546875;0.123046875;-0.53759765625;-14.375;-0.375;-3.125;
1441975286689421;-0.858642578125;0.0850830078125;-0.49090576171875;-0.120849609375;3.0287689053190534;17.288437745549885;8.84395727950043;0.8212890625;0.10693359375;-0.54736328125;-11.75;1.125;-3.9375;
1441975286713423;-0.85858154296875;0.0845947265625;-0.49072265625;-0.1224365234375;3.031493967530949;17.270171974084576;8.857510058050297;0.82666015625;0.099609375;-0.53173828125;-10.125;2.75;-5.1875;
1441975286727424;-0.85858154296875;0.08349609375;-0.4903564453125;-0.12445068359375;3.0374048560393314;17.244502737655687;8.879147320985783;0.81787109375;0.1181640625;-0.52978515625;-7.1875;4.75;-7.125;
1441975286749425;-0.85870361328125;0.0819091796875;-0.48980712890625;-0.1270751953125;3.047000227667833;17.210520776393295;8.908550274172827;0.7958984375;0.12451171875;-0.52490234375;-7.625;4.375;-11.125;
1441975286772426;-0.8587646484375;0.0802001953125;-0.48919677734375;-0.1298828125;3.0575007111723354;17.174248225430315;8.939909847090297;0.77880859375;0.14111328125;-0.50732421875;-8.6875;3.125;-14.625;
1441975286787427;-0.85870361328125;0.07794189453125;-0.4888916015625;-0.13275146484375;3.0655691094460527;17.134174131535936;8.977213742536144;0.77197265625;0.14013671875;-0.5;-9.5625;3.25;-16.375;
1441975286809428;-0.85858154296875;0.0750732421875;-0.4888916015625;-0.13519287109375;3.0713982407335614;17.094706889984252;9.0183751864239;0.77197265625;0.15087890625;-0.4853515625;-7.75;4.4375;-18.3125;
1441975286832430;-0.85809326171875;0.072021484375;-0.489501953125;-0.137939453125;3.070402775272968;17.050241544037394;9.06418631887785;0.78271484375;0.16845703125;-0.490234375;-4.0625;6.5;-19.4375;
1441975286853431;-0.8570556640625;0.0693359375;-0.49066162109375;-0.14141845703125;3.06189698731847;16.999109770383736;9.112104018164784;0.833984375;0.228515625;-0.49853515625;-3.125;9.8125;-17.875;
1441975286869432;-0.85565185546875;0.067626953125;-0.491943359375;-0.1461181640625;3.0507212129412835;16.94045717265365;9.15826952723532;0.92578125;0.29931640625;-0.541015625;-6.5;13.875;-14.8125;
1441975286892433;-0.8541259765625;0.0667724609375;-0.492919921875;-0.15203857421875;3.0427546766702407;16.874576359533744;9.202782798807839;0.98681640625;0.3125;-0.55029296875;-15.3125;13.75;-13.875;
1441975286913434;-0.85247802734375;0.06634521484375;-0.49395751953125;-0.15789794921875;3.033496757281895;16.810967941298536;9.243473737415187;0.9384765625;0.25390625;-0.4765625;-25.8125;10.1875;-16.9375;
1441975286929435;-0.8507080078125;0.06585693359375;-0.49560546875;-0.1627197265625;3.0169863971650246;16.75533029349599;9.281092149023236;0.857421875;0.1728515625;-0.39794921875;-28.75;8.4375;-18.875;
1441975286952436;-0.84881591796875;0.06439208984375;-0.498046875;-0.16558837890625;2.9918656916423934;16.710864049896994;9.320140379350377;0.84716796875;0.1376953125;-0.36328125;-23.9375;10.25;-18.125;
1441975286973438;-0.8470458984375;0.06170654296875;-0.5008544921875;-0.167236328125;2.9653841249788564;16.670369615250465;9.365652949719758;0.91162109375;0.1552734375;-0.40087890625;-12.0;15.375;-16.75;
1441975286989439;-0.84539794921875;0.058349609375;-0.50335693359375;-0.16900634765625;2.945206233585362;16.62521903250083;9.4179565654749;0.9814453125;0.21240234375;-0.4482421875;-1.4375;18.5;-16.75;
1441975287012440;-0.84368896484375;0.0552978515625;-0.5057373046875;-0.1715087890625;2.927407212559507;16.574131459388482;9.471779530153388;1.00390625;0.2578125;-0.46435546875;0.8125;18.3125;-18.4375;
1441975287035441;-0.841552734375;0.052978515625;-0.50848388671875;-0.17462158203125;2.9040542005449543;16.51837219543378;9.524687517563645;0.986328125;0.255859375;-0.43310546875;-3.625;17.125;-19.9375;
1441975287057442;-0.83917236328125;0.0509033203125;-0.51171875;-0.1773681640625;2.8741847826527747;16.464597308667045;9.576287775113386;0.95068359375;0.208984375;-0.38623046875;-9.75;18.1875;-20.0;
1441975287071443;-0.8370361328125;0.04833984375;-0.514892578125;-0.178955078125;2.8456883277296887;16.419295053432265;9.62633698551822;0.91845703125;0.17529296875;-0.361328125;-10.0;20.75;-19.125;
1441975287085444;-0.8350830078125;0.04486083984375;-0.51812744140625;-0.17962646484375;2.818962576392198;16.377312220172442;9.680772524273351;0.88427734375;0.15283203125;-0.35302734375;-3.1875;21.5;-19.1875;
1441975287108445;-0.83355712890625;0.04058837890625;-0.52093505859375;-0.179443359375;2.799467753520829;16.341206867318874;9.736106358783907;0.8505859375;0.1552734375;-0.32666015625;4.5;21.0625;-20.25;
1441975287123446;-0.8323974609375;0.0357666015625;-0.52349853515625;-0.1785888671875;2.7847265660715856;16.3101242426814;9.791513854312429;0.833984375;0.169921875;-0.32568359375;11.375;19.5625;-21.0625;
1441975287154448;-0.8314208984375;0.03076171875;-0.52593994140625;-0.1768798828125;2.7706232506213326;16.28699153110076;9.84327159249785;0.84326171875;0.1982421875;-0.32080078125;17.5;17.5625;-20.5;
1441975287169449;-0.83062744140625;0.0255126953125;-0.52838134765625;-0.1741943359375;2.7556500438878064;16.272328989273692;9.891689875644408;0.8779296875;0.22216796875;-0.33056640625;22.5625;16.0625;-18.4375;
1441975287186450;-0.83001708984375;0.02001953125;-0.5306396484375;-0.1707763671875;2.7420131964803103;16.26447418882165;9.937309492627762;0.8994140625;0.23583984375;-0.31787109375;28.5;14.5;-16.5;
1441975287214451;-0.8294677734375;0.014892578125;-0.532958984375;-0.16680908203125;2.7250139714456365;16.263757000670893;9.97659372022666;0.90771484375;0.24658203125;-0.3076171875;33.5;12.6875;-14.6875;
1441975287237453;-0.8287353515625;0.010009765625;-0.53533935546875;-0.16290283203125;2.7058116988861016;16.26254577907037;10.015015544084497;0.9208984375;0.2392578125;-0.28955078125;35.4375;10.8125;-12.0625;
1441975287243453;-0.8280029296875;0.00592041015625;-0.53759765625;-0.1595458984375;2.6865004566280226;16.26061434706454;10.048515316374056;0.9404296875;0.26513671875;-0.2763671875;34.5;10.375;-9.4375;
1441975287265454;-0.82720947265625;0.00286865234375;-0.53955078125;-0.1571044921875;2.6687120257961743;16.25624982350949;10.076166327279289;0.96728515625;0.30419921875;-0.3046875;30.625;10.1875;-5.4375;
1441975287288456;-0.826416015625;6.7138671875E-4;-0.541259765625;-0.1553955078125;2.6523134695739343;16.250303898169342;10.098703899311612;0.978515625;0.31396484375;-0.30859375;22.875;8.625;-3.1875;
1441975287303457;-0.82562255859375;-8.544921875E-4;-0.54296875;-0.15386962890625;2.6339308063443085;16.246217048290024;10.115837757425568;0.9619140625;0.2919921875;-0.2841796875;16.5625;5.5;-2.4375;
1441975287334458;-0.82470703125;-0.00189208984375;-0.54473876953125;-0.15228271484375;2.6122385049524066;16.244598870798935;10.128698202072174;0.93408203125;0.26171875;-0.26220703125;13.0625;4.5625;-1.25;
1441975287349459;-0.82379150390625;-0.00262451171875;-0.54656982421875;-0.150634765625;2.588571813326732;16.244995178069317;10.138553163674729;0.9111328125;0.23876953125;-0.25732421875;11.5625;5.125;0.3125;
1441975287364460;-0.82293701171875;-0.0028076171875;-0.5482177734375;-0.14923095703125;2.565489544781093;16.24715043303513;10.143307480833373;0.90625;0.24267578125;-0.25927734375;10.5;5.625;2.5625;
1441975287388461;-0.82220458984375;-0.00244140625;-0.54962158203125;-0.14837646484375;2.544946014978305;16.248616018377707;10.144154430295366;0.8994140625;0.2568359375;-0.271484375;8.3125;5.5625;5.5625;
1441975287408463;-0.8214111328125;-0.00140380859375;-0.55084228515625;-0.14825439453125;2.5256485927203545;16.247186887899794;10.141991615530454;0.8896484375;0.265625;-0.2705078125;3.875;3.875;6.9375;
1441975287424463;-0.82049560546875;2.44140625E-4;-0.55206298828125;-0.1484375;2.504378377007751;16.245792024387324;10.13596532472754;0.87158203125;0.25390625;-0.25537109375;-1.5;2.1875;7.625;
1441975287445465;-0.8197021484375;0.00238037109375;-0.55322265625;-0.14862060546875;2.4823129247323585;16.24830951506459;10.12404620412657;0.85888671875;0.24462890625;-0.23828125;-5.0;1.4375;9.0;
1441975287469466;-0.81890869140625;0.0050048828125;-0.5543212890625;-0.14886474609375;2.459063592875964;16.25365826489431;10.107012532325752;0.8642578125;0.25048828125;-0.25146484375;-6.5;1.1875;11.625;
1441975287483467;-0.81817626953125;0.0084228515625;-0.55535888671875;-0.14898681640625;2.4331343121082147;16.266144175802555;10.080087749869927;0.88330078125;0.2802734375;-0.26220703125;-7.8125;0.9375;15.8125;
1441975287507468;-0.81756591796875;0.0126953125;-0.55609130859375;-0.14923095703125;2.407725041992183;16.285227763593678;10.042473985091435;0.9052734375;0.30126953125;-0.27587890625;-9.4375;0.25;20.875;
1441975287545470;-0.81689453125;0.01800537109375;-0.55682373046875;-0.1495361328125;2.378468896036179;16.31092168222661;9.99372139098232;0.92822265625;0.3095703125;-0.2900390625;-12.375;-1.5625;25.0;
1441975287547471;-0.8162841796875;0.024169921875;-0.5574951171875;-0.149658203125;2.3467028883188985;16.345975985254192;9.932876898343267;0.947265625;0.30322265625;-0.28515625;-16.4375;-2.9375;28.875;
1441975287565472;-0.81573486328125;0.03082275390625;-0.55804443359375;-0.14935302734375;2.313907354334947;16.391351324674158;9.861459937609085;0.9482421875;0.255859375;-0.2919921875;-19.0625;-3.5625;31.3125;
1441975287588473;-0.815185546875;0.03729248046875;-0.55853271484375;-0.14898681640625;2.2830091664309338;16.437958686916158;9.789807891200601;0.921875;0.166015625;-0.27490234375;-20.4375;-5.0;29.6875;
1441975287611474;-0.8145751953125;0.04388427734375;-0.55914306640625;-0.1483154296875;2.2503530688971414;16.489928587124762;9.713604736068435;0.8994140625;0.1728515625;-0.2568359375;-18.6875;-6.1875;30.375;
1441975287625475;-0.8138427734375;0.05047607421875;-0.55987548828125;-0.1473388671875;2.216177696761212;16.546448520868683;9.634127140846072;0.97802734375;0.20458984375;-0.2939453125;-17.875;-4.75;33.8125;
1441975287658477;-0.813232421875;0.05670166015625;-0.560302734375;-0.146728515625;2.18865272490611;16.599142395583502;9.558391383894202;1.12109375;0.26171875;-0.36181640625;-15.3125;-2.5;37.3125;
1441975287682478;-0.8126220703125;0.06317138671875;-0.56036376953125;-0.14739990234375;2.1677618977078277;16.640828948804806;9.487234567885515;1.10791015625;0.25439453125;-0.365234375;-16.375;-3.25;34.375;
1441975287686478;-0.8116455078125;0.0703125;-0.560302734375;-0.14959716796875;2.1480400129681434;16.669296583105524;9.42005535223188;0.98291015625;0.20751953125;-0.31494140625;-23.0625;-5.3125;30.1875;
1441975287708480;-0.81011962890625;0.078369140625;-0.560546875;-0.15301513671875;2.1228213041247783;16.68832412473051;9.353490938320963;0.8720703125;0.15966796875;-0.294921875;-33.875;-3.0;27.0;
1441975287731481;-0.80841064453125;0.08624267578125;-0.5609130859375;-0.15655517578125;2.096364371200874;16.70428728355926;9.290238767542595;0.8349609375;0.13525390625;-0.31591796875;-43.375;2.0;26.625;
1441975287746482;-0.80712890625;0.09320068359375;-0.56085205078125;-0.159423828125;2.077675834645717;16.724321138819356;9.229387498683721;0.8544921875;0.13916015625;-0.3388671875;-43.9375;4.875;26.0625;
1441975287777484;-0.80621337890625;0.0987548828125;-0.56072998046875;-0.1610107421875;2.0631342787031985;16.750483397278128;9.173532238343233;0.8681640625;0.1318359375;-0.35009765625;-37.625;2.5625;22.8125;
1441975287783484;-0.8056640625;0.10272216796875;-0.5609130859375;-0.160888671875;2.049161506301332;16.785657756178658;9.122524903040382;0.849609375;0.10546875;-0.29931640625;-26.6875;-1.25;19.0625;
1441975287815486;-0.80535888671875;0.10516357421875;-0.56103515625;-0.15997314453125;2.0396593184237033;16.818739440123807;9.08313297677031;0.84423828125;0.0869140625;-0.27197265625;-13.25;-2.375;16.3125;
1441975287829487;-0.80548095703125;0.106689453125;-0.560791015625;-0.15936279296875;2.0387758698139087;16.841617192668075;9.056459956405252;0.8486328125;0.099609375;-0.26513671875;-4.4375;-2.875;12.625;
1441975287844488;-0.8055419921875;0.10845947265625;-0.5601806640625;-0.1600341796875;2.0422905776627625;16.850355154261603;9.037425077531175;0.85302734375;0.134765625;-0.27587890625;-1.625;-4.3125;9.6875;
1441975287865489;-0.8056640625;0.1107177734375;-0.55902099609375;-0.16204833984375;2.052164785485102;16.84702843163211;9.022668251562873;0.8896484375;0.14794921875;-0.27783203125;-8.625;-6.3125;6.4375;
1441975287889490;-0.8055419921875;0.1134033203125;-0.5577392578125;-0.1650390625;2.0620760619571397;16.83429453520828;9.011348847037208;0.92236328125;0.134765625;-0.2958984375;-16.875;-7.6875;2.75;
1441975287903491;-0.80535888671875;0.11578369140625;-0.55657958984375;-0.1680908203125;2.0711076396963812;16.817619704815588;9.004997711589327;0.9443359375;0.09912109375;-0.296875;-24.0;-8.4375;-1.125;
1441975287925492;-0.80517578125;0.1171875;-0.555908203125;-0.17041015625;2.0765317267063836;16.800814123415208;9.006073524848839;0.943359375;0.07275390625;-0.29443359375;-24.0;-7.0625;-4.4375;
1441975287948493;-0.80499267578125;0.1171875;-0.55572509765625;-0.171630859375;2.078739354381386;16.784794382696933;9.016862040354713;0.93310546875;0.0537109375;-0.28857421875;-17.375;-4.5;-7.1875;
1441975287964494;-0.8048095703125;0.11578369140625;-0.55621337890625;-0.1719970703125;2.076454716715246;16.76596764965634;9.04013016500825;0.92822265625;0.03955078125;-0.29833984375;-8.125;-1.125;-11.0;
1441975287994496;-0.804443359375;0.1134033203125;-0.55712890625;-0.17230224609375;2.071183305857202;16.737679493576447;9.077247872660838;0.91455078125;0.052734375;-0.2939453125;1.0;3.1875;-13.0;
1441975288009497;-0.803955078125;0.1107177734375;-0.5582275390625;-0.1727294921875;2.0646107214908276;16.704101541099668;9.120443388160673;0.90283203125;0.08056640625;-0.30322265625;5.0625;7.4375;-14.875;
1441975288024498;-0.80328369140625;0.10809326171875;-0.5596923828125;-0.1728515625;2.0532261412865696;16.673267447518406;9.162029916475623;0.88330078125;0.107421875;-0.31201171875;5.9375;10.3125;-14.9375;
1441975288045499;-0.8023681640625;0.10528564453125;-0.5616455078125;-0.172607421875;2.0359557245253628;16.643007797428652;9.205454092058758;0.8837890625;0.109375;-0.32373046875;6.625;13.375;-13.1875;
1441975288068500;-0.80133056640625;0.102294921875;-0.5638427734375;-0.171875;2.0155403123742603;16.61572655486048;9.24869957040294;0.8681640625;0.1015625;-0.30322265625;9.25;15.5;-12.5625;
1441975288083501;-0.8001708984375;0.09930419921875;-0.56634521484375;-0.1707763671875;1.9911457126538221;16.59117637033345;9.290828629099542;0.8427734375;0.1083984375;-0.2890625;12.375;17.0;-11.0;
1441975288105502;-0.7987060546875;0.0965576171875;-0.56927490234375;-0.169677734375;1.960610490609693;16.565481936250926;9.33319924421297;0.84619140625;0.1044921875;-0.28173828125;14.0;18.125;-9.75;
1441975288136504;-0.797119140625;0.09429931640625;-0.57208251953125;-0.16876220703125;1.929728235323076;16.540771838819147;9.371670160941834;0.869140625;0.10888671875;-0.27587890625;13.5;20.5;-7.9375;
1441975288143505;-0.795654296875;0.092529296875;-0.57464599609375;-0.16796875;1.900899807691016;16.519470302717632;9.404164018855992;0.8876953125;0.09765625;-0.27978515625;10.3125;20.3125;-7.25;
1441975288165506;-0.79412841796875;0.09130859375;-0.5771484375;-0.1673583984375;1.8712433617459614;16.50012602728028;9.43164292921524;0.8896484375;0.09814453125;-0.28759765625;7.9375;19.25;-5.875;
1441975288189507;-0.79266357421875;0.09027099609375;-0.57952880859375;-0.1668701171875;1.8429287360201283;16.480905756994343;9.457713443137338;0.9052734375;0.0791015625;-0.2744140625;5.0;17.75;-5.125;
1441975288203508;-0.791259765625;0.08905029296875;-0.58184814453125;-0.16595458984375;1.8151153127459223;16.46570013674624;9.482224948878098;0.89501953125;0.0517578125;-0.251953125;3.6875;16.0625;-6.6875;
1441975288234510;-0.7901611328125;0.08758544921875;-0.5838623046875;-0.16485595703125;1.7922274670220695;16.452786261544002;9.506161231263377;0.904296875;0.03662109375;-0.2421875;6.1875;15.0;-7.375;
1441975288248511;-0.78924560546875;0.0858154296875;-0.58575439453125;-0.16357421875;1.7720727858175984;16.44033696884915;9.531640504501803;0.91455078125;0.02783203125;-0.24853515625;7.25;13.5;-8.6875;
1441975288264512;-0.78851318359375;0.08392333984375;-0.58740234375;-0.16229248046875;1.7556315235794009;16.428227364240435;9.557220784747937;0.92041015625;0.0458984375;-0.2578125;9.9375;12.875;-8.8125;
1441975288285513;-0.787841796875;0.08203125;-0.58880615234375;-0.16131591796875;1.7425881677217312;16.412796467227693;9.58475360908714;0.9306640625;0.0537109375;-0.2607421875;10.4375;11.625;-8.9375;
1441975288308514;-0.78717041015625;0.08050537109375;-0.590087890625;-0.16033935546875;1.7295065304035337;16.401450162365727;9.606633614079236;0.92919921875;0.07958984375;-0.25537109375;9.1875;10.25;-8.375;
1441975288324515;-0.78656005859375;0.0792236328125;-0.59124755859375;-0.15972900390625;1.7181517149784449;16.388011816834915;9.628096264578629;0.9306640625;0.0712890625;-0.25390625;8.25;9.6875;-7.6875;
1441975288345516;-0.7861328125;0.0782470703125;-0.5921630859375;-0.15924072265625;1.7094340893109887;16.378012454336854;9.644350105311078;0.92333984375;0.068359375;-0.244140625;5.1875;8.125;-7.9375;
1441975288368517;-0.7857666015625;0.077392578125;-0.5928955078125;-0.15869140625;1.7021143967708277;16.371324735916925;9.656959421761298;0.8984375;0.06494140625;-0.228515625;4.0;6.0625;-7.4375;
1441975288383518;-0.7852783203125;0.0767822265625;-0.5936279296875;-0.158447265625;1.6941370701432379;16.36197314464431;9.669929573700388;0.88623046875;0.06298828125;-0.22802734375;3.9375;4.9375;-6.6875;
1441975288405520;-0.7847900390625;0.0762939453125;-0.59442138671875;-0.158203125;1.685252122820513;16.353506326641575;9.681563461440675;0.88720703125;0.07470703125;-0.21875;2.1875;4.9375;-5.9375;
1441975288428521;-0.7843017578125;0.0758056640625;-0.5950927734375;-0.158203125;1.6781594459057758;16.341965964491077;9.695200820581178;0.87890625;0.06787109375;-0.22265625;1.25;5.125;-5.5625;
1441975288443522;-0.78375244140625;0.07550048828125;-0.59576416015625;-0.15863037109375;1.671392079824561;16.325609403507446;9.71114817616931;0.87158203125;0.0703125;-0.2236328125;0.1875;5.5;-6.4375;
1441975288465523;-0.782958984375;0.07562255859375;-0.5965576171875;-0.15948486328125;1.6619728205796902;16.30525457708663;9.727561044349855;0.853515625;0.0830078125;-0.2158203125;-2.1875;5.5;-5.75;
1441975288488524;-0.78192138671875;0.07562255859375;-0.5977783203125;-0.1600341796875;1.6469887824487688;16.28402072865492;9.746704159596929;0.83935546875;0.07568359375;-0.19873046875;-5.6875;5.875;-5.5;
1441975288505525;-0.7803955078125;0.075439453125;-0.5997314453125;-0.16021728515625;1.6224267857105785;16.258577889423254;9.772441367876702;0.8662109375;0.10400390625;-0.2080078125;-3.625;9.125;-3.0625;
1441975288533527;-0.77880859375;0.0738525390625;-0.60223388671875;-0.15936279296875;1.5947800623726813;16.22876599559607;9.812728503996006;0.8984375;0.0927734375;-0.201171875;-1.3125;13.1875;-2.8125;
1441975288548528;-0.77734375;0.072021484375;-0.604736328125;-0.1580810546875;1.5675819856604922;16.202367186612125;9.852385380455582;0.8916015625;0.11083984375;-0.2041015625;8.375;17.1875;-3.6875;
1441975288571529;-0.77545166015625;0.07147216796875;-0.60736083984375;-0.15753173828125;1.5346248083843503;16.17425434942146;9.88541987079259;0.8720703125;0.123046875;-0.21630859375;11.1875;18.625;-2.3125;
1441975288593530;-0.77313232421875;0.07196044921875;-0.61016845703125;-0.1575927734375;1.4958802316166073;16.142868062058977;9.914917739587787;0.86279296875;0.14306640625;-0.203125;3.5625;19.4375;2.75;
1441975288608531;-0.7706298828125;0.07330322265625;-0.61309814453125;-0.15789794921875;1.4526996871753899;16.11392345162484;9.937508467607714;0.8828125;0.173828125;-0.18017578125;-2.3125;19.5625;7.75;
1441975288631533;-0.76800537109375;0.0751953125;-0.61614990234375;-0.15802001953125;1.405031514629739;16.091362791374593;9.952247406860165;0.91650390625;0.17822265625;-0.1748046875;-6.5625;19.625;10.875;
1441975288645533;-0.76544189453125;0.0771484375;-0.619140625;-0.15777587890625;1.3566717340521472;16.07554202999005;9.96148234069885;0.93115234375;0.1572265625;-0.1513671875;-7.9375;18.8125;12.5;
1441975288667535;-0.76300048828125;0.07904052734375;-0.6220703125;-0.15716552734375;1.3084436691044048;16.06600692560709;9.966197499659199;0.90380859375;0.1240234375;-0.11669921875;-6.375;16.75;12.6875;
1441975288691536;-0.76092529296875;0.0814208984375;-0.62445068359375;-0.1566162109375;1.2650825339191254;16.069825332474966;9.955230993529998;0.88818359375;0.13671875;-0.09130859375;-4.25;14.625;14.4375;
1441975288705537;-0.7591552734375;0.08489990234375;-0.626220703125;-0.15631103515625;1.2249931550535538;16.093943169022957;9.918368276103056;0.90966796875;0.16845703125;-0.0927734375;-5.5625;11.0;18.375;
1441975288728538;-0.75738525390625;0.0894775390625;-0.62762451171875;-0.1566162109375;1.1859010884222971;16.128370833856604;9.864091525705504;0.9775390625;0.177734375;-0.11962890625;-10.875;7.375;22.0;
1441975288751539;-0.7554931640625;0.09478759765625;-0.62896728515625;-0.15728759765625;1.1453316441970955;16.169646683370708;9.798446127510678;1.01123046875;0.1630859375;-0.09423828125;-17.9375;3.3125;23.25;
1441975288766540;-0.7535400390625;0.1004638671875;-0.6302490234375;-0.157958984375;1.1039583717753936;16.22102446804213;9.721160832220376;1.02001953125;0.146484375;-0.06005859375;-21.5;0.8125;24.375;
1441975288803542;-0.751708984375;0.10626220703125;-0.6312255859375;-0.15899658203125;1.067173047000898;16.275176842334098;9.639028132284784;1.0244140625;0.11962890625;-0.04345703125;-23.5;-0.5;24.5625;
1441975288821543;-0.74993896484375;0.11285400390625;-0.63177490234375;-0.160400390625;1.0334628084876356;16.344729429362282;9.536596673502466;1.0439453125;0.13623046875;-0.0498046875;-25.5;-1.75;25.25;
1441975288826544;-0.74822998046875;0.11956787109375;-0.63214111328125;-0.16217041015625;1.0032496918677656;16.41559769718014;9.430821113631975;1.0771484375;0.10986328125;-0.07958984375;-30.75;-2.0;25.0;
1441975288856545;-0.7467041015625;0.1253662109375;-0.632568359375;-0.16326904296875;0.9756239487505579;16.49049534433699;9.327553534479186;1.06591796875;0.06494140625;-0.07568359375;-32.75;-3.3125;21.5;
1441975288871546;-0.7452392578125;0.1309814453125;-0.6328125;-0.1646728515625;0.9520467261434619;16.56044560449654;9.228657661553783;1.013671875;0.02978515625;-0.0615234375;-27.125;-3.25;18.25;
1441975288895548;-0.74383544921875;0.13653564453125;-0.6328125;-0.16650390625;0.9327781920639588;16.62398982478658;9.134565672446683;0.94921875;0.0400390625;-0.0537109375;-27.375;-3.875;17.6875;
1441975288919549;-0.74249267578125;0.1419677734375;-0.63275146484375;-0.16815185546875;0.915103857098928;16.69362451385907;9.03560245435579;0.919921875;0.0751953125;-0.04638671875;-28.6875;-5.0625;18.5625;
1441975288931550;-0.74114990234375;0.14617919921875;-0.63311767578125;-0.1689453125;0.8954824353796551;16.759252979508314;8.949260718586654;0.9453125;0.06103515625;-0.052734375;-27.8125;-5.3125;17.875;
1441975288945550;-0.73992919921875;0.14990234375;-0.633544921875;-0.16961669921875;0.8774986900835586;16.820267720144418;8.87012167225139;0.982421875;0.07568359375;-0.05322265625;-19.0;-3.0625;17.375;
1441975288967552;-0.73858642578125;0.1546630859375;-0.633544921875;-0.1710205078125;0.8621816842524893;16.889819380477746;8.774939862892195;1.03076171875;0.13134765625;-0.060546875;-16.375;-2.625;19.4375;
1441975288991553;-0.73675537109375;0.160888671875;-0.63348388671875;-0.17340087890625;0.8436476625993039;16.96907484550862;8.659894169705671;1.0693359375;0.169921875;-0.0771484375;-23.0625;-3.625;24.0;
1441975289005554;-0.7342529296875;0.16815185546875;-0.63372802734375;-0.17626953125;0.8178489795007102;17.062568849707304;8.52424699397302;1.07958984375;0.16162109375;-0.07666015625;-33.125;-2.75;26.5;
1441975289030555;-0.73138427734375;0.1761474609375;-0.63397216796875;-0.17950439453125;0.7903735809404657;17.1713089511619;8.368678707416366;1.04833984375;0.12353515625;-0.04638671875;-40.0;-1.0;28.1875;
1441975289051557;-0.72845458984375;0.18475341796875;-0.6337890625;-0.18341064453125;0.7676701027052961;17.284451611981062;8.20318645255569;1.02197265625;0.0791015625;-0.03955078125;-44.625;-0.5;27.625;
1441975289065557;-0.725341796875;0.19366455078125;-0.63330078125;-0.1881103515625;0.7476505991249868;17.387904818737393;8.042573193684282;1.00439453125;0.06005859375;-0.03564453125;-50.25;-1.625;26.375;
1441975289088559;-0.72198486328125;0.20257568359375;-0.63275146484375;-0.19354248046875;0.7271798486268737;17.474088541956757;7.896045726578107;1.01171875;0.0634765625;-0.04052734375;-55.3125;-1.1875;25.4375;
1441975289111560;-0.71875;0.2115478515625;-0.63189697265625;-0.1986083984375;0.7119487841516956;17.579074575803304;7.731708686569793;1.01513671875;0.06201171875;-0.044921875;-58.625;0.25;23.3125;
1441975289125561;-0.71563720703125;0.22003173828125;-0.63092041015625;-0.20361328125;0.6996301591250843;17.675195426283732;7.5783773668588;0.99755859375;0.0224609375;-0.07666015625;-58.0625;0.8125;21.8125;
1441975289147562;-0.7127685546875;0.2279052734375;-0.6297607421875;-0.20843505859375;0.6912653869516207;17.759786289479127;7.439726870898869;0.97900390625;0.0380859375;-0.07568359375;-56.0625;0.5625;21.25;
1441975289171563;-0.7099609375;0.23614501953125;-0.6282958984375;-0.21331787109375;0.6874725445793769;17.85259224959217;7.290909281846444;0.994140625;0.0859375;-0.0888671875;-52.0625;0.4375;22.4375;
1441975289185564;-0.70721435546875;0.2442626953125;-0.626708984375;-0.21795654296875;0.6866465893865006;17.949184612830937;7.139638518917561;0.982421875;0.06787109375;-0.11279296875;-54.3125;0.1875;22.25;
1441975289207565;-0.70458984375;0.25262451171875;-0.62469482421875;-0.2225341796875;0.6921788553544919;0.0483946093680389;6.984639910899257;1.01806640625;0.072265625;-0.1259765625;-53.3125;0.25;23.25;
1441975289231567;-0.70184326171875;0.2620849609375;-0.6221923828125;-0.227294921875;0.7047005884393454;0.16549435867068485;6.806012301682545;1.0283203125;0.09375;-0.130859375;-53.75;-2.4375;25.125;
1441975289246568;-0.6986083984375;0.27325439453125;-0.618896484375;-0.23309326171875;0.723689569475003;0.28586712337936304;6.611840415181028;1.06103515625;0.107421875;-0.14013671875;-59.375;-4.8125;29.75;
1441975289268569;-0.6943359375;0.2861328125;-0.6151123046875;-0.24017333984375;0.7426486588592605;0.411117884182616;6.399216113829053;1.130859375;0.08935546875;-0.14697265625;-71.3125;-7.25;32.125;
1441975289291570;-0.68896484375;0.301513671875;-0.61065673828125;-0.24822998046875;0.7680127807682955;0.5652149099139954;6.141934958224146;1.23486328125;0.10546875;-0.1630859375;-84.6875;-5.6875;37.25;
1441975289305571;-0.683837890625;0.3162841796875;-0.6053466796875;-0.2567138671875;0.7990690623559773;0.6616455262679605;5.942004902820219;1.28271484375;-0.02294921875;-0.20849609375;-101.0;-6.125;35.5;
1441975289328572;-0.680419921875;0.32904052734375;-0.59814453125;-0.2664794921875;0.8382397200810936;0.6137018818565175;5.8888177406453055;1.35302734375;-0.041015625;-0.17578125;-101.6875;-9.5;30.125;
1441975289351574;-0.67889404296875;0.3388671875;-0.58990478515625;-0.27642822265625;0.8816679398765437;0.4592258538053422;5.953698926402697;1.443359375;-0.01513671875;-0.22119140625;-100.5;-17.25;12.1875;
1441975289373575;-0.67877197265625;0.34368896484375;-0.58392333984375;-0.28338623046875;0.9116242979391911;0.3018790307078638;6.057146131327306;1.4794921875;-0.08203125;-0.17919921875;-90.8125;-26.5625;-8.5625;
1441975289388576;-0.6851806640625;0.3382568359375;-0.57537841796875;-0.291748046875;0.9673477272541926;17.82004647875596;6.524447206531502;1.416015625;-0.1357421875;0.19677734375;-57.0625;-46.75;-21.8125;
1441975289411577;-0.68280029296875;0.3448486328125;-0.57318115234375;-0.29400634765625;0.9802537772060319;17.896105205234413;6.407878269019087;1.5380859375;0.4140625;-0.32080078125;-16.125;-25.3125;-47.4375;
1441975289425578;-0.6827392578125;0.348388671875;-0.5704345703125;-0.29522705078125;1.0080613963337752;17.90734685816074;6.374201853420886;1.60498046875;-0.3974609375;-0.1279296875;-43.6875;-18.0;-9.3125;
1441975289447579;-0.69036865234375;0.3499755859375;-0.55914306640625;-0.2972412109375;1.1478158670625302;17.725509107812847;6.536184679381514;1.48193359375;0.3212890625;-0.3798828125;-18.0625;-6.25;27.5;
1441975289470581;-0.69378662109375;0.34637451171875;-0.5521240234375;-0.30645751953125;1.1946888420372874;17.404144164383155;6.830492718085918;1.33544921875;0.232421875;-0.74658203125;-20.4375;-34.125;-20.4375;
1441975289485581;-0.70013427734375;0.33544921875;-0.55169677734375;-0.304931640625;1.2302434862191116;17.22627111138488;7.064503175676998;1.458984375;0.23486328125;-0.16748046875;-30.5;-23.6875;-50.75;
1441975289510583;-0.7081298828125;0.32025146484375;-0.55413818359375;-0.29840087890625;1.2627476315614148;17.098301614679094;7.290696939853594;1.45849609375;-0.02685546875;-0.33203125;49.3125;-3.8125;-59.75;
1441975289530584;-0.7159423828125;0.30218505859375;-0.55816650390625;-0.2908935546875;1.2843535889434865;16.95661097707968;7.54726172823474;1.47705078125;0.06005859375;-0.32763671875;92.125;-0.375;-54.0625;
1441975289546585;-0.72332763671875;0.2833251953125;-0.56011962890625;-0.28790283203125;1.3258609804959751;16.72004151503595;7.880701842439997;1.4453125;0.3134765625;-0.2900390625;109.25;8.1875;-53.875;
1441975289567586;-0.72857666015625;0.26837158203125;-0.56085205078125;-0.2874755859375;1.3710727375773464;16.50910198948264;8.15890634588235;1.349609375;0.34716796875;-0.3583984375;91.125;15.5;-62.5625;
1441975289590587;-0.73236083984375;0.2564697265625;-0.562255859375;-0.28594970703125;1.4023584823354787;16.371764426648358;8.354961153635621;1.287109375;0.28662109375;-0.3671875;60.625;16.4375;-58.9375;
1441975289605588;-0.73480224609375;0.24517822265625;-0.56597900390625;-0.28228759765625;1.4040718116455533;16.276516937380162;8.516231332502104;1.29345703125;0.17724609375;-0.34814453125;52.625;16.0625;-47.875;
1441975289638590;-0.73699951171875;0.23211669921875;-0.5712890625;-0.27691650390625;1.3942984977590736;16.18057806079122;8.693404011934225;1.3037109375;0.07763671875;-0.3095703125;59.125;23.6875;-40.625;
1441975289650591;-0.7388916015625;0.22039794921875;-0.57611083984375;-0.27130126953125;1.3853156940115086;16.1066719787121;8.843175296292536;1.2392578125;0.11669921875;-0.30126953125;74.4375;32.6875;-36.3125;
1441975289673592;-0.73992919921875;0.21282958984375;-0.579833984375;-0.2666015625;1.3716651004499494;16.073474745952083;8.930065783611823;1.16748046875;0.19970703125;-0.30029296875;71.1875;30.0625;-24.25;
1441975289689593;-0.74017333984375;0.20684814453125;-0.58392333984375;-0.26171875;1.344882039946227;16.058123865032748;8.99310790274616;1.15625;0.13134765625;-0.30517578125;49.625;23.875;-15.25;
1441975289710594;-0.740478515625;0.2001953125;-0.588134765625;-0.25640869140625;1.3186583338668485;16.039006789975165;9.06436438187763;1.16455078125;0.0322265625;-0.27490234375;43.4375;24.0625;-13.125;
1441975289725595;-0.74072265625;0.1934814453125;-0.59222412109375;-0.2515869140625;1.2947633021871987;16.008310016852764;9.145283450290547;1.13525390625;0.03466796875;-0.26806640625;48.0;24.6875;-13.375;
1441975289748596;-0.7403564453125;0.18780517578125;-0.59637451171875;-0.2469482421875;1.2637866966688986;15.982617002049563;9.215742415652082;1.0595703125;0.05224609375;-0.216796875;46.5;22.9375;-13.625;
1441975289770598;-0.74005126953125;0.18408203125;-0.60003662109375;-0.241943359375;1.2298476741511495;15.995556899296128;9.24085259194521;0.98388671875;0.091796875;-0.13916015625;42.75;19.8125;-5.625;
1441975289785599;-0.74005126953125;0.18218994140625;-0.6026611328125;-0.23681640625;1.2001209613190729;16.049307155230206;9.217589277971836;0.94140625;0.04345703125;-0.134765625;36.5;15.0;1.0;
1441975289808600;-0.740478515625;0.18048095703125;-0.604736328125;-0.2314453125;1.176842195435189;16.119797352315974;9.177660169649839;0.9111328125;0.0185546875;-0.146484375;29.9375;8.0625;5.9375;
1441975289830601;-0.74127197265625;0.17840576171875;-0.60675048828125;-0.22509765625;1.1556843144302227;16.20971467353943;9.123883969498213;0.88427734375;0.0048828125;-0.13720703125;30.1875;3.375;6.25;
1441975289845602;-0.741943359375;0.1756591796875;-0.6092529296875;-0.2181396484375;1.1306975050788377;16.29996008797841;9.075192239691654;0.853515625;-0.01025390625;-0.123046875;36.0;0.75;7.1875;
1441975289868603;-0.74298095703125;0.17132568359375;-0.6119384765625;-0.21026611328125;1.1094090562160457;16.386058874630944;9.041037032966504;0.80517578125;-0.0224609375;-0.0771484375;41.5625;0.9375;7.4375;
1441975289890605;-0.74468994140625;0.16571044921875;-0.6143798828125;-0.20147705078125;1.096562743610369;16.4766434413666;9.011461356494;0.7587890625;-0.0029296875;-0.0615234375;52.3125;0.9375;5.6875;
1441975289905605;-0.74609375;0.16015625;-0.616943359375;-0.19287109375;1.0810736310402023;16.563246970609814;8.984696613518484;0.76416015625;0.06494140625;-0.076171875;61.75;-1.0625;7.25;
1441975289936607;-0.74713134765625;0.154296875;-0.619873046875;-0.18408203125;1.0604596957720287;16.646187584320693;8.963498358267703;0.75830078125;0.08544921875;-0.06689453125;60.8125;-0.0625;9.375;
1441975289950608;-0.7476806640625;0.14813232421875;-0.62347412109375;-0.1741943359375;1.0297114617279657;16.74604694518145;8.931081015519734;0.72802734375;0.10009765625;-0.05126953125;63.0625;2.4375;10.8125;
1441975289968609;-0.747802734375;0.14178466796875;-0.62744140625;-0.1646728515625;0.9939368948677517;16.83353003936683;8.91022407595791;0.75927734375;0.10888671875;-0.021484375;68.875;4.0625;15.5625;
1441975290005611;-0.7476806640625;0.13592529296875;-0.63104248046875;-0.1561279296875;0.9602525548208036;16.910666247401736;8.893324047332534;0.798828125;0.15673828125;9.765625E-4;68.8125;5.5;17.6875;
1441975290011611;-0.740478515625;0.18048095703125;-0.604736328125;-0.2314453125;1.176842195435189;16.119797352315974;9.177660169649839;0.80078125;0.21533203125;0.04150390625;63.125;3.0;20.375;
1441975290030613;-0.74127197265625;0.17840576171875;-0.60675048828125;-0.22509765625;1.1556843144302227;16.20971467353943;9.123883969498213;0.88427734375;0.0048828125;-0.13720703125;30.1875;3.375;6.25;
1441975290036613;-0.7474365234375;0.13092041015625;-0.6341552734375;-0.14886474609375;0.9303134655259702;16.97753671696247;8.877652595809446;0.853515625;-0.01025390625;-0.123046875;36.0;0.75;7.1875;
1441975290065615;-0.74664306640625;0.12750244140625;-0.63702392578125;-0.14324951171875;0.8982410200943172;17.037683078421406;8.855159079067766;0.771484375;0.2109375;0.0634765625;53.75;0.25;19.1875;
1441975290068615;-0.7449951171875;0.12518310546875;-0.6402587890625;-0.13946533203125;0.8572858418930912;17.070949304440138;8.84746590628267;0.73828125;0.177734375;0.1044921875;40.1875;-1.1875;18.3125;
1441975290079615;-0.745849609375;0.12518310546875;-0.64013671875;-0.1353759765625;0.8613311326645116;17.192273670907674;8.7430189030826;1.3623046875;0.29833984375;0.1201171875;29.0625;-3.1875;24.0;
1441975290085616;-0.74041748046875;0.12567138671875;-0.64654541015625;-0.13409423828125;0.7642480116214662;17.213233574890715;8.725957920489208;0.75732421875;0.248046875;-0.19287109375;20.25;-1.0;29.1875;
1441975290107617;-0.74273681640625;0.13043212890625;-0.64373779296875;-0.13043212890625;0.8027978075721632;17.46722045267154;8.467220452671544;1.4189453125;0.3046875;0.55126953125;8.3125;-5.5625;33.3125;
1441975290139619;-0.7452392578125;0.13555908203125;-0.63970947265625;-0.130615234375;0.8568078012871841;17.59015801981145;8.32193549835368;0.2265625;0.0732421875;-0.19140625;-1.9375;-15.9375;34.6875;
1441975290145619;-0.7410888671875;0.14141845703125;-0.64288330078125;-0.132568359375;0.7995840048864311;17.697567520059458;8.182619926016493;0.853515625;0.30615234375;-0.26513671875;-18.5;-20.5;36.1875;
1441975290176621;-0.74578857421875;0.15118408203125;-0.63555908203125;-0.13092041015625;0.9090321276335361;17.943701118122423;7.902053157653545;1.10302734375;0.203125;0.490234375;-27.625;-18.9375;36.875;
1441975290190622;-0.74462890625;0.16009521484375;-0.6343994140625;-0.13214111328125;0.9224299053595986;0.11326774598959742;7.690251514541834;0.1376953125;0.04296875;-0.61279296875;-31.3125;-16.875;40.6875;
1441975290205623;-0.74560546875;0.16900634765625;-0.630859375;-0.13275146484375;0.9762082665952558;0.2584585194197651;7.505026581053677;1.0419921875;0.1357421875;0.03369140625;-38.0;-20.5;43.875;
1441975290228624;-0.74652099609375;0.17767333984375;-0.62738037109375;-0.13275146484375;1.0330728105995162;0.39635273220179407;7.330461725871045;0.7646484375;0.111328125;-0.1455078125;-36.0;-23.5625;40.5;
1441975290250625;-0.74749755859375;0.18609619140625;-0.62384033203125;-0.13238525390625;1.09402575397546;0.5201602415115775;7.17237218819572;0.72607421875;0.09130859375;-0.1611328125;-32.5625;-23.0;41.1875;
1441975290276627;-0.7484130859375;0.19415283203125;-0.6204833984375;-0.131591796875;1.1557875578561727;0.6337311929805572;7.027744334019597;0.75146484375;0.07861328125;-0.1708984375;-30.4375;-23.375;40.875;
1441975290287627;-0.74957275390625;0.20159912109375;-0.6168212890625;-0.1307373046875;1.2215940903298272;0.7211430295082503;6.911843810653936;0.7998046875;0.05517578125;-0.205078125;-26.8125;-21.5;39.9375;
1441975290310629;-0.75189208984375;0.2081298828125;-0.61212158203125;-0.12957763671875;1.301848888498698;0.7715249364547629;6.837888237969215;0.8515625;0.03466796875;-0.2373046875;-24.5625;-22.4375;36.5;
1441975290326629;-0.7569580078125;0.21612548828125;-0.6036376953125;-0.12646484375;1.4429272412446916;0.8092916154126445;6.777411934721197;0.68310546875;-0.00244140625;-0.28271484375;-21.0;-25.6875;28.75;
1441975290349631;-0.76226806640625;0.2236328125;-0.59490966796875;-0.12286376953125;1.5879406579218138;0.836536807474121;6.731258104014557;0.0419921875;-0.13623046875;-0.5634765625;-20.5;-26.9375;23.9375;
1441975290370632;-0.76385498046875;0.2274169921875;-0.59161376953125;-0.12200927734375;1.6417906765040406;0.8505070552677814;6.703938363678357;0.20458984375;-0.19189453125;-0.5849609375;-17.625;-30.75;20.1875;
1441975290386633;-0.7667236328125;0.2296142578125;-0.58709716796875;-0.12158203125;1.704678418424742;0.8240614752367087;6.721677278065819;0.873046875;-0.11669921875;-0.23388671875;-13.125;-24.625;12.375;
1441975290409634;-0.76922607421875;0.23175048828125;-0.5826416015625;-0.1234130859375;1.7549883801473418;0.7710401009832951;6.756946761318675;0.962890625;-0.01025390625;-0.33984375;-7.9375;-27.9375;9.125;
1441975290430635;-0.77178955078125;0.23480224609375;-0.57708740234375;-0.1273193359375;1.809551553383825;0.6936482107701121;6.803613256678267;0.99462890625;0.00634765625;-0.345703125;-17.125;-24.0625;2.875;
1441975290446636;-0.77410888671875;0.23870849609375;-0.57135009765625;-0.1319580078125;1.8648618396735819;0.6181886258990086;6.841552691077431;0.96630859375;-0.00634765625;-0.3828125;-31.25;-24.75;-2.5;
1441975290467638;-0.77642822265625;0.24176025390625;-0.56610107421875;-0.13543701171875;1.9184806180488043;0.5561985922320601;6.8744765928528055;0.9287109375;-0.11572265625;-0.380859375;-40.25;-25.0625;-8.375;
1441975290490639;-0.779296875;0.24200439453125;-0.5616455078125;-0.13702392578125;1.9675892580160743;0.4983087864148833;6.923353383071233;0.8984375;-0.20947265625;-0.38818359375;-33.9375;-22.9375;-15.0625;
1441975290508640;-0.78289794921875;0.2392578125;-0.55792236328125;-0.13665771484375;2.013786711228226;0.4426928681770465;6.991157514052825;0.8701171875;-0.22119140625;-0.412109375;-14.9375;-20.125;-22.5;
1441975290527641;-0.78692626953125;0.235107421875;-0.553955078125;-0.13671875;2.0601611800223374;0.3698339512224918;7.080297529699763;0.86279296875;-0.1826171875;-0.419921875;5.4375;-19.4375;-28.0;
1441975290550642;-0.79095458984375;0.2314453125;-0.5494384765625;-0.1376953125;2.1111356530983443;0.29087243877620594;7.1693863619195115;0.892578125;-0.08740234375;-0.42626953125;9.9375;-21.1875;-30.4375;
1441975290568643;-0.7947998046875;0.22869873046875;-0.54461669921875;-0.1396484375;2.1645036280095376;0.21080738893135306;7.251537144791328;0.9326171875;-0.04052734375;-0.466796875;4.3125;-21.9375;-28.75;
1441975290587644;-0.79833984375;0.22576904296875;-0.54010009765625;-0.14154052734375;2.214661745572863;0.13592596351022684;7.329479637091062;0.978515625;-0.0546875;-0.4970703125;-3.8125;-22.0625;-29.25;
1441975290610646;-0.8016357421875;0.22271728515625;-0.53594970703125;-0.14349365234375;2.2610645057083056;0.06461421244969834;7.404234244167368;0.99609375;-0.06787109375;-0.5078125;-4.0625;-19.9375;-30.625;
1441975290626647;-0.8048095703125;0.21978759765625;-0.53192138671875;-0.1453857421875;2.3073246248345143;17.998565762911927;7.473487639374787;0.9541015625;-0.03955078125;-0.51025390625;-2.875;-16.875;-29.625;
1441975290647648;-0.80767822265625;0.2176513671875;-0.52783203125;-0.14764404296875;2.353802971317397;17.93737065820541;7.53286424984771;0.8994140625;-0.01220703125;-0.51611328125;-2.5;-15.0;-27.6875;
1441975290670649;-0.81011962890625;0.21649169921875;-0.5238037109375;-0.15008544921875;2.39897152743333;17.884586902344378;7.57879341203409;0.86962890625;-0.01708984375;-0.515625;-7.25;-14.0625;-25.1875;
1441975290687650;-0.81231689453125;0.21551513671875;-0.52020263671875;-0.15203857421875;2.4405659963292834;17.841957796630027;7.615977446510932;0.82861328125;-0.0458984375;-0.490234375;-12.5625;-14.3125;-23.3125;
1441975290707651;-0.814453125;0.21405029296875;-0.5172119140625;-0.15283203125;2.4783043756003633;17.81171958736039;7.647957841365775;0.810546875;-0.05517578125;-0.4912109375;-11.1875;-12.0625;-20.9375;
1441975290730653;-0.81671142578125;0.21173095703125;-0.51483154296875;-0.15240478515625;2.5128066726228377;17.791177569176718;7.679355665051663;0.81787109375;-0.05419921875;-0.50341796875;-3.875;-10.0;-19.375;
1441975290746654;-0.8189697265625;0.2086181640625;-0.5126953125;-0.1517333984375;2.544861516867933;17.76899990347857;7.716826866317212;0.8232421875;-0.03564453125;-0.4990234375;5.6875;-9.0625;-18.625;
1441975290767655;-0.821044921875;0.20587158203125;-0.51068115234375;-0.1510009765625;2.575333840724436;17.751223305313218;7.748625632797802;0.837890625;0.03271484375;-0.4970703125;11.8125;-8.5;-17.125;
1441975290791656;-0.82275390625;0.20391845703125;-0.508544921875;-0.1513671875;2.6036473890698506;17.72762175841647;7.778141170985866;0.86767578125;0.03173828125;-0.525390625;10.0625;-7.0625;-15.1875;
1441975290806657;-0.8243408203125;0.2021484375;-0.50677490234375;-0.151123046875;2.629118557660436;17.713234748458746;7.800427963544165;0.85791015625;0.009765625;-0.50341796875;1.8125;-7.4375;-16.0;
1441975290827658;-0.82586669921875;0.1998291015625;-0.50543212890625;-0.150390625;2.6506400892883346;17.701605694979964;7.824529366706749;0.83349609375;-0.025390625;-0.47509765625;3.5;-7.6875;-15.5;
1441975290850659;-0.827880859375;0.19720458984375;-0.5035400390625;-0.149169921875;2.681034861760707;17.692087568651296;7.849664199475749;0.8173828125;-0.009765625;-0.4521484375;8.3125;-6.9375;-14.875;
1441975290866660;-0.83013916015625;0.194580078125;-0.5010986328125;-0.14825439453125;2.7177705105541996;17.678620057394483;7.877218988350002;0.80712890625;0.0205078125;-0.4658203125;12.0;-10.0;-14.3125;
1441975290888662;-0.83221435546875;0.19195556640625;-0.49871826171875;-0.14801025390625;2.7519287525792056;17.658889730607132;7.908218983699207;0.8310546875;0.0615234375;-0.482421875;11.0625;-13.25;-13.4375;
1441975290911663;-0.83441162109375;0.18902587890625;-0.4962158203125;-0.14801025390625;2.787690582303648;17.63506756874919;7.9435742921989085;0.8671875;0.05712890625;-0.47021484375;8.125;-14.1875;-16.125;
1441975290926664;-0.83636474609375;0.18609619140625;-0.4937744140625;-0.14886474609375;2.820539613569856;17.603389560696524;7.983154428361096;0.8662109375;0.0478515625;-0.47998046875;6.8125;-13.9375;-19.0625;
1441975290947665;-0.838134765625;0.1832275390625;-0.49151611328125;-0.149658203125;2.8510219479606547;17.573815298015703;8.02064212172237;0.87548828125;0.05517578125;-0.47021484375;3.0625;-13.5;-21.0;
1441975290971666;-0.84027099609375;0.18060302734375;-0.48870849609375;-0.1502685546875;2.889641512404416;17.54755148113476;8.054397870451872;0.8642578125;0.05224609375;-0.46435546875;2.9375;-12.625;-21.125;
1441975290988667;-0.84246826171875;0.1778564453125;-0.4857177734375;-0.151123046875;2.9304240701119877;17.518692266906427;8.090142474439613;0.853515625;0.04296875;-0.494140625;1.875;-14.9375;-20.75;
1441975291007668;-0.844482421875;0.17462158203125;-0.48309326171875;-0.15179443359375;2.9670652985687895;17.49003839554459;8.128609738213711;0.85498046875;0.05029296875;-0.49072265625;1.25;-16.25;-22.4375;
1441975291030670;-0.8465576171875;0.1710205078125;-0.48052978515625;-0.15264892578125;3.00370375057891;17.45834142716425;8.171004936528252;0.859375;0.03515625;-0.48193359375;3.1875;-15.0;-24.875;
1441975291052671;-0.84857177734375;0.167236328125;-0.47802734375;-0.15362548828125;3.0397856724686445;17.425337789370005;8.214973482277905;0.84423828125;0.03662109375;-0.490234375;3.125;-13.3125;-27.3125;
1441975291067672;-0.8505859375;0.16326904296875;-0.47540283203125;-0.15447998046875;3.077716183224091;17.393309343249758;8.259112442447444;0.83447265625;0.056640625;-0.49658203125;3.25;-12.5;-27.875;
1441975291090673;-0.85260009765625;0.15924072265625;-0.472900390625;-0.1553955078125;3.114922247643568;17.361347861311096;8.303326470530212;0.8291015625;0.0595703125;-0.515625;4.25;-11.8125;-28.5625;
1441975291112674;-0.8544921875;0.15496826171875;-0.47064208984375;-0.15618896484375;3.1496938995705737;17.330172827624892;8.348393716911806;0.822265625;0.06396484375;-0.51416015625;4.125;-11.6875;-28.875;
1441975291127675;-0.8564453125;0.14990234375;-0.46856689453125;-0.15667724609375;3.1841013932693247;17.298578760999696;8.39864461293035;0.8291015625;0.0712890625;-0.51806640625;5.5;-10.25;-29.4375;
1441975291150677;-0.8583984375;0.14410400390625;-0.4666748046875;-0.15728759765625;3.2177745636777537;17.262917137567033;8.455675300520172;0.83154296875;0.0849609375;-0.5361328125;9.375;-8.25;-32.1875;
1441975291172678;-0.8603515625;0.13800048828125;-0.464599609375;-0.15826416015625;3.25424413650118;17.22323026276563;8.516345641016692;0.8232421875;0.1123046875;-0.53662109375;11.5;-6.6875;-34.8125;
1441975291189679;-0.8623046875;0.13201904296875;-0.46221923828125;-0.1595458984375;3.2945318567452184;17.18248469416203;8.576073370967519;0.794921875;0.13720703125;-0.52978515625;11.4375;-6.875;-35.875;
1441975291210680;-0.8643798828125;0.12615966796875;-0.45947265625;-0.1610107421875;3.339941887998872;17.14207885503893;8.63402122932156;0.78662109375;0.15380859375;-0.5341796875;9.375;-8.0;-36.0625;
1441975291232681;-0.866455078125;0.11993408203125;-0.45660400390625;-0.1627197265625;3.38799548813921;17.099055391965905;8.69502539009232;0.77197265625;0.1474609375;-0.51904296875;7.5625;-10.4375;-37.1875;
1441975291265683;-0.868408203125;0.1134033203125;-0.45379638671875;-0.1649169921875;3.436437113935523;17.051524553162647;8.759769598707576;0.779296875;0.1669921875;-0.5263671875;7.5625;-11.0625;-39.1875;
1441975291270683;-0.87030029296875;0.10711669921875;-0.45062255859375;-0.1678466796875;3.4894599229553522;17.000366262400888;8.823756367944934;0.8271484375;0.2236328125;-0.55810546875;7.3125;-10.25;-39.6875;
1441975291292685;-0.8720703125;0.10137939453125;-0.4471435546875;-0.17132568359375;3.545626550962891;16.94864684393436;8.883398030105539;0.81396484375;0.23974609375;-0.55126953125;2.6875;-12.0;-40.4375;
1441975291325687;-0.87359619140625;0.09576416015625;-0.44403076171875;-0.17486572265625;3.5979016324772166;16.897979100936823;8.941353665215203;0.78173828125;0.23486328125;-0.52099609375;-1.5;-14.25;-40.1875;
1441975291338687;-0.87481689453125;0.09033203125;-0.4412841796875;-0.17852783203125;3.645881009246509;16.847756482050677;8.997662228677367;0.796875;0.23681640625;-0.51318359375;-2.625;-13.125;-39.6875;
1441975291352688;-0.8760986328125;0.0849609375;-0.43865966796875;-0.181396484375;3.693037569068247;16.80575765565646;9.04898512612063;0.8076171875;0.26806640625;-0.525390625;-2.9375;-11.0;-38.0625;
1441975291369689;-0.8770751953125;0.07989501953125;-0.4364013671875;-0.184326171875;3.7352835352198723;16.764701778900818;9.097906301805448;0.8212890625;0.28125;-0.52587890625;1.125;-11.4375;-35.875;
1441975291390690;-0.87774658203125;0.07513427734375;-0.43463134765625;-0.18731689453125;3.771345727730213;16.72420692615491;9.144902314198198;0.81103515625;0.26806640625;-0.4697265625;-0.25;-12.25;-34.9375;
1441975291412692;-0.878173828125;0.070556640625;-0.4332275390625;-0.19036865234375;3.8030044799872504;16.683812933890973;9.190887233892255;0.78076171875;0.26904296875;-0.447265625;-1.1875;-9.5625;-33.1875;
1441975291429693;-0.87835693359375;0.0662841796875;-0.43206787109375;-0.193603515625;3.8313453554807153;16.642992419454966;9.235254917483296;0.78271484375;0.2705078125;-0.46435546875;-2.5;-6.625;-32.3125;
1441975291450694;-0.87841796875;0.0621337890625;-0.4312744140625;-0.1964111328125;3.855190070902951;16.60589298914759;9.277395808636863;0.79443359375;0.28857421875;-0.4697265625;-4.0625;-5.5;-30.9375;
1441975291472695;-0.87823486328125;0.058349609375;-0.4310302734375;-0.19903564453125;3.871760770021381;16.570757034528732;9.317061778449528;0.8251953125;0.291015625;-0.4765625;-2.75;-4.125;-29.5;
1441975291489696;-0.87774658203125;0.054931640625;-0.431396484375;-0.20123291015625;3.879620401212946;16.539045198268756;9.353817091803618;0.83447265625;0.287109375;-0.4609375;-2.75;-2.625;-27.4375;
1441975291510697;-0.8773193359375;0.05157470703125;-0.4320068359375;-0.20263671875;3.884130411154545;16.513707558187658;9.387539781879704;0.8544921875;0.29345703125;-0.458984375;-1.5;-0.0625;-24.375;
1441975291532698;-0.87646484375;0.04840087890625;-0.43341064453125;-0.20428466796875;3.8791808145447573;16.484871960290523;9.42325849506091;0.87109375;0.29248046875;-0.4765625;1.625;1.125;-22.75;
1441975291549699;-0.8753662109375;0.04559326171875;-0.4351806640625;-0.205810546875;3.8685763195781155;16.457023700190643;9.457056440278347;0.87890625;0.30517578125;-0.44189453125;0.5625;4.0;-21.0625;
1441975291571701;-0.87420654296875;0.0430908203125;-0.43695068359375;-0.2073974609375;3.8572671983577225;16.42948649885822;9.488946489584643;0.884765625;0.31201171875;-0.4560546875;0.1875;6.9375;-18.25;
1441975291592702;-0.8731689453125;0.04058837890625;-0.43878173828125;-0.20843505859375;3.845054188233038;16.40629911123233;9.51894614589427;0.89013671875;0.30322265625;-0.46142578125;-1.8125;7.25;-17.8125;
1441975291609703;-0.872314453125;0.03802490234375;-0.44036865234375;-0.209228515625;3.8359777983722703;16.385589289925136;9.547700890684018;0.8798828125;0.28662109375;-0.455078125;0.3125;7.375;-17.25;
1441975291630704;-0.87152099609375;0.035888671875;-0.4417724609375;-0.21002197265625;3.827772917813208;16.366831686955237;9.572601580666248;0.85791015625;0.28466796875;-0.46630859375;1.125;7.25;-16.9375;
1441975291646705;-0.8707275390625;0.033935546875;-0.44317626953125;-0.210693359375;3.8188482141462985;16.34960141711595;9.595714451611038;0.83056640625;0.2822265625;-0.46875;0.1875;7.0625;-14.9375;
1441975291669706;-0.869873046875;0.03204345703125;-0.4447021484375;-0.21136474609375;3.8084344473511855;16.33208233111475;9.618903331950824;0.83544921875;0.2978515625;-0.4765625;0.6875;7.5;-12.875;
1441975291690707;-0.86895751953125;0.0301513671875;-0.44610595703125;-0.21234130859375;3.799879951320674;16.312147334601548;9.643076382332577;0.861328125;0.33447265625;-0.49169921875;0.875;8.0625;-11.25;
1441975291706708;-0.8680419921875;0.0284423828125;-0.44720458984375;-0.21392822265625;3.7954051715670625;16.28865580956834;9.66722445495715;0.87548828125;0.35693359375;-0.486328125;0.1875;7.375;-11.25;
1441975291729710;-0.8671875;0.02777099609375;-0.44769287109375;-0.21649169921875;3.7961310703145745;16.262719418967354;9.684904659193942;0.86376953125;0.38525390625;-0.49755859375;-2.625;6.5625;-10.625;
1441975291750711;-0.866455078125;0.0283203125;-0.44757080078125;-0.2196044921875;3.8004176493925157;16.23856978305208;9.69295837201052;0.81787109375;0.38623046875;-0.49267578125;-10.375;4.1875;-8.125;
1441975291766712;-0.8658447265625;0.02960205078125;-0.44696044921875;-0.22308349609375;3.8082553287686225;16.21565038068622;9.694858341699165;0.77978515625;0.37353515625;-0.48828125;-17.0;0.6875;-4.0625;
1441975291789713;-0.86541748046875;0.031005859375;-0.4459228515625;-0.22650146484375;3.820357219653187;16.195172465498004;9.693849033184879;0.76611328125;0.35595703125;-0.5078125;-21.5625;-1.625;-2.6875;
1441975291818715;-0.86529541015625;0.032470703125;-0.4443359375;-0.22991943359375;3.838776174537133;16.177094379935955;9.689961161433416;0.7421875;0.3447265625;-0.50244140625;-22.25;-3.6875;-3.0;
1441975291832716;-0.8653564453125;0.03399658203125;-0.44256591796875;-0.2330322265625;3.858633371165838;16.162571928202137;9.683520744925378;0.70556640625;0.3525390625;-0.51416015625;-22.1875;-5.125;-2.5;
1441975291850717;-0.86553955078125;0.03558349609375;-0.44073486328125;-0.2353515625;3.877169113223772;16.15483670109554;9.67340271720511;0.7099609375;0.35302734375;-0.525390625;-20.6875;-6.625;-1.875;
1441975291870718;-0.8658447265625;0.037353515625;-0.43865966796875;-0.23785400390625;3.8983230735617735;16.147200883190468;9.661515159640258;0.71142578125;0.3564453125;-0.5380859375;-17.375;-6.9375;0.0;
1441975291892719;-0.8660888671875;0.03936767578125;-0.436767578125;-0.24017333984375;3.9160069415626846;16.141169794594276;9.647851460500975;0.70166015625;0.3955078125;-0.5517578125;-17.6875;-7.5;2.6875;
1441975291909720;-0.8663330078125;0.04132080078125;-0.434814453125;-0.24237060546875;3.934148057745092;16.135940161887522;9.634079255821376;0.70654296875;0.419921875;-0.546875;-16.625;-7.375;5.3125;
1441975291933721;-0.8665771484375;0.04315185546875;-0.43292236328125;-0.24456787109375;3.9521369728543188;16.130129469119826;9.621435556127224;0.703125;0.43994140625;-0.55224609375;-15.1875;-7.375;6.5625;
1441975291961723;-0.86688232421875;0.04473876953125;-0.430908203125;-0.246826171875;3.972610974460376;16.123442399847207;9.610359614586649;0.6884765625;0.4443359375;-0.5390625;-14.5;-7.5;6.25;
1441975291969723;-0.8673095703125;0.0467529296875;-0.428466796875;-0.24920654296875;3.9963588977776605;16.118431022380687;9.59498485998526;0.6796875;0.4697265625;-0.53515625;-12.9375;-7.5625;6.125;
1441975291990725;-0.8677978515625;0.04913330078125;-0.42572021484375;-0.25189208984375;4.02264914998156;16.113042733586045;9.57689714816475;0.693359375;0.46435546875;-0.5556640625;-15.75;-10.375;6.5;
1441975292013726;-0.86846923828125;0.0513916015625;-0.4228515625;-0.253662109375;4.049009812283038;16.114733915471167;9.55611323504496;0.6875;0.4482421875;-0.54638671875;-18.125;-12.9375;6.0625;
1441975292029727;-0.86944580078125;0.052978515625;-0.4197998046875;-0.25518798828125;4.080368574989166;16.117153435292458;9.538537269305296;0.6865234375;0.419921875;-0.548828125;-14.4375;-14.0;5.75;
1441975292050728;-0.87042236328125;0.0543212890625;-0.4168701171875;-0.2564697265625;4.110886253265059;16.120213370464075;9.52246878721749;0.69091796875;0.4453125;-0.54931640625;-10.0625;-15.25;4.0625;
1441975292072729;-0.8712158203125;0.05572509765625;-0.4139404296875;-0.2581787109375;4.141455390302891;16.119661161744766;9.507744833933133;0.69482421875;0.4609375;-0.53369140625;-7.3125;-15.8125;3.5625;
1441975292089730;-0.87200927734375;0.0570068359375;-0.41094970703125;-0.25994873046875;4.173215025752393;16.118277492509478;9.49401486201517;0.6796875;0.45849609375;-0.52294921875;-9.5625;-15.6875;3.125;
1441975292110732;-0.8726806640625;0.05810546875;-0.407958984375;-0.26202392578125;4.2058606364012885;16.113666097473423;9.482838060504438;0.65869140625;0.44873046875;-0.52001953125;-10.0625;-15.375;2.4375;
1441975292132733;-0.873291015625;0.05914306640625;-0.40521240234375;-0.2640380859375;4.235939281398995;16.108657748490494;9.472732008211091;0.6552734375;0.45654296875;-0.49755859375;-10.125;-15.8125;0.875;
1441975292156734;-0.8739013671875;0.0604248046875;-0.4024658203125;-0.26593017578125;4.264798795615038;16.10521217752238;9.46051846081646;0.67919921875;0.47412109375;-0.5;-9.3125;-15.5625;1.0;
1441975292179735;-0.8743896484375;0.06182861328125;-0.40008544921875;-0.2677001953125;4.288826512588303;16.10199159796519;9.448315434607213;0.67919921875;0.45556640625;-0.5048828125;-10.125;-16.0625;1.5;
1441975292200737;-0.8748779296875;0.06292724609375;-0.39752197265625;-0.26947021484375;4.315770383332335;16.098110335346203;9.437833327203954;0.6875;0.45068359375;-0.490234375;-9.4375;-15.0625;2.0625;
1441975292209737;-0.87530517578125;0.06396484375;-0.39501953125;-0.271728515625;4.34316631249876;16.090249665459684;9.429501195452712;0.6875;0.45556640625;-0.5068359375;-9.5;-15.125;0.375;
1441975292231738;-0.87567138671875;0.0648193359375;-0.392578125;-0.2738037109375;4.3699696581963625;16.08288017590343;9.422193388893884;0.66796875;0.45703125;-0.478515625;-10.75;-15.125;-0.6875;
1441975292261740;-0.87603759765625;0.06549072265625;-0.39007568359375;-0.2760009765625;4.3983064417479065;16.0742070521709;9.416349272818723;0.68359375;0.45947265625;-0.5009765625;-10.3125;-14.3125;-1.5625;
1441975292269741;-0.87628173828125;0.0662841796875;-0.38775634765625;-0.27825927734375;4.424008510794534;16.06483325355976;9.410474240072146;0.69189453125;0.482421875;-0.51171875;-10.125;-14.5;-2.375;
1441975292300742;-0.87646484375;0.06744384765625;-0.38568115234375;-0.2803955078125;4.445385702004378;16.05680258373488;9.402410830855395;0.70751953125;0.4921875;-0.50048828125;-10.0;-14.4375;-1.625;
1441975292312743;-0.87646484375;0.06890869140625;-0.38397216796875;-0.28240966796875;4.4609841757410535;16.04940637055567;9.39313246586581;0.71728515625;0.501953125;-0.513671875;-10.5;-13.375;0.625;
1441975292329744;-0.87628173828125;0.070556640625;-0.38262939453125;-0.28436279296875;4.471399198388207;16.041876690444234;9.38367234275545;0.73828125;0.5029296875;-0.5263671875;-11.0625;-12.25;2.5;
1441975292351745;-0.8759765625;0.0723876953125;-0.38165283203125;-0.2860107421875;4.476348450589416;16.03609260317252;9.373261505049355;0.72607421875;0.47509765625;-0.51318359375;-11.9375;-10.375;3.0;
1441975292372747;-0.87567138671875;0.074462890625;-0.38079833984375;-0.28765869140625;4.479133845803515;16.030795365541785;9.361476987508349;0.70703125;0.455078125;-0.51904296875;-12.0625;-7.9375;4.6875;
1441975292389747;-0.87530517578125;0.07708740234375;-0.38037109375;-0.28857421875;4.473817709998627;16.031345537878497;9.345061918907076;0.68603515625;0.435546875;-0.51171875;-13.125;-6.9375;5.5625;
1441975292411749;-0.875;0.08001708984375;-0.38031005859375;-0.28887939453125;4.462729309208486;16.036684861251008;9.325673364033733;0.669921875;0.3642578125;-0.51025390625;-13.25;-5.5625;7.8125;
1441975292432750;-0.87493896484375;0.08258056640625;-0.3807373046875;-0.2877197265625;4.44627557703178;16.05131037753932;9.305605088613358;0.626953125;0.3037109375;-0.4833984375;-11.9375;-4.3125;9.5;
1441975292450751;-0.87506103515625;0.08465576171875;-0.3817138671875;-0.2855224609375;4.425039264954987;16.071706470268808;9.287080032833702;0.60986328125;0.2392578125;-0.46337890625;-4.8125;-2.6875;9.25;
1441975292471752;-0.875;0.08685302734375;-0.383544921875;-0.2825927734375;4.392939250390283;16.096184708688444;9.267855404278318;0.61767578125;0.24169921875;-0.46337890625;2.1875;-0.125;10.3125;
1441975292492753;-0.87335205078125;0.089599609375;-0.3887939453125;-0.27947998046875;4.318396511094161;16.115076605146186;9.254913893835406;0.63427734375;0.28076171875;-0.47265625;7.125;3.8125;15.3125;
1441975292509754;-0.871337890625;0.09368896484375;-0.395263671875;-0.275390625;4.223801118776145;16.143201338807845;9.232220188419584;0.740234375;0.2314453125;-0.365234375;7.6875;14.5;20.125;
1441975292539756;-0.8690185546875;0.09796142578125;-0.40252685546875;-0.270751953125;4.118740774413845;16.175222055819887;9.207706646336103;1.111328125;0.38134765625;-0.5517578125;10.1875;14.6875;29.1875;
1441975292552757;-0.865478515625;0.1031494140625;-0.41143798828125;-0.26678466796875;3.99053543601447;16.201208527460285;9.183114157576682;1.076171875;0.34716796875;-0.65869140625;8.4375;27.0625;33.0625;
1441975292569758;-0.8602294921875;0.1097412109375;-0.422607421875;-0.26348876953125;3.8292102213741583;16.221023353054665;9.156788199931064;1.1416015625;0.29736328125;-0.638671875;1.0625;35.0;36.5625;
1441975292593759;-0.8536376953125;0.1171875;-0.4365234375;-0.259033203125;3.6301649320513856;16.24807890347053;9.126212886967702;1.2314453125;0.24560546875;-0.53271484375;-5.5;41.375;42.625;
1441975292620761;-0.84588623046875;0.12493896484375;-0.45196533203125;-0.2542724609375;3.4094969413156413;16.276812932940924;9.094435403157522;1.373046875;0.1875;-0.4638671875;-2.1875;49.3125;50.25;
1441975292636762;-0.83709716796875;0.13275146484375;-0.46868896484375;-0.24920654296875;3.1708548812981743;16.307662571786658;9.061854718205389;1.4873046875;0.1650390625;-0.3642578125;0.125;52.8125;54.25;
1441975292651762;-0.8275146484375;0.14044189453125;-0.48577880859375;-0.24420166015625;2.9253539449564747;16.33929321730514;9.028256764016083;1.50146484375;0.1005859375;-0.205078125;2.4375;54.6875;56.25;
1441975292672764;-0.8175048828125;0.1483154296875;-0.50225830078125;-0.23980712890625;2.6841658847498233;16.3714127729667;8.989805345221002;1.470703125;0.05859375;-0.0771484375;3.0;55.0;57.75;
1441975292689765;-0.807373046875;0.1571044921875;-0.5179443359375;-0.23504638671875;2.4472496100417565;16.4222489327666;8.929444389243036;1.37109375;0.05322265625;0.0048828125;-0.25;53.9375;60.5;
1441975292711766;-0.79766845703125;0.166015625;-0.53265380859375;-0.229248046875;2.2214167439550194;16.501624007583835;8.843608891878853;1.2646484375;0.01708984375;0.041015625;-2.0625;52.375;66.9375;
1441975292735767;-0.788330078125;0.1749267578125;-0.54620361328125;-0.22296142578125;2.010331234108173;16.60885728617652;8.730959720501144;1.16015625;0.009765625;-0.0029296875;0.8125;52.875;71.9375;
1441975292749768;-0.77911376953125;0.1845703125;-0.55853271484375;-0.216796875;1.8138337459598413;16.749292818176677;8.580494945995717;1.02392578125;0.02099609375;-0.05810546875;2.0625;54.6875;76.5625;
1441975292771769;-0.76898193359375;0.19525146484375;-0.57073974609375;-0.21173095703125;1.6172052485041442;16.917511796150794;8.392708034148258;0.86767578125;0.0185546875;-0.12255859375;-2.3125;56.875;80.875;
1441975292792771;-0.75830078125;0.2060546875;-0.5826416015625;-0.20770263671875;1.42702338249848;17.115725587050957;8.16947613133102;0.966796875;0.0283203125;-0.14990234375;-11.875;60.9375;84.75;
1441975292815772;-0.747314453125;0.21795654296875;-0.593505859375;-0.20452880859375;1.2534853049583348;17.375000006691216;7.876063749727002;1.2412109375;0.1474609375;-0.2900390625;-16.25;68.8125;90.5625;
1441975292831773;-0.7344970703125;0.23248291015625;-0.6051025390625;-0.20086669921875;1.0808935391342143;17.790231367651067;7.417171272131302;1.21923828125;0.18359375;-0.31982421875;-24.5625;70.0625;97.1875;
1441975292852774;-0.7205810546875;0.2489013671875;-0.61639404296875;-0.19744873046875;0.9425537697935917;0.39103930735082426;6.762798263165905;1.2197265625;0.2412109375;-0.31201171875;-33.625;72.8125;107.875;
1441975292869775;-0.7056884765625;0.26568603515625;-0.62774658203125;-0.19342041015625;0.8620258541022237;1.1918540883485473;5.908269090858785;1.2197265625;0.201171875;-0.298828125;-42.8125;74.125;116.375;
1441975292892776;-0.69024658203125;0.28155517578125;-0.6395263671875;-0.1881103515625;0.8622884063744043;2.1027419055695393;4.951975408588433;1.20947265625;0.14794921875;-0.279296875;-42.5625;76.5;121.375;
1441975292912777;-0.67431640625;0.29656982421875;-0.65142822265625;-0.181884765625;0.9486384130891272;2.943463315006043;4.072110778321601;1.1796875;0.13330078125;-0.29296875;-34.25;80.4375;124.3125;
1441975292929778;-0.657958984375;0.311767578125;-0.6627197265625;-0.17547607421875;1.1066879392790157;3.5874907573577817;3.3874345776853794;1.14111328125;0.154296875;-0.29248046875;-27.375;82.625;125.875;
1441975292968781;-0.64044189453125;0.32879638671875;-0.673095703125;-0.1693115234375;1.3220226412378246;4.040192671517326;2.883079470285495;1.1142578125;0.24853515625;-0.2841796875;-28.875;81.5625;130.1875;
1441975292972781;-0.62237548828125;0.34716796875;-0.68212890625;-0.1639404296875;1.5664510872448452;4.333329497318785;2.5271322921670247;1.0703125;0.26708984375;-0.314453125;-39.0625;82.1875;137.875;
1441975292989782;-0.6043701171875;0.364013671875;-0.69097900390625;-0.15777587890625;1.8200266813761756;4.5419681384504464;2.2639870192940044;1.02294921875;0.1552734375;-0.29736328125;-50.25;79.5625;138.125;
1441975293017783;-0.58685302734375;0.37835693359375;-0.69989013671875;-0.15057373046875;2.0716549668783477;4.70235821984525;2.063073765465281;0.9736328125;0.119140625;-0.2783203125;-41.6875;78.75;135.5625;
1441975293041785;-0.57025146484375;0.39215087890625;-0.70745849609375;-0.14361572265625;2.3159739845609257;4.807614205025748;1.9174683672705046;0.92578125;0.111328125;-0.27294921875;-27.375;76.8125;130.3125;
1441975293049785;-0.55419921875;0.40789794921875;-0.71240234375;-0.1378173828125;2.557366580941954;4.852569280234343;1.8165511499240856;0.85400390625;0.2529296875;-0.24267578125;-28.3125;69.9375;126.625;
1441975293080787;-0.5384521484375;0.42572021484375;-0.71484375;-0.13397216796875;2.789789055593134;4.85464256163309;1.7389162428333145;0.857421875;0.2431640625;-0.28466796875;-45.4375;60.5625;125.125;
1441975293094788;-0.52362060546875;0.4410400390625;-0.71734619140625;-0.12969970703125;3.00542761917996;4.859636102893254;1.670520934818895;0.8623046875;0.08349609375;-0.2490234375;-65.1875;53.6875;119.125;
1441975293109789;-0.51373291015625;0.4522705078125;-0.71783447265625;-0.1275634765625;3.1470162679834566;4.847038979443626;1.6318094653153898;0.8623046875;0.01220703125;-0.20849609375;-53.3125;50.25;110.375;
1441975293133790;-0.50506591796875;0.46221923828125;-0.71783447265625;-0.12652587890625;3.26433230144878;4.832977393110181;1.5962507818297729;0.8388671875;0.02880859375;-0.21875;-38.1875;45.6875;99.6875;
1441975293154791;-0.49658203125;0.47320556640625;-0.716796875;-0.12548828125;3.383868666617563;4.804225603227216;1.5695530339156527;0.8046875;0.1494140625;-0.21044921875;-37.0;41.4375;94.75;
1441975293169792;-0.48760986328125;0.48345947265625;-0.71636962890625;-0.12408447265625;3.5061801434866364;4.785131657253557;1.5372569126417268;0.7578125;0.06640625;-0.2373046875;-42.125;38.625;90.75;
1441975293191793;-0.4794921875;0.48992919921875;-0.71783447265625;-0.1217041015625;3.613680507788131;4.792724297380662;1.5013337724066462;0.7021484375;-0.04736328125;-0.16064453125;-39.125;36.6875;84.125;
1441975293229796;-0.4727783203125;0.49371337890625;-0.7200927734375;-0.119384765625;3.699143753864858;4.8125264416904265;1.4673000141754506;0.67041015625;-0.0615234375;-0.1171875;-16.875;35.75;75.25;
1441975293235796;-0.46710205078125;0.49603271484375;-0.7225341796875;-0.11749267578125;3.7675847317887396;4.83647412323116;1.4353960022020271;0.6552734375;-0.04931640625;-0.08544921875;-3.5;32.625;64.875;
1441975293250797;-0.46209716796875;0.4967041015625;-0.7255859375;-0.115478515625;3.825588014361518;4.86911277518242;1.4040359577053838;0.62890625;-0.05322265625;-0.06640625;1.5625;29.875;55.3125;
1441975293273798;-0.4580078125;0.4962158203125;-0.728759765625;-0.11395263671875;3.8685813129680953;4.904989192266222;1.3740455300985739;0.568359375;-0.0595703125;-0.0419921875;9.75;27.9375;47.4375;
1441975293296799;-0.4549560546875;0.49493408203125;-0.73162841796875;-0.11322021484375;3.894436784464798;4.93994639861829;1.346425853103683;0.5244140625;-0.0283203125;-0.001953125;13.0;24.75;39.75;
1441975293318801;-0.45269775390625;0.493896484375;-0.73370361328125;-0.11334228515625;3.9084011583432208;4.966888508366155;1.3226273082737563;0.49072265625;0.0087890625;-0.0107421875;13.75;22.8125;32.0;
1441975293333801;-0.4522705078125;0.49237060546875;-0.73492431640625;-0.11395263671875;3.9020230783512173;4.985154154170496;1.3094182950551585;0.470703125;-0.033203125;0.01171875;8.125;18.3125;23.0;
1441975293364803;-0.4530029296875;0.48858642578125;-0.7369384765625;-0.11419677734375;3.8810465404360275;5.01556649231311;1.297913686323544;0.51416015625;-0.10498046875;0.017578125;8.125;10.375;12.0625;
1441975293370804;-0.4556884765625;0.48089599609375;-0.7403564453125;-0.11407470703125;3.8333130945659937;5.068245653809668;1.2869565639491825;0.56005859375;-0.1298828125;0.013671875;21.9375;8.9375;5.25;
1441975293393805;-0.4609375;0.4710693359375;-0.7430419921875;-0.11639404296875;3.73798306427182;5.124448308341407;1.274616262194551;0.61767578125;-0.1103515625;-0.0185546875;45.875;8.1875;-4.5;
1441975293416806;-0.46875;0.46258544921875;-0.74237060546875;-0.12335205078125;3.5898168190247324;5.1535767456101835;1.264663695752902;0.62060546875;0.0673828125;-0.07080078125;48.75;7.125;-18.8125;
1441975293438807;-0.4791259765625;0.45770263671875;-0.73687744140625;-0.13427734375;3.4006656008699716;5.129744924606859;1.2744607427747934;0.6650390625;0.1005859375;-0.05859375;22.4375;-1.625;-41.4375;
1441975293453808;-0.49310302734375;0.45318603515625;-0.72796630859375;-0.1468505859375;3.167917580967073;5.065363885559939;1.3176740322963312;0.7060546875;-0.0068359375;-0.0419921875;-14.3125;-17.9375;-64.5625;
1441975293475810;-0.50933837890625;0.44512939453125;-0.71905517578125;-0.1595458984375;2.9017854370759077;5.004142379637141;1.3749912766780978;0.81640625;-0.2265625;-0.0439453125;-24.75;-38.3125;-93.0;
1441975293490810;-0.52978515625;0.43328857421875;-0.7080078125;-0.17413330078125;2.5700122182804446;4.9188988893214125;1.4672448985941215;0.9033203125;-0.171875;0.01171875;-11.625;-52.3125;-120.75;
1441975293513812;-0.55377197265625;0.41766357421875;-0.69482421875;-0.19024658203125;2.181453987219393;4.7924198912594065;1.6115512480094185;0.98486328125;-0.08740234375;-0.05322265625;-2.8125;-66.5625;-150.8125;
1441975293535813;-0.580322265625;0.39703369140625;-0.68035888671875;-0.20684814453125;1.7479207511233228;4.607457175553811;1.8330432030047878;1.11279296875;-0.03515625;-0.0673828125;6.3125;-79.9375;-179.125;
1441975293558814;-0.6094970703125;0.37127685546875;-0.66412353515625;-0.22296142578125;1.2833124625959396;4.260343087377841;2.238403494783965;1.29736328125;-0.03271484375;-0.10986328125;24.1875;-87.6875;-205.125;
1441975293573815;-0.640625;0.34307861328125;-0.64288330078125;-0.2420654296875;0.8193978210886732;3.3386375157504227;3.2105655667406583;1.44091796875;-0.01953125;-0.16064453125;45.125;-98.4375;-228.875;
1441975293595816;-0.67138671875;0.3199462890625;-0.61236572265625;-0.26824951171875;0.6360552386662913;0.8299372961456684;5.7084097600246775;1.54052734375;0.4736328125;-0.14306640625;35.6875;-115.125;-253.375;
1441975293610817;-0.697509765625;0.30120849609375;-0.575927734375;-0.3018798828125;0.9863583491204272;16.71709014141815;7.748729055502341;1.84619140625;0.748046875;-0.17333984375;-27.375;-142.3125;-270.5;
1441975293633819;-0.72314453125;0.276611328125;-0.539794921875;-0.3304443359375;1.5530983560161016;15.89825836645801;8.534527209050214;2.12255859375;0.365234375;-0.01513671875;-89.6875;-147.0625;-290.8125;
1441975293665820;-0.75396728515625;0.23883056640625;-0.50341796875;-0.3480224609375;2.228540426609511;15.571615641747808;8.926420955374574;2.189453125;-0.2607421875;-0.32275390625;-52.8125;-139.8125;-311.0625;
1441975293672821;-0.7884521484375;0.1871337890625;-0.46856689453125;-0.35186767578125;2.947836643009537;15.477159611308775;9.201906986916269;2.3095703125;-0.3310546875;-0.5185546875;40.8125;-148.3125;-346.25;
1441975293693822;-0.8187255859375;0.1353759765625;-0.4342041015625;-0.3507080078125;3.6311650971558573;15.47735082711717;9.402233460771871;2.33984375;0.283203125;-0.65283203125;151.375;-144.5;-363.4375;
1441975293717823;-0.84259033203125;0.0850830078125;-0.402587890625;-0.34771728515625;4.248375606196009;15.500042393251789;9.583309585232104;2.30224609375;0.50341796875;-0.5654296875;167.4375;-140.625;-344.875;
1441975293732824;-0.86199951171875;0.03375244140625;-0.378662109375;-0.33544921875;4.751521649910542;15.572780400120605;9.770000696665024;2.26220703125;0.861328125;-0.30712890625;162.9375;-109.25;-311.125;
1441975293753826;-0.87628173828125;-0.01483154296875;-0.3658447265625;-0.3133544921875;5.081744711193104;15.687361881201753;9.961265383815876;2.21044921875;0.3525390625;-0.1572265625;204.875;-64.25;-277.0;
