1441975346126821;-0.933349609375;-0.2431640625;-0.23004150390625;-0.1300048828125;6.852100628784116;16.880273750909357;10.67527563464008;1.1484375;0.72705078125;-0.49560546875;463.0625;35.8125;-194.125;
1441975346148822;-0.93115234375;-0.27520751953125;-0.218017578125;-0.09881591796875;6.941496051035588;17.05252386367679;10.820125667369663;0.92724609375;1.3359375;-0.37646484375;404.0625;17.3125;-169.0625;
1441975346163823;-0.927001953125;-0.295166015625;-0.2117919921875;-0.093994140625;7.029812350349931;17.073331861203886;10.928482144419778;0.81884765625;1.4931640625;-0.18408203125;245.875;-6.1875;-138.0;
1441975346186824;-0.920654296875;-0.30645751953125;-0.21783447265625;-0.105224609375;7.033064117919054;16.983189092590834;11.019185874154184;0.79638671875;1.08984375;-0.1376953125;73.75;-21.0;-108.5625;
1441975346209826;-0.91571044921875;-0.31304931640625;-0.2249755859375;-0.1136474609375;7.007123129757374;16.910509658990666;11.081051419715857;0.76318359375;0.46728515625;-0.14013671875;-34.375;-17.1875;-87.25;
1441975346223827;-0.91156005859375;-0.319091796875;-0.2322998046875;-0.115478515625;6.952534328218427;16.874167498818185;11.135156710537478;0.6787109375;0.12939453125;-0.15673828125;-48.375;-4.8125;-62.5;
1441975346246828;-0.90753173828125;-0.3253173828125;-0.24066162109375;-0.11297607421875;6.869922260615187;16.8581561477681;11.189606382957924;0.65283203125;0.10302734375;-0.2470703125;-17.8125;11.3125;-50.4375;
1441975346268829;-0.90289306640625;-0.32989501953125;-0.2520751953125;-0.1116943359375;6.757494645196567;16.82704832875576;11.242794397205904;0.685546875;0.22216796875;-0.31396484375;8.6875;24.375;-42.75;
1441975346291831;-0.89727783203125;-0.33270263671875;-0.267822265625;-0.1123046875;6.605640191716715;16.772631855454694;11.298555136536665;0.71337890625;0.32861328125;-0.3779296875;-1.875;38.875;-33.25;
1441975346306831;-0.89044189453125;-0.3345947265625;-0.28692626953125;-0.1136474609375;6.422141025777942;16.701333406035378;11.361528769139527;0.765625;0.35595703125;-0.43505859375;-23.4375;57.75;-26.0;
1441975346329833;-0.882568359375;-0.33544921875;-0.3092041015625;-0.11419677734375;6.202244683130946;16.620641276756796;11.431080561652085;0.80419921875;0.35546875;-0.45068359375;-37.625;75.25;-23.9375;
1441975346343833;-0.8746337890625;-0.3363037109375;-0.330078125;-0.1142578125;5.99669921387823;16.541956094778747;11.502367715401986;0.8466796875;0.30712890625;-0.4345703125;-45.125;93.875;-19.9375;
1441975346366835;-0.86627197265625;-0.33563232421875;-0.352783203125;-0.11199951171875;5.758890265844901;16.465751559082477;11.573767920951045;0.908203125;0.318359375;-0.46435546875;-43.4375;111.9375;-9.75;
1441975346389836;-0.85760498046875;-0.33416748046875;-0.375732421875;-0.1085205078125;5.511916816458253;16.38974049316946;11.647055715181342;0.94384765625;0.26953125;-0.48779296875;-39.75;126.25;1.9375;
1441975346403837;-0.84930419921875;-0.330078125;-0.39849853515625;-0.10491943359375;5.258512035845116;16.31255082266273;11.710311231872359;0.912109375;0.21044921875;-0.3642578125;-35.75;129.9375;7.5;
1441975346426838;-0.8408203125;-0.32275390625;-0.42236328125;-0.10247802734375;4.990280062248086;16.22158890554087;11.767596970592793;0.8955078125;0.19873046875;-0.27783203125;-39.75;126.6875;21.4375;
1441975346449840;-0.83154296875;-0.3128662109375;-0.447998046875;-0.1002197265625;4.69776532769523;16.115601703143813;11.827971122817093;1.01220703125;0.2587890625;-0.2578125;-54.375;127.6875;34.5;
1441975346463840;-0.8214111328125;-0.29876708984375;-0.47509765625;-0.1021728515625;4.399898928474349;15.972061200574034;11.890166790254018;1.20703125;0.4130859375;-0.44580078125;-65.1875;137.625;46.5625;
1441975346486842;-0.81097412109375;-0.28179931640625;-0.5020751953125;-0.10479736328125;4.096050410868919;15.815145625323051;11.952586167856778;1.234375;0.3759765625;-0.48828125;-100.375;138.125;54.6875;
1441975346509843;-0.80078125;-0.264892578125;-0.5267333984375;-0.10577392578125;3.8046040433258552;15.665595458181505;12.017902802340036;1.1572265625;0.16748046875;-0.34326171875;-112.25;135.6875;64.1875;
1441975346530844;-0.79095458984375;-0.24664306640625;-0.5499267578125;-0.1058349609375;3.5147154600664274;15.517972151069426;12.081502923271408;1.12744140625;0.03662109375;-0.255859375;-101.3125;127.3125;65.9375;
1441975346546845;-0.7811279296875;-0.22528076171875;-0.57257080078125;-0.1068115234375;3.2194643964128775;15.356536175568728;12.143614809159986;1.19921875;0.17822265625;-0.255859375;-97.5;120.625;76.125;
1441975346570846;-0.77166748046875;-0.19921875;-0.59405517578125;-0.1099853515625;2.920650647839704;15.180604584664888;12.193222432687811;1.2431640625;0.26025390625;-0.3447265625;-110.625;117.375;88.1875;
1441975346590848;-0.7626953125;-0.1683349609375;-0.61407470703125;-0.11370849609375;2.605545794523843;15.002939367969635;12.224275414221617;1.13525390625;0.3017578125;-0.3466796875;-134.4375;106.9375;103.875;
1441975346606849;-0.754150390625;-0.1351318359375;-0.632080078125;-0.1163330078125;2.2799118012383635;14.833529695651574;12.244164996228772;1.08642578125;0.2451171875;-0.28857421875;-151.25;95.625;123.0625;
1441975346629850;-0.7459716796875;-0.1016845703125;-0.6478271484375;-0.11669921875;1.9492942033543237;14.679129059466536;12.259151652634358;1.12548828125;0.15380859375;-0.27783203125;-152.625;85.5;135.3125;
1441975346659852;-0.738525390625;-0.070068359375;-0.66094970703125;-0.1134033203125;1.6194203017119795;14.557302874079818;12.265336538681499;1.1015625;0.1142578125;-0.27392578125;-141.875;77.125;143.25;
1441975346666852;-0.73211669921875;-0.0399169921875;-0.67156982421875;-0.1070556640625;1.2906847015877876;14.482566200210389;12.243595372057374;1.0576171875;0.1171875;-0.26611328125;-117.25;66.875;149.0;
1441975346689853;-0.7264404296875;-0.0107421875;-0.68017578125;-0.09820556640625;0.960153341677077;14.47252137729174;12.171671621715515;1.02734375;0.14404296875;-0.2744140625;-96.4375;55.3125;154.6875;
1441975346711855;-0.72113037109375;0.0172119140625;-0.68707275390625;-0.087890625;0.636008589963202;14.572969679918158;12.000189386645145;1.01025390625;0.1552734375;-0.271484375;-81.5;45.75;160.0625;
1441975346726855;-0.716064453125;0.0435791015625;-0.69256591796875;-0.07623291015625;0.3260041009591456;15.043907415759003;11.469929568876145;0.9716796875;0.13427734375;-0.248046875;-69.8125;38.0;161.0;
1441975346749857;-0.7113037109375;0.0679931640625;-0.69671630859375;-0.06341552734375;0.1238844351376405;0.6045176932442379;7.862292682293372;0.9453125;0.1298828125;-0.23583984375;-58.0;31.5625;159.5625;
1441975346772858;-0.70697021484375;0.09063720703125;-0.69970703125;-0.0501708984375;0.3331575077409653;3.705411739733024;4.722962824037346;0.92333984375;0.1181640625;-0.2314453125;-45.3125;25.8125;156.125;
1441975346786859;-0.7027587890625;0.1116943359375;-0.70166015625;-0.0367431640625;0.6076610021790103;4.156342329734469;4.240320357305277;0.8935546875;0.12841796875;-0.21484375;-36.8125;19.6875;151.0625;
1441975346809860;-0.6986083984375;0.13116455078125;-0.7030029296875;-0.024169921875;0.8684993625877252;4.301396075482277;4.066200482048114;0.91064453125;0.1357421875;-0.2080078125;-29.875;15.125;145.6875;
1441975346832861;-0.694580078125;0.1494140625;-0.70367431640625;-0.01312255859375;1.10847987195213;4.359351608571056;3.9776035248599753;0.91845703125;0.13720703125;-0.22216796875;-27.1875;13.375;136.6875;
1441975346846862;-0.69091796875;0.1663818359375;-0.70355224609375;-0.003173828125;1.329354997218791;4.374695683254073;3.932039743038944;0.89208984375;0.12548828125;-0.20849609375;-28.75;11.8125;125.8125;
1441975346869864;-0.68804931640625;0.181640625;-0.70257568359375;0.00616455078125;1.5308083784770714;4.361552576480205;3.9192614336251674;0.87158203125;0.12451171875;-0.19873046875;-28.625;7.4375;116.3125;
1441975346890865;-0.68743896484375;0.19268798828125;-0.70013427734375;0.01300048828125;1.6757516823642167;4.307663460478215;3.954475822299714;0.86376953125;0.0947265625;-0.18212890625;-24.5;1.625;106.125;
1441975346914866;-0.68768310546875;0.2008056640625;-0.697509765625;0.019287109375;1.7923442592792496;4.254540723132244;3.9988973984787917;0.86962890625;0.05712890625;-0.16357421875;-17.0625;-4.25;93.375;
1441975346929867;-0.68890380859375;0.20526123046875;-0.69482421875;0.02447509765625;1.8703361156863472;4.201629758511477;4.054008589944594;0.900390625;0.02099609375;-0.14013671875;-7.75;-9.9375;77.875;
1441975346950868;-0.69140625;0.2060546875;-0.69189453125;0.0283203125;1.907891126390925;4.139889559966572;4.127952956504053;0.9833984375;0.02685546875;-0.08935546875;1.375;-17.125;61.0;
1441975346966869;-0.69482421875;0.20404052734375;-0.68902587890625;0.0299072265625;1.9049254452350497;4.0704126270545995;4.212389797082855;1.11767578125;0.02685546875;-0.095703125;10.1875;-23.0625;43.3125;
1441975346989870;-0.698974609375;0.20068359375;-0.68585205078125;0.0291748046875;1.8738014974055064;3.9836247719226443;4.310370274422324;1.1455078125;0.076171875;-0.12451171875;13.125;-22.875;25.9375;
1441975347011872;-0.70355224609375;0.19720458984375;-0.6822509765625;0.0264892578125;1.8284659213734098;3.876879693468079;4.420839121695771;1.12255859375;0.08984375;-0.14404296875;9.625;-23.4375;10.4375;
1441975347026873;-0.708251953125;0.19451904296875;-0.6783447265625;0.02215576171875;1.7793809632969728;3.7527661664908925;4.538643638899558;1.02099609375;0.11376953125;-0.16015625;1.5;-24.3125;0.4375;
1441975347049874;-0.712646484375;0.192626953125;-0.6744384765625;0.01727294921875;1.7352414820135176;3.6239183105066024;4.655575819463759;0.9931640625;0.1279296875;-0.15234375;-8.375;-24.8125;-3.125;
1441975347070875;-0.71624755859375;0.19085693359375;-0.67120361328125;0.012939453125;1.6972839596849374;3.5114633987779094;4.75780169129047;1.025390625;0.11865234375;-0.189453125;-13.0625;-21.5;-2.5625;
1441975347086876;-0.7191162109375;0.18853759765625;-0.66876220703125;0.009765625;1.663640820936466;3.4206253546915506;4.84539195958813;1.0361328125;0.095703125;-0.177734375;-10.6875;-17.75;-1.0625;
1441975347110877;-0.7218017578125;0.1851806640625;-0.66693115234375;0.0068359375;1.6234777403087615;3.336708968536535;4.9314890950666035;1.02490234375;0.08203125;-0.14111328125;-3.9375;-15.875;-0.0625;
1441975347130878;-0.724365234375;0.181640625;-0.66510009765625;0.0030517578125;1.5766117474141497;3.2442600871326968;5.023329153786051;0.97607421875;0.08837890625;-0.11572265625;1.5;-14.625;-4.25;
1441975347146879;-0.72625732421875;0.178955078125;-0.663818359375;-0.0018310546875;1.5261798560451865;3.158582554428715;5.100416994644132;0.95166015625;0.09765625;-0.1279296875;-1.3125;-12.4375;-8.5625;
1441975347169881;-0.7269287109375;0.1763916015625;-0.6636962890625;-0.00634765625;1.47402837852403;3.105782556857476;5.145594456320251;0.94384765625;0.03515625;-0.13916015625;-8.625;-6.1875;-13.8125;
1441975347191882;-0.7266845703125;0.1727294921875;-0.6649169921875;-0.009765625;1.4156558047767096;3.0885412092920492;5.164343372779758;0.9033203125;-0.07958984375;-0.1064453125;-8.375;1.5;-19.6875;
1441975347214883;-0.726318359375;0.16796875;-0.66650390625;-0.0120849609375;1.355974438143049;3.0820839591476688;5.18132382073086;0.87109375;-0.11962890625;-0.078125;1.0625;7.5625;-23.0;
1441975347228884;-0.72613525390625;0.16278076171875;-0.66790771484375;-0.0145263671875;1.2933048276871308;3.065444532478567;5.2097072864594125;0.85986328125;-0.12939453125;-0.08642578125;10.125;9.75;-24.4375;
1441975347267886;-0.72589111328125;0.1573486328125;-0.66937255859375;-0.01776123046875;1.222538246272657;3.040185801590953;5.244474749434182;0.84033203125;-0.12841796875;-0.0859375;11.4375;8.6875;-27.9375;
1441975347269886;-0.7255859375;0.15240478515625;-0.67071533203125;-0.021728515625;1.1503191105683288;3.005696023813036;5.283436113594413;0.80419921875;-0.11669921875;-0.0537109375;8.4375;8.375;-32.125;
1441975347288888;-0.72528076171875;0.14849853515625;-0.6717529296875;-0.0264892578125;1.0811635879754926;2.958625625058562;5.327424780023626;0.7890625;-0.11572265625;-0.04248046875;3.3125;8.3125;-33.6875;
1441975347313889;-0.72515869140625;0.1455078125;-0.67236328125;-0.03167724609375;1.0180157649878732;2.8946048933520827;5.382824790920854;0.7958984375;-0.1240234375;-0.02978515625;-4.3125;6.75;-33.875;
1441975347326890;-0.7249755859375;0.14312744140625;-0.67279052734375;-0.0369873046875;0.9594427184468037;2.8237899360175236;5.441948577910709;0.8154296875;-0.13623046875;-0.03271484375;-10.25;4.8125;-33.0625;
1441975347363892;-0.72491455078125;0.1412353515625;-0.6729736328125;-0.04229736328125;0.9063248242829487;2.7410738213616175;5.510951829906464;0.845703125;-0.1357421875;-0.03955078125;-13.1875;4.3125;-31.125;
1441975347379893;-0.72479248046875;0.13970947265625;-0.67303466796875;-0.04736328125;0.8585572982133414;2.655387887912017;5.582345745395393;0.87060546875;-0.1220703125;-0.0439453125;-15.0625;3.375;-28.875;
1441975347386893;-0.72491455078125;0.138916015625;-0.6727294921875;-0.0523681640625;0.8195562973088435;2.5559216663914346;5.664759354527825;0.89306640625;-0.1083984375;-0.03857421875;-15.4375;2.0625;-25.6875;
1441975347408894;-0.72528076171875;0.13916015625;-0.67181396484375;-0.05810546875;0.7873696501700507;2.427637557433577;5.768675881091985;0.93212890625;-0.09814453125;-0.0498046875;-18.0625;0.3125;-22.5;
1441975347432896;-0.72589111328125;0.1407470703125;-0.67022705078125;-0.06463623046875;0.7645746060827223;2.272558108004672;5.890564832403239;0.978515625;-0.0849609375;-0.0751953125;-25.5;-2.0;-20.6875;
1441975347453897;-0.726318359375;0.14398193359375;-0.6683349609375;-0.0716552734375;0.7516414611571681;2.124598484940617;5.996470905138218;0.998046875;-0.087890625;-0.1015625;-34.25;-3.5;-19.0625;
1441975347468898;-0.72650146484375;0.14862060546875;-0.6663818359375;-0.07830810546875;0.7501015685497123;2.0107535923898485;6.063912770850453;0.99072265625;-0.11474609375;-0.107421875;-43.0;-4.375;-16.1875;
1441975347491899;-0.72674560546875;0.15362548828125;-0.664306640625;-0.083984375;0.7583966622823897;1.9213927990975646;6.109275746619149;0.9755859375;-0.1552734375;-0.11083984375;-47.5;-4.3125;-12.3125;
1441975347513900;-0.7271728515625;0.1580810546875;-0.66217041015625;-0.08837890625;0.7728362987875464;1.8469473923480209;6.147129256263584;0.97705078125;-0.19775390625;-0.14111328125;-45.3125;-4.5;-10.0625;
1441975347537902;-0.72784423828125;0.16156005859375;-0.66015625;-0.091552734375;0.7896541836849487;1.7815111017135983;6.185011378833129;0.97265625;-0.22314453125;-0.16259765625;-37.5;-4.9375;-9.625;
1441975347551903;-0.728759765625;0.16455078125;-0.65814208984375;-0.09356689453125;0.811969364306018;1.730271202098795;6.215453361122941;0.95947265625;-0.2119140625;-0.1669921875;-28.625;-6.0;-8.4375;
1441975347574904;-0.72967529296875;0.16729736328125;-0.65631103515625;-0.09466552734375;0.8372008545946614;1.7004724951935068;6.229215956158271;0.95166015625;-0.2001953125;-0.18017578125;-21.75;-6.5;-5.625;
1441975347602905;-0.73052978515625;0.1697998046875;-0.6546630859375;-0.0947265625;0.8656300650037806;1.6943685047982617;6.224487318904626;0.9482421875;-0.2001953125;-0.17431640625;-17.0;-7.75;-3.0;
1441975347611906;-0.73114013671875;0.17193603515625;-0.65362548828125;-0.09356689453125;0.8940197688679049;1.723019601283805;6.191612675711828;0.970703125;-0.201171875;-0.1748046875;-11.375;-7.75;0.125;
1441975347633907;-0.73175048828125;0.17364501953125;-0.65277099609375;-0.091796875;0.9225491139504872;1.758437814912276;6.15625124535922;1.052734375;-0.216796875;-0.177734375;-4.875;-6.3125;3.6875;
1441975347648908;-0.7322998046875;0.17529296875;-0.6519775390625;-0.0897216796875;0.9520156785511691;1.7987182871362906;6.117489675595633;1.14306640625;-0.1982421875;-0.1904296875;-0.125;-5.6875;6.3125;
1441975347671909;-0.73284912109375;0.17767333984375;-0.65087890625;-0.08807373046875;0.9851896503858156;1.833739416412533;6.079123361769022;1.16845703125;-0.1826171875;-0.203125;1.6875;-5.375;8.6875;
1441975347686910;-0.733154296875;0.18145751953125;-0.649658203125;-0.0870361328125;1.0226317064838424;1.8762907565829174;6.024898553623444;1.1337890625;-0.17138671875;-0.232421875;-2.75;-4.375;11.5;
1441975347708912;-0.733154296875;0.1856689453125;-0.64862060546875;-0.08612060546875;1.0596644382705231;1.926760787936686;5.960460085898638;1.09375;-0.19482421875;-0.25;-11.0;-2.6875;13.375;
1441975347731913;-0.7332763671875;0.18927001953125;-0.64764404296875;-0.08447265625;1.09822126825137;1.9767228096587945;5.9020272852201945;1.04736328125;-0.2353515625;-0.26416015625;-13.0625;0.25;13.0;
1441975347746914;-0.73382568359375;0.191650390625;-0.6466064453125;-0.0821533203125;1.1361216149113391;2.0121166295515183;5.86600317110594;1.02685546875;-0.2509765625;-0.2861328125;-7.8125;1.0;12.125;
1441975347768915;-0.73468017578125;0.19317626953125;-0.64544677734375;-0.0799560546875;1.1700803594544946;2.028126792213973;5.852433183969031;1.05859375;-0.2119140625;-0.30126953125;0.625;-0.3125;12.3125;
1441975347791916;-0.73577880859375;0.19451904296875;-0.6439208984375;-0.07879638671875;1.1993410252915204;2.0176594061580966;5.861830975664659;1.12060546875;-0.1533203125;-0.31787109375;3.9375;-1.375;12.6875;
1441975347813918;-0.7373046875;0.1962890625;-0.64166259765625;-0.078857421875;1.2294875263907532;1.9777428053093022;5.893848946486919;1.1396484375;-0.11181640625;-0.33447265625;0.625;-2.25;11.25;
1441975347828918;-0.7392578125;0.19842529296875;-0.638671875;-0.07965087890625;1.2636385966017212;1.9165215440838304;5.942532274776726;1.0703125;-0.12353515625;-0.33056640625;-6.9375;-5.375;6.25;
1441975347851920;-0.74169921875;0.20025634765625;-0.6351318359375;-0.08038330078125;1.3023999032670215;1.8421026732317816;6.005818734176356;0.94140625;-0.16455078125;-0.2890625;-12.9375;-11.4375;0.0625;
1441975347872921;-0.74468994140625;0.201416015625;-0.6312255859375;-0.08062744140625;1.3458659738215561;1.7603242415660771;6.081239968371604;0.833984375;-0.18896484375;-0.25146484375;-12.6875;-17.5;-4.3125;
1441975347888922;-0.74798583984375;0.20208740234375;-0.6270751953125;-0.0806884765625;1.39171427091369;1.6747406103303206;6.163194876937885;0.7724609375;-0.1787109375;-0.24658203125;-8.6875;-21.25;-6.0;
1441975347911923;-0.7515869140625;0.20233154296875;-0.6226806640625;-0.08087158203125;1.4388385433751907;1.5826087333996541;6.2529652701840535;0.74853515625;-0.1376953125;-0.25;-5.5625;-23.5;-5.5;
1441975347932924;-0.75543212890625;0.20245361328125;-0.61785888671875;-0.08148193359375;1.4885466810908778;1.4822186358620197;6.349619155400352;0.75;-0.091796875;-0.24755859375;-4.125;-25.875;-5.0625;
1441975347948925;-0.75958251953125;0.20281982421875;-0.612548828125;-0.0826416015625;1.5432720010177443;1.3754296135485815;6.4493394633575445;0.76904296875;-0.0478515625;-0.26025390625;-5.125;-28.4375;-5.0;
1441975347971927;-0.76373291015625;0.2037353515625;-0.606689453125;-0.08477783203125;1.601518463194895;1.2627235020289762;6.548397833435741;0.81787109375;-0.02392578125;-0.296875;-8.5625;-29.875;-4.3125;
1441975347992928;-0.767822265625;0.205078125;-0.6007080078125;-0.08758544921875;1.6609800140310342;1.1519400816899799;6.640957768853436;0.8779296875;-0.01416015625;-0.31982421875;-14.9375;-31.75;-4.8125;
1441975348017929;-0.77166748046875;0.20684814453125;-0.59454345703125;-0.09100341796875;1.7213629262905676;1.0443591599066253;6.725763326494258;0.92236328125;-0.0263671875;-0.34619140625;-19.8125;-31.625;-6.0625;
1441975348031930;-0.7755126953125;0.2086181640625;-0.58831787109375;-0.09515380859375;1.7807497489356658;0.9332265971261763;6.811096511053449;0.95703125;-0.06005859375;-0.36572265625;-24.8125;-31.25;-8.5;
1441975348052931;-0.77960205078125;0.2098388671875;-0.5816650390625;-0.0997314453125;1.8431554722907355;0.8137084340415339;6.90509883354411;0.986328125;-0.09326171875;-0.361328125;-29.25;-32.375;-13.5625;
1441975348068932;-0.78399658203125;0.21063232421875;-0.57452392578125;-0.104736328125;1.9106677014911393;0.6874507852722157;7.005626148447739;0.97314453125;-0.10595703125;-0.376953125;-30.3125;-34.1875;-19.625;
1441975348091933;-0.7886962890625;0.211181640625;-0.56689453125;-0.10980224609375;1.9859230219682764;0.5621186036363385;7.1057368266059475;0.93701171875;-0.1279296875;-0.37060546875;-31.75;-37.3125;-25.9375;
1441975348113935;-0.79351806640625;0.21099853515625;-0.55926513671875;-0.11431884765625;2.0645307778657562;0.44524670539537076;7.202579523530236;0.90478515625;-0.1455078125;-0.3681640625;-32.5;-41.0;-29.9375;
1441975348128936;-0.7984619140625;0.2093505859375;-0.55206298828125;-0.117919921875;2.141954380387787;0.33682262950401626;7.300996675348603;0.8935546875;-0.17919921875;-0.359375;-29.25;-42.8125;-34.4375;
1441975348159937;-0.80377197265625;0.20574951171875;-0.54522705078125;-0.1202392578125;2.2202993311918546;0.23578612519479022;7.40569231509817;0.88037109375;-0.19482421875;-0.33984375;-20.1875;-43.4375;-39.9375;
1441975348180939;-0.8094482421875;0.2005615234375;-0.53839111328125;-0.12152099609375;2.303211375552793;0.14086226590716;7.5151885948374;0.8798828125;-0.17724609375;-0.3330078125;-7.8125;-44.5625;-44.25;
1441975348188939;-0.81549072265625;0.1944580078125;-0.53118896484375;-0.1226806640625;2.3932367964390573;0.045889062239804816;7.628958974738188;0.875;-0.14453125;-0.34521484375;2.6875;-45.875;-47.625;
1441975348211940;-0.821533203125;0.188232421875;-0.523681640625;-0.12445068359375;2.487554525739053;17.95006060433757;7.741386740861941;0.88232421875;-0.099609375;-0.3662109375;6.4375;-48.0625;-49.75;
1441975348240942;-0.8272705078125;0.18218994140625;-0.5159912109375;-0.12725830078125;2.583025262244025;17.851752022873946;7.850954042729812;0.896484375;-0.0712890625;-0.37939453125;4.3125;-49.4375;-51.5625;
1441975348249943;-0.8326416015625;0.176513671875;-0.5084228515625;-0.1307373046875;2.677397879923593;17.756607275856;7.952961555563171;0.88330078125;-0.04638671875;-0.37744140625;-1.375;-49.1875;-52.875;
1441975348271944;-0.83782958984375;0.1707763671875;-0.50103759765625;-0.13385009765625;2.7721824143016227;17.67194729690803;8.046248867466094;0.849609375;-0.05078125;-0.384765625;-6.3125;-46.9375;-53.875;
1441975348294945;-0.84271240234375;0.16473388671875;-0.4942626953125;-0.13604736328125;2.862514218949309;17.60137500906919;8.1307422434408;0.81201171875;-0.0703125;-0.3994140625;-5.375;-44.1875;-54.5;
1441975348324947;-0.84716796875;0.15814208984375;-0.4884033203125;-0.1373291015625;2.9440382194973562;17.542272025050256;8.210254557479535;0.7900390625;-0.076171875;-0.40576171875;-0.625;-41.1875;-53.9375;
1441975348331947;-0.850830078125;0.1513671875;-0.48406982421875;-0.13763427734375;3.008181722371767;17.496427477658337;8.281990289650457;0.80224609375;-0.03369140625;-0.4267578125;7.0625;-36.0;-50.5625;
1441975348355949;-0.85302734375;0.1448974609375;-0.48223876953125;-0.1373291015625;3.0405236704752148;17.46173741414305;8.344804241603514;0.86962890625;0.03662109375;-0.46728515625;14.625;-27.0;-43.75;
1441975348375950;-0.853759765625;0.138916015625;-0.48291015625;-0.13677978515625;3.0403616629122574;17.433794344509646;8.400790228265926;1.0009765625;0.109375;-0.53271484375;19.9375;-13.3125;-34.1875;
1441975348391951;-0.85296630859375;0.133544921875;-0.48583984375;-0.13665771484375;3.009191921809677;17.40519252945388;8.453771328044054;1.13671875;0.1728515625;-0.59033203125;22.3125;1.75;-25.0;
1441975348414952;-0.8511962890625;0.12872314453125;-0.49017333984375;-0.136962890625;2.9586423786695804;17.374447097090794;8.50519244959741;1.1572265625;0.20556640625;-0.58251953125;19.875;15.9375;-18.9375;
1441975348435953;-0.8486328125;0.12432861328125;-0.49560546875;-0.13714599609375;2.8929447359248672;17.34566161037322;8.553594372404781;1.00732421875;0.16650390625;-0.51318359375;15.8125;27.3125;-17.125;
1441975348459955;-0.84539794921875;0.11981201171875;-0.50244140625;-0.13641357421875;2.810107792763991;17.323254218501628;8.600390654277748;0.859375;0.07275390625;-0.40234375;12.625;33.375;-18.1875;
1441975348474955;-0.8414306640625;0.11456298828125;-0.5111083984375;-0.1331787109375;2.705737644471124;17.319737572327757;8.64229387956589;0.7607421875;0.00146484375;-0.30322265625;16.3125;40.0;-17.875;
1441975348496957;-0.8367919921875;0.10821533203125;-0.52166748046875;-0.12664794921875;2.579357822037325;17.342176758460344;8.676936233514473;0.744140625;-0.0185546875;-0.287109375;30.9375;50.1875;-13.0625;
1441975348511957;-0.83172607421875;0.10064697265625;-0.53326416015625;-0.11761474609375;2.4405820201717083;17.38307575330394;8.708456118837747;0.8232421875;0.03125;-0.31640625;52.0;60.375;-4.625;
1441975348541959;-0.82647705078125;0.0926513671875;-0.544921875;-0.107177734375;2.2997534103729533;17.437810431303596;8.73315652646525;0.9619140625;0.1552734375;-0.359375;71.75;66.375;6.4375;
1441975348555960;-0.82135009765625;0.0849609375;-0.5557861328125;-0.09698486328125;2.166767889038934;17.494066166382435;8.753306917078392;1.068359375;0.2529296875;-0.3779296875;82.3125;66.5;15.4375;
1441975348577961;-0.81622314453125;0.0787353515625;-0.5655517578125;-0.08856201171875;2.0434109781043093;17.542581736946296;8.76707405619292;1.1005859375;0.3232421875;-0.36083984375;81.5625;61.875;20.5625;
1441975348584962;-0.8109130859375;0.0753173828125;-0.574462890625;-0.08294677734375;1.925835034220477;17.58173727529047;8.76654596139426;1.10400390625;0.3359375;-0.310546875;68.5625;55.0;23.3125;
1441975348607963;-0.80548095703125;0.07489013671875;-0.58251953125;-0.08013916015625;1.8145525539968728;17.61391391787797;8.748776414834067;1.095703125;0.2861328125;-0.251953125;44.8125;49.5;24.375;
1441975348630964;-0.80029296875;0.07708740234375;-0.58935546875;-0.0797119140625;1.7156389548421593;17.64247414164335;8.713758614953028;1.052734375;0.20849609375;-0.20654296875;19.25;45.1875;24.3125;
1441975348644965;-0.79547119140625;0.08050537109375;-0.59521484375;-0.0810546875;1.6280379452248084;17.660816024662186;8.676532596508343;0.9814453125;0.09130859375;-0.1943359375;-3.3125;40.5625;20.5;
1441975348676967;-0.791015625;0.084228515625;-0.60028076171875;-0.0833740234375;1.550166286405835;17.66938231362701;8.643713976128828;0.9267578125;0.00390625;-0.1943359375;-17.6875;37.125;14.1875;
1441975348690968;-0.7872314453125;0.0877685546875;-0.60430908203125;-0.086181640625;1.4863725717025318;17.66858611812133;8.618881316756951;0.93798828125;-0.0380859375;-0.21142578125;-24.4375;34.5;8.75;
1441975348713969;-0.784423828125;0.0906982421875;-0.60723876953125;-0.08843994140625;1.4395260612713128;17.669765145070734;8.596743131259325;0.99609375;-0.0361328125;-0.23974609375;-25.875;29.1875;5.5;
1441975348727970;-0.782470703125;0.09246826171875;-0.60919189453125;-0.090087890625;1.4076929262500182;17.665686764867463;8.586983177123162;1.044921875;-0.02783203125;-0.26904296875;-21.1875;22.6875;4.25;
1441975348750971;-0.78118896484375;0.09271240234375;-0.61065673828125;-0.09130859375;1.3851513525135448;17.64700212631197;8.599837732496091;1.0908203125;0.00634765625;-0.2978515625;-14.125;17.375;2.5625;
1441975348781973;-0.7803955078125;0.091796875;-0.6116943359375;-0.09228515625;1.3701387384278574;17.61507007220738;8.631653464253493;1.12158203125;0.0625;-0.31103515625;-6.0625;14.1875;0.25;
1441975348787973;-0.7801513671875;0.090576171875;-0.6119384765625;-0.093505859375;1.3664101630411176;17.573472084101134;8.673251452359738;1.12451171875;0.11376953125;-0.31689453125;0.3125;11.3125;-1.5;
1441975348810975;-0.78045654296875;0.0899658203125;-0.61138916015625;-0.09527587890625;1.373836284841217;17.531003287116434;8.710898402971104;1.08642578125;0.13134765625;-0.30322265625;0.25;5.9375;-2.8125;
1441975348826976;-0.7808837890625;0.0902099609375;-0.6103515625;-0.09783935546875;1.386546496089397;17.487025745317194;8.743188945467917;1.0361328125;0.12939453125;-0.2998046875;-4.5625;1.125;-3.625;
1441975348856977;-0.7816162109375;0.09149169921875;-0.6087646484375;-0.10101318359375;1.4061744682709971;17.448215167377906;8.763508868155439;0.986328125;0.10693359375;-0.2724609375;-11.6875;-2.6875;-4.3125;
1441975348878978;-0.78240966796875;0.09368896484375;-0.6068115234375;-0.10430908203125;1.4291157558740304;17.42137814376723;8.767479528504646;0.93798828125;0.0859375;-0.2802734375;-18.4375;-5.3125;-3.75;
1441975348884979;-0.783447265625;0.09637451171875;-0.60455322265625;-0.10760498046875;1.456218361769044;17.402377193284757;8.761592714715544;0.9013671875;0.06884765625;-0.2783203125;-23.0;-7.625;-1.8125;
1441975348907980;-0.78460693359375;0.09918212890625;-0.60211181640625;-0.1103515625;1.4855350330800512;17.395261166541708;8.745497447770223;0.88134765625;0.07421875;-0.2919921875;-24.4375;-8.9375;0.75;
1441975348939982;-0.78594970703125;0.10174560546875;-0.5994873046875;-0.112548828125;1.517751857743131;17.394574398081314;8.726162886183081;0.8701171875;0.08203125;-0.306640625;-22.5;-9.6875;2.875;
1441975348944982;-0.787353515625;0.1041259765625;-0.59698486328125;-0.11383056640625;1.549155857370632;17.40671250518412;8.69854160682905;0.87060546875;0.1044921875;-0.32470703125;-18.5625;-10.5;5.375;
1441975348967984;-0.7886962890625;0.1065673828125;-0.59466552734375;-0.11444091796875;1.5783854728047118;17.42996573565787;8.662337635811678;0.85595703125;0.10693359375;-0.3271484375;-14.0;-10.5625;7.9375;
1441975348990985;-0.78985595703125;0.10943603515625;-0.592529296875;-0.11468505859375;1.604638489372192;17.463361232613114;8.615735971845726;0.85009765625;0.12158203125;-0.32763671875;-10.75;-10.125;11.625;
1441975349013986;-0.790771484375;0.11297607421875;-0.59063720703125;-0.11480712890625;1.6270930064982618;17.50562242803194;8.558041623745726;0.88037109375;0.15380859375;-0.326171875;-9.4375;-9.8125;17.125;
1441975349027987;-0.79132080078125;0.11737060546875;-0.5889892578125;-0.11505126953125;1.6451247365540707;17.554936680810478;8.489261137375367;0.9208984375;0.17138671875;-0.33935546875;-11.1875;-9.125;22.375;
1441975349058989;-0.79150390625;0.12249755859375;-0.587646484375;-0.11541748046875;1.658494973554056;17.610072113823204;8.411160734389599;0.955078125;0.171875;-0.337890625;-14.3125;-8.0;26.25;
1441975349064989;-0.791259765625;0.12841796875;-0.5865478515625;-0.11602783203125;1.6675945940391705;17.670152814663144;8.323794081136484;0.9970703125;0.16748046875;-0.349609375;-17.5625;-6.25;29.625;
1441975349087990;-0.79058837890625;0.13507080078125;-0.585693359375;-0.1171875;1.6724392902785246;17.730085611377774;8.231270343612536;1.05810546875;0.16650390625;-0.36572265625;-21.125;-3.875;33.0625;
1441975349110992;-0.78997802734375;0.14178466796875;-0.584716796875;-0.1187744140625;1.6794829684092871;17.783188967498095;8.14356062688353;1.0751953125;0.1328125;-0.37255859375;-26.875;-2.0625;32.9375;
1441975349124993;-0.78948974609375;0.1473388671875;-0.58380126953125;-0.11968994140625;1.687618122400585;17.832617224210725;8.067028690614327;0.99951171875;0.03955078125;-0.33251953125;-30.4375;-3.4375;26.125;
1441975349163995;-0.78924560546875;0.150634765625;-0.58331298828125;-0.11920166015625;1.6940780997635994;17.87781830877386;8.009966483532576;0.90380859375;-0.07470703125;-0.28173828125;-25.6875;-5.0;15.625;
1441975349170995;-0.78955078125;0.151123046875;-0.58319091796875;-0.11712646484375;1.700829575820383;17.914909685743538;7.979398247905103;0.84765625;-0.15380859375;-0.2607421875;-12.8125;-4.0625;5.3125;
1441975349184996;-0.7906494140625;0.14910888671875;-0.5830078125;-0.11334228515625;1.7135556469241036;17.947840047776726;7.970501746911849;0.83447265625;-0.150390625;-0.25537109375;4.5625;-3.6875;-1.75;
1441975349207997;-0.7923583984375;0.14508056640625;-0.58251953125;-0.10888671875;1.7319290186572924;17.966030739742752;7.987399384788844;0.849609375;-0.10009765625;-0.28369140625;22.125;-4.875;-4.75;
1441975349230999;-0.79461669921875;0.139892578125;-0.58154296875;-0.1044921875;1.756961270096847;17.96815874924685;8.02485439948296;0.8779296875;-0.0185546875;-0.28662109375;33.8125;-8.5;-6.5625;
1441975349253000;-0.7972412109375;0.13470458984375;-0.5797119140625;-0.101318359375;1.7904592693393753;17.94995516167534;8.07739272070638;0.9150390625;0.04638671875;-0.2998046875;38.875;-11.6875;-8.25;
1441975349268001;-0.80010986328125;0.130126953125;-0.5770263671875;-0.10009765625;1.8316239698669858;17.908788741484063;8.14213792491253;0.9541015625;0.09228515625;-0.31298828125;33.75;-16.0;-10.625;
1441975349299003;-0.8031005859375;0.1268310546875;-0.57354736328125;-0.1007080078125;1.8803211515837268;17.85535147830992;8.206121218483354;0.970703125;0.109375;-0.3115234375;22.5625;-20.8125;-13.8125;
1441975349305003;-0.80621337890625;0.125244140625;-0.56915283203125;-0.1024169921875;1.9389012363210938;17.8050690816135;8.255049588245232;0.94873046875;0.08642578125;-0.2919921875;8.8125;-25.8125;-16.625;
1441975349328004;-0.8094482421875;0.1251220703125;-0.5640869140625;-0.10504150390625;2.0048958069184115;17.75830100429449;8.2904305104119;0.9189453125;0.0380859375;-0.291015625;-3.8125;-30.3125;-16.8125;
1441975349351005;-0.81268310546875;0.12567138671875;-0.558837890625;-0.10772705078125;2.0731355097764297;17.719286609103634;8.314934975664688;0.90380859375;-0.005859375;-0.29345703125;-14.375;-34.25;-16.5;
1441975349365006;-0.81610107421875;0.125732421875;-0.55328369140625;-0.11004638671875;2.1458103819280243;17.68231382300791;8.340753950018575;0.89453125;-0.05029296875;-0.29736328125;-17.75;-36.0625;-17.25;
1441975349388008;-0.81988525390625;0.12493896484375;-0.5474853515625;-0.11181640625;2.223631717263128;17.646742945753708;8.370940200990217;0.880859375;-0.068359375;-0.29833984375;-15.4375;-38.25;-20.0625;
1441975349411009;-0.8238525390625;0.12371826171875;-0.54150390625;-0.113037109375;2.304925716250574;17.616453502396205;8.399808831519486;0.875;-0.060546875;-0.30859375;-10.1875;-40.3125;-22.1875;
1441975349434010;-0.82781982421875;0.12213134765625;-0.53558349609375;-0.1141357421875;2.3859416103633984;17.586797617348815;8.430075079968644;0.8876953125;-0.04638671875;-0.322265625;-6.125;-42.1875;-22.875;
1441975349465012;-0.83148193359375;0.12060546875;-0.530029296875;-0.11505126953125;2.4618404769058664;17.561790528811432;8.456236245313569;0.9091796875;-0.01318359375;-0.33642578125;-3.625;-42.375;-22.125;
1441975349471012;-0.83465576171875;0.11962890625;-0.5250244140625;-0.115966796875;2.529487208502682;17.542371130873587;8.474608732150266;0.9541015625;0.01953125;-0.37255859375;-2.3125;-39.9375;-19.125;
1441975349487013;-0.83746337890625;0.119384765625;-0.520263671875;-0.117431640625;2.5922421034478074;17.522936124576464;8.487657275742777;1.01025390625;0.03662109375;-0.41357421875;-3.5625;-36.0625;-15.5;
1441975349524015;-0.83984375;0.12030029296875;-0.51568603515625;-0.11993408203125;2.6499934029120875;17.500740513732428;8.49426763610437;1.015625;0.0478515625;-0.4453125;-8.6875;-32.5;-12.625;
1441975349547017;-0.84161376953125;0.12237548828125;-0.511474609375;-0.1231689453125;2.6998963375275817;17.47883911326459;8.492609564355652;0.96728515625;0.037109375;-0.43310546875;-17.5625;-30.625;-10.75;
1441975349550017;-0.84259033203125;0.12530517578125;-0.50836181640625;-0.1263427734375;2.7340069092207995;17.463515942489625;8.481303106891147;0.912109375;0.00537109375;-0.4140625;-25.4375;-27.625;-8.5625;
1441975349568018;-0.843017578125;0.1285400390625;-0.50634765625;-0.128173828125;2.7544092078484437;17.464532469437113;8.45830015360145;0.91162109375;-0.00634765625;-0.41064453125;-27.9375;-21.125;-3.9375;
1441975349591019;-0.84259033203125;0.132080078125;-0.50604248046875;-0.1290283203125;2.7533456169331885;17.478104254868654;8.426150855159444;0.9326171875;-0.00927734375;-0.4794921875;-22.6875;-11.8125;2.0;
1441975349605020;-0.84136962890625;0.13519287109375;-0.50714111328125;-0.12939453125;2.734327945340254;17.494653459677117;8.395264250653982;0.94873046875;-0.0302734375;-0.4912109375;-18.9375;-1.875;7.1875;
1441975349637022;-0.8399658203125;0.13861083984375;-0.5084228515625;-0.12994384765625;2.7124370217495013;17.51167049810158;8.361925502788178;0.9453125;0.0126953125;-0.50439453125;-13.25;8.125;11.375;
1441975349651023;-0.8380126953125;0.142822265625;-0.5101318359375;-0.13092041015625;2.682911465288748;17.53004712676549;8.32215856222294;0.88818359375;0.0341796875;-0.5126953125;-14.4375;12.0625;14.3125;
1441975349665023;-0.83544921875;0.14739990234375;-0.5128173828125;-0.1317138671875;2.6405893379949528;17.55437490829925;8.276027776250848;0.8486328125;4.8828125E-4;-0.50537109375;-19.75;16.6875;15.6875;
1441975349688025;-0.83245849609375;0.15185546875;-0.51654052734375;-0.131103515625;2.587212872781551;17.595595620963135;8.219772233282082;0.81298828125;-0.029296875;-0.45703125;-19.9375;21.1875;18.1875;
1441975349711026;-0.8292236328125;0.156005859375;-0.52093505859375;-0.12939453125;2.527669453742924;17.649893672581616;8.15654204166818;0.80126953125;-0.044921875;-0.44140625;-12.625;26.125;22.0625;
1441975349725027;-0.82568359375;0.1597900390625;-0.5260009765625;-0.12713623046875;2.4613831717815424;17.711701530624598;8.089852486537287;0.837890625;-0.02734375;-0.46044921875;-5.25;30.375;26.125;
1441975349748028;-0.82183837890625;0.16351318359375;-0.53125;-0.12506103515625;2.3924350158060506;17.774936625139848;8.021148648480592;0.8974609375;0.00634765625;-0.474609375;-0.125;34.0;29.25;
1441975349771030;-0.81793212890625;0.16778564453125;-0.53619384765625;-0.1240234375;2.3261417961799644;17.833405082516983;7.950489450626582;0.9521484375;0.0341796875;-0.4833984375;0.4375;35.6875;31.375;
1441975349787030;-0.81396484375;0.173095703125;-0.5404052734375;-0.124755859375;2.265567582595967;17.880906033188577;7.878795434980052;1.0205078125;0.06298828125;-0.4912109375;-5.25;34.6875;32.875;
1441975349808032;-0.81024169921875;0.17913818359375;-0.5435791015625;-0.12640380859375;2.216321549739216;17.923418499675414;7.804788142929487;1.0458984375;0.0361328125;-0.44970703125;-18.125;29.5;30.75;
1441975349831033;-0.80694580078125;0.1846923828125;-0.54644775390625;-0.12725830078125;2.1744168770700245;17.972691501816158;7.7293377415961135;0.97412109375;-0.0390625;-0.35888671875;-27.3125;21.3125;25.75;
1441975349845034;-0.80419921875;0.1883544921875;-0.5494384765625;-0.1265869140625;2.1363192847957655;0.02654868272859837;7.663692047630164;0.89794921875;-0.13525390625;-0.28125;-24.1875;15.1875;19.5;
1441975349868035;-0.80218505859375;0.18902587890625;-0.5526123046875;-0.12420654296875;2.1010536914732105;0.07705367601241325;7.621128399657515;0.86669921875;-0.1767578125;-0.251953125;-11.5625;13.1875;12.8125;
1441975349891036;-0.80108642578125;0.18731689453125;-0.55560302734375;-0.120849609375;2.0718770834644804;0.1176419273951814;7.602622231720941;0.8798828125;-0.1240234375;-0.26220703125;7.625;12.9375;7.6875;
1441975349905037;-0.800537109375;0.18450927734375;-0.557861328125;-0.11810302734375;2.0495035279646285;0.13725463418734918;7.606866528504568;0.9033203125;-0.02099609375;-0.31396484375;23.3125;12.9375;5.4375;
1441975349929039;-0.80047607421875;0.1820068359375;-0.55902099609375;-0.1171875;2.036318609920129;0.13076447436188288;7.6280716667154564;0.94580078125;0.08251953125;-0.3525390625;25.625;10.875;4.625;
1441975349951040;-0.800537109375;0.1802978515625;-0.55914306640625;-0.118408203125;2.0298113996742813;0.09948042163901602;7.661480381040165;0.9697265625;0.134765625;-0.3779296875;17.4375;7.625;2.25;
1441975349965041;-0.80059814453125;0.179931640625;-0.55859375;-0.1212158203125;2.028336640640003;0.05724524222409523;7.693470485917957;0.97314453125;0.15234375;-0.37890625;3.875;4.0;-0.8125;
1441975349988042;-0.80059814453125;0.18060302734375;-0.5576171875;-0.124755859375;2.030707959704651;0.013669419977446673;7.719254158462542;0.9658203125;0.1142578125;-0.365234375;-9.1875;0.8125;-3.0625;
1441975350010043;-0.80047607421875;0.18170166015625;-0.556640625;-0.1280517578125;2.0336550379533485;17.977581404753238;7.736702755018854;0.94287109375;0.06298828125;-0.3369140625;-17.6875;-1.9375;-4.5625;
1441975350025044;-0.80059814453125;0.1827392578125;-0.5555419921875;-0.13092041015625;2.040202050753344;17.945842420145;7.75187125948638;0.919921875;0.017578125;-0.31689453125;-19.6875;-3.3125;-5.0625;
1441975350048045;-0.80108642578125;0.18316650390625;-0.5540771484375;-0.1334228515625;2.052523377523401;17.911835300614463;7.773220766370672;0.91650390625;-0.0126953125;-0.3173828125;-18.0;-4.75;-6.625;
1441975350079047;-0.802001953125;0.18304443359375;-0.55218505859375;-0.1357421875;2.0714096964170516;17.873759001824354;7.801570092315142;0.9189453125;-0.00927734375;-0.3271484375;-14.4375;-7.0;-9.0;
1441975350085047;-0.80328369140625;0.1826171875;-0.5499267578125;-0.1380615234375;2.0959855887138104;17.832115492823416;7.834703741127696;0.9208984375;0.00146484375;-0.34033203125;-11.6875;-9.75;-11.3125;
1441975350108049;-0.80474853515625;0.18212890625;-0.54730224609375;-0.14044189453125;2.125324676628707;17.78895349778361;7.869174451881231;0.9384765625;0.01318359375;-0.35498046875;-11.0625;-12.0;-12.875;
1441975350132050;-0.80633544921875;0.18170166015625;-0.54449462890625;-0.14288330078125;2.15748021056544;17.74607873819124;7.902801008030433;0.9453125;0.0146484375;-0.38330078125;-11.3125;-12.8125;-14.125;
1441975350145051;-0.807861328125;0.181396484375;-0.54168701171875;-0.1451416015625;2.1899519875506317;17.707722352433727;7.932085203628261;0.947265625;0.015625;-0.39013671875;-12.0625;-13.75;-14.5625;
1441975350168052;-0.8094482421875;0.18096923828125;-0.53900146484375;-0.14697265625;2.2224534411051153;17.674793739351806;7.958313784068256;0.94189453125;0.00830078125;-0.39111328125;-12.0625;-14.375;-14.5;
1441975350199054;-0.81103515625;0.18035888671875;-0.53643798828125;-0.14837646484375;2.254476009159218;17.646650986190643;7.982318345437609;0.93310546875;0.0029296875;-0.39111328125;-9.875;-14.375;-14.1875;
1441975350207054;-0.81256103515625;0.17950439453125;-0.53424072265625;-0.149169921875;2.283463111791596;17.6252876120636;8.003269124879754;0.9228515625;0.00439453125;-0.390625;-6.8125;-14.0625;-13.6875;
1441975350230056;-0.81396484375;0.17877197265625;-0.53204345703125;-0.14996337890625;2.3118464959000398;17.605497315438676;8.022036337178948;0.921875;0.00634765625;-0.37890625;-3.5625;-13.75;-12.8125;
1441975350250057;-0.8153076171875;0.17816162109375;-0.530029296875;-0.15045166015625;2.338604914205269;17.591078179253582;8.036287064475546;0.9326171875;0.0224609375;-0.37890625;-3.25;-14.125;-11.375;
1441975350265058;-0.81658935546875;0.1776123046875;-0.5281982421875;-0.15057373046875;2.3637285035675424;17.582081856969786;8.046461788824603;0.93115234375;0.00927734375;-0.373046875;-2.4375;-14.0;-10.3125;
1441975350288059;-0.8177490234375;0.17706298828125;-0.52667236328125;-0.15057373046875;2.3853418688969765;17.575189145105245;8.055204634652956;0.93017578125;0.0078125;-0.38037109375;-1.0;-13.375;-9.0625;
1441975350310060;-0.8187255859375;0.17669677734375;-0.52520751953125;-0.1505126953125;2.4053653919648403;17.570703804120782;8.060930533922694;0.9375;0.02783203125;-0.38134765625;0.1875;-12.1875;-7.375;
1441975350325061;-0.81951904296875;0.17669677734375;-0.52398681640625;-0.1505126953125;2.4219653541243686;17.568766326106264;8.062449226529726;0.9384765625;0.033203125;-0.3955078125;-0.125;-10.6875;-5.5;
1441975350348063;-0.820068359375;0.1768798828125;-0.5230712890625;-0.15045166015625;2.434251694382287;17.569435404414516;8.06092944375848;0.93359375;0.0380859375;-0.3916015625;-1.125;-9.6875;-3.75;
1441975350370064;-0.82037353515625;0.17724609375;-0.5225830078125;-0.1500244140625;2.4414041119678327;17.576366265591073;8.054064674053507;0.9306640625;0.037109375;-0.39111328125;-1.25;-7.875;-1.8125;
1441975350388065;-0.82049560546875;0.177490234375;-0.5225830078125;-0.14935302734375;2.4430075311178365;17.585908591328582;8.046362743257044;0.92529296875;0.0263671875;-0.38671875;-0.4375;-5.75;-0.125;
1441975350408066;-0.8203125;0.177734375;-0.5230712890625;-0.1483154296875;2.4385054179260384;17.600500123611297;8.035265680726072;0.9150390625;0.0341796875;-0.38525390625;1.8125;-2.9375;1.4375;
1441975350439068;-0.81988525390625;0.17791748046875;-0.5240478515625;-0.14703369140625;2.4281473972323644;17.618352169873432;8.022374683766861;0.9208984375;0.0361328125;-0.3876953125;4.1875;-0.125;3.4375;
1441975350445068;-0.81927490234375;0.17816162109375;-0.5252685546875;-0.145751953125;2.4144194353647483;17.637278567538328;8.0082207435018;0.93505859375;0.03759765625;-0.38232421875;5.3125;2.0625;4.875;
1441975350476070;-0.8184814453125;0.178466796875;-0.52667236328125;-0.14459228515625;2.3977579403218883;17.65584172487591;7.9936902120812725;0.93212890625;0.04638671875;-0.37255859375;6.125;3.5625;6.125;
1441975350492071;-0.8175048828125;0.1790771484375;-0.5283203125;-0.1436767578125;2.3775566294745496;17.674660353287223;7.9767491306595675;0.93017578125;0.052734375;-0.3740234375;5.4375;4.75;7.25;
1441975350508072;-0.81634521484375;0.17974853515625;-0.530029296875;-0.14276123046875;2.3557629268616136;17.694506338426425;7.958415815511707;0.931640625;0.0498046875;-0.35888671875;3.6875;6.1875;8.125;
1441975350528073;-0.81512451171875;0.1805419921875;-0.5318603515625;-0.141845703125;2.332617751064178;17.715947633307398;7.938053782070381;0.9326171875;0.046875;-0.36328125;3.375;7.375;8.8125;
1441975350550074;-0.81396484375;0.181396484375;-0.53363037109375;-0.14105224609375;2.3104162548456024;17.73664533991321;7.9176980820478375;0.93408203125;0.0390625;-0.35595703125;2.75;7.75;9.0625;
1441975350565075;-0.81268310546875;0.18218994140625;-0.5355224609375;-0.14019775390625;2.286462967459716;17.758351636703743;7.896824194931741;0.9306640625;0.04052734375;-0.361328125;2.3125;8.125;9.5625;
1441975350588076;-0.8114013671875;0.182861328125;-0.5374755859375;-0.139404296875;2.2618558800598323;17.778884628723855;7.877426780027619;0.9384765625;0.03857421875;-0.361328125;2.5625;9.125;9.5;
1441975350610077;-0.81011962890625;0.1834716796875;-0.539306640625;-0.138671875;2.2383444193491893;17.798324725376624;7.859004186862363;0.93701171875;0.04443359375;-0.36572265625;3.0625;10.0;9.0;
1441975350625078;-0.80889892578125;0.1842041015625;-0.54107666015625;-0.13812255859375;2.2156922228385936;17.816696585822474;7.840423652625576;0.94140625;0.0419921875;-0.37890625;2.8125;10.4375;9.0;
1441975350648080;-0.8077392578125;0.18487548828125;-0.542724609375;-0.13763427734375;2.1944877057028496;17.833792401129756;7.823060834616568;0.93603515625;0.03466796875;-0.37646484375;1.5625;10.6875;8.375;
1441975350670081;-0.806640625;0.185546875;-0.54412841796875;-0.1373291015625;2.1756941884288103;17.848236815579757;7.807439384852871;0.9296875;0.021484375;-0.38037109375;0.875;10.5625;7.4375;
1441975350685082;-0.8057861328125;0.18621826171875;-0.54522705078125;-0.1370849609375;2.161233244633401;17.8610381576026;7.793158249949372;0.91455078125;0.0185546875;-0.37548828125;-0.0625;9.5625;6.1875;
1441975350708083;-0.80511474609375;0.186767578125;-0.546142578125;-0.13690185546875;2.14942759583579;17.87143350866514;7.781528578154356;0.90380859375;0.0087890625;-0.375;-0.8125;8.25;5.0;
1441975350730084;-0.80474853515625;0.18743896484375;-0.54644775390625;-0.1368408203125;2.145167393863194;17.87939009627327;7.771065941633149;0.904296875;0.0048828125;-0.36962890625;-0.875;6.375;3.875;
1441975350761086;-0.80462646484375;0.18804931640625;-0.5465087890625;-0.13677978515625;2.144667691833033;17.885815220470054;7.762379747196661;0.8994140625;0.01123046875;-0.37744140625;-1.6875;3.8125;3.6875;
1441975350768087;-0.80474853515625;0.18841552734375;-0.546142578125;-0.1365966796875;2.1496287685351723;17.890149502581377;7.7570759873389115;0.9033203125;0.0146484375;-0.37890625;-1.5625;1.4375;3.125;
1441975350791088;-0.80523681640625;0.188720703125;-0.54534912109375;-0.136474609375;2.160685392825219;17.891440932530784;7.754755881937934;0.9208984375;0.02783203125;-0.40087890625;-0.5;-0.1875;2.75;
1441975350805089;-0.8060302734375;0.188720703125;-0.54425048828125;-0.1363525390625;2.1761352796145417;17.888820920526662;7.757570775938276;0.9248046875;0.017578125;-0.42041015625;-0.625;-1.875;0.75;
1441975350828090;-0.80706787109375;0.1885986328125;-0.54266357421875;-0.1365966796875;2.196825323197775;17.879019876292396;7.7663514425854085;0.9169921875;0.015625;-0.41455078125;-0.0625;-4.375;-1.0;
1441975350850091;-0.8082275390625;0.18865966796875;-0.5406494140625;-0.13751220703125;2.2212439821849026;17.861389006517168;7.779236219603855;0.91943359375;0.033203125;-0.43017578125;-1.5;-6.4375;-2.625;
1441975350865092;-0.80950927734375;0.1884765625;-0.53863525390625;-0.1383056640625;2.24644793541437;17.843398234882624;7.794065613111468;0.916015625;0.04638671875;-0.4326171875;-4.75;-8.125;-3.5625;
1441975350888093;-0.8109130859375;0.18798828125;-0.53656005859375;-0.1387939453125;2.2732868893278693;17.826689884713343;7.810120396759075;0.91259765625;0.0458984375;-0.4228515625;-3.875;-9.25;-4.5;
1441975350910095;-0.81268310546875;0.186767578125;-0.5343017578125;-0.13873291015625;2.304446058583392;17.810241291288097;7.831243397404279;0.90478515625;0.03271484375;-0.42138671875;-1.8125;-10.625;-6.5;
1441975350928096;-0.814697265625;0.1851806640625;-0.53192138671875;-0.138427734375;2.338445763108758;17.793773956125992;7.854963464270016;0.900390625;0.02783203125;-0.40576171875;3.0625;-13.5625;-8.9375;
1441975350956097;-0.816650390625;0.183349609375;-0.529541015625;-0.13824462890625;2.371763535336606;17.774626277512922;7.881805002953102;0.88623046875;0.03125;-0.39990234375;5.75;-14.875;-10.3125;
1441975350970098;-0.81854248046875;0.18145751953125;-0.52728271484375;-0.13824462890625;2.4033555632034473;17.753808349755197;7.9098930920964925;0.880859375;0.04833984375;-0.408203125;5.6875;-14.6875;-10.875;
1441975350989099;-0.8204345703125;0.17950439453125;-0.5250244140625;-0.13836669921875;2.4348841211731256;17.731757319586176;7.938976452854248;0.88818359375;0.05322265625;-0.41796875;5.4375;-13.375;-11.375;
1441975351016101;-0.8221435546875;0.17742919921875;-0.52301025390625;-0.13861083984375;2.462884816157791;17.708611995849378;7.969219907938458;0.908203125;0.0478515625;-0.419921875;4.5625;-13.6875;-12.625;
1441975351030102;-0.8236083984375;0.17535400390625;-0.52117919921875;-0.13897705078125;2.4876673027085827;17.68512989168092;7.999256732849327;0.9150390625;0.04296875;-0.41552734375;4.5;-13.0625;-13.875;
1441975351048103;-0.82476806640625;0.17352294921875;-0.51983642578125;-0.13946533203125;2.5060654603297623;17.663465911171397;8.026174274682084;0.91943359375;0.0478515625;-0.42041015625;3.8125;-11.0625;-13.6875;
1441975351076104;-0.82568359375;0.17181396484375;-0.51898193359375;-0.1396484375;2.518875074581771;17.647285575003558;8.048581152153607;0.92919921875;0.0498046875;-0.42626953125;2.75;-8.375;-12.375;
1441975351090105;-0.82635498046875;0.16986083984375;-0.51849365234375;-0.13958740234375;2.5269713372740363;17.632897840647747;8.07128732758112;0.9296875;0.03076171875;-0.4287109375;3.25;-5.5;-11.625;
1441975351106106;-0.8270263671875;0.1678466796875;-0.5181884765625;-0.1395263671875;2.5333863047535767;17.618429064715503;8.094494309887276;0.91796875;0.02587890625;-0.41796875;5.3125;-3.625;-12.125;
1441975351128107;-0.8275146484375;0.16619873046875;-0.5179443359375;-0.13946533203125;2.538292578259851;17.606814669608106;8.113253032637264;0.908203125;0.02880859375;-0.41748046875;5.75;-2.5625;-11.8125;
1441975351160109;-0.82781982421875;0.1649169921875;-0.517822265625;-0.1395263671875;2.5409306217341525;17.596710315334647;8.128469360977094;0.89697265625;0.02734375;-0.42578125;4.3125;-1.0;-10.3125;
1441975351189111;-0.82806396484375;0.1636962890625;-0.51776123046875;-0.1396484375;2.5426048915583994;17.58647150934574;8.143326240241487;0.8837890625;0.02001953125;-0.42529296875;2.6875;0.125;-9.3125;
1441975351192111;-0.82843017578125;0.16253662109375;-0.5177001953125;-0.139404296875;2.545442028514336;17.58075880074258;8.155005162009829;0.87060546875;0.017578125;-0.4228515625;1.625;0.875;-9.0;
1441975351220112;-0.8287353515625;0.161376953125;-0.517578125;-0.1390380859375;2.548628170305125;17.576376452176653;8.165738203599954;0.87158203125;0.01220703125;-0.43212890625;3.375;0.6875;-8.375;
1441975351235113;-0.82904052734375;0.1605224609375;-0.51739501953125;-0.13873291015625;2.552408246168825;17.57343751164844;8.173489215321442;0.86962890625;0.021484375;-0.4228515625;3.9375;0.0625;-7.125;
1441975351267115;-0.8294677734375;0.15997314453125;-0.51690673828125;-0.13897705078125;2.5594223274252745;17.566206413686505;8.18190291655755;0.8681640625;0.0224609375;-0.4287109375;2.75;-0.3125;-6.0625;
1441975351287116;-0.82977294921875;0.159912109375;-0.5162353515625;-0.13970947265625;2.567090052061323;17.556864503516106;8.188191697998338;0.85400390625;0.03662109375;-0.44189453125;-0.4375;-0.625;-5.6875;
1441975351295117;-0.83001708984375;0.160400390625;-0.51531982421875;-0.14111328125;2.5762165171009253;17.543744710461382;8.193030047011757;0.85693359375;0.03466796875;-0.4501953125;-4.8125;-0.625;-5.1875;
1441975351308117;-0.83026123046875;0.16131591796875;-0.51416015625;-0.14276123046875;2.5875344965678466;17.530738691278035;8.194806009171515;0.8447265625;0.02587890625;-0.44775390625;-10.1875;-1.3125;-5.125;
1441975351330119;-0.83050537109375;0.16217041015625;-0.51312255859375;-0.14398193359375;2.5980420849951127;17.522195806736935;8.194205661174298;0.826171875;0.0166015625;-0.43994140625;-13.0;-2.5625;-4.75;
1441975351353120;-0.830810546875;0.1627197265625;-0.51226806640625;-0.1446533203125;2.6076086333442063;17.51777732676242;8.193167224661705;0.81591796875;0.01171875;-0.4384765625;-11.125;-2.625;-4.3125;
1441975351368121;-0.83123779296875;0.1627197265625;-0.51141357421875;-0.14508056640625;2.6181092570734856;17.512248739444633;8.19656703019306;0.82373046875;0.0087890625;-0.4580078125;-7.625;-0.75;-3.875;
1441975351390122;-0.83203125;0.16229248046875;-0.51007080078125;-0.1458740234375;2.635266460291459;17.499374136676025;8.207445695229865;0.79931640625;0.0078125;-0.47607421875;-4.5;0.5;-6.25;
1441975351413123;-0.83294677734375;0.161865234375;-0.5084228515625;-0.14678955078125;2.6560675549023176;17.48506576512643;8.219090770956319;0.75048828125;0.01220703125;-0.48583984375;-5.375;-0.0625;-9.1875;
1441975351427124;-0.83380126953125;0.16156005859375;-0.50689697265625;-0.14788818359375;2.67521791371428;17.469897016522502;8.230412706378559;0.72314453125;0.02294921875;-0.48291015625;-6.0;-1.375;-9.9375;
1441975351452126;-0.83441162109375;0.160888671875;-0.5057373046875;-0.14874267578125;2.689612772649017;17.45534465147127;8.243707249227405;0.71826171875;0.044921875;-0.490234375;-6.5625;-0.25;-8.125;
1441975351481127;-0.8350830078125;0.159423828125;-0.5048828125;-0.14947509765625;2.701696969810258;17.43721501993512;8.26463853906441;0.7373046875;0.05908203125;-0.49853515625;-3.6875;2.3125;-7.875;
1441975351487128;-0.83563232421875;0.15771484375;-0.50433349609375;-0.150146484375;2.7102934477287044;17.418466854208045;8.287600215727412;0.748046875;0.095703125;-0.525390625;0.3125;5.25;-9.125;
1441975351510129;-0.83575439453125;0.1563720703125;-0.50421142578125;-0.1512451171875;2.7119516928595;17.397826675396853;8.309232016011427;0.75634765625;0.109375;-0.5322265625;1.375;7.25;-9.125;
1441975351533130;-0.83544921875;0.15533447265625;-0.50445556640625;-0.15338134765625;2.707003346144569;17.368174288645363;8.33436562803611;0.7734375;0.10693359375;-0.52294921875;-1.5;9.8125;-8.4375;
1441975351551131;-0.8349609375;0.1546630859375;-0.5047607421875;-0.15576171875;2.7003307887953767;17.338183515555567;8.357246735992721;0.7490234375;0.11376953125;-0.49267578125;-7.1875;12.4375;-8.625;
1441975351578133;-0.83428955078125;0.1541748046875;-0.5052490234375;-0.15814208984375;2.6908953794498847;17.309250481345913;8.378329413177086;0.73388671875;0.0830078125;-0.48828125;-10.4375;13.25;-9.5;
1441975351593134;-0.8333740234375;0.15338134765625;-0.50634765625;-0.16015625;2.674528314522269;17.282060845060656;8.400741731967065;0.73876953125;0.05908203125;-0.474609375;-11.875;13.625;-10.3125;
1441975351611135;-0.83245849609375;0.15191650390625;-0.50799560546875;-0.16119384765625;2.65365910583337;17.26072401611433;8.424504796725435;0.755859375;0.046875;-0.458984375;-9.3125;16.1875;-10.75;
1441975351631136;-0.83148193359375;0.1494140625;-0.51025390625;-0.161376953125;2.627514242760598;17.241280089056513;8.454557411514898;0.75;0.01513671875;-0.47607421875;-3.5;19.9375;-12.75;
1441975351653137;-0.830322265625;0.14599609375;-0.51312255859375;-0.1612548828125;2.5952607765694573;17.21818587100402;8.493593055374182;0.73095703125;-0.00439453125;-0.45703125;3.5;22.5625;-15.5625;
1441975351668138;-0.8289794921875;0.142333984375;-0.51617431640625;-0.161865234375;2.560676617989324;17.184217944709463;8.541503375774296;0.7080078125;0.01611328125;-0.4208984375;8.9375;25.9375;-17.1875;
1441975351690139;-0.827392578125;0.1390380859375;-0.51904296875;-0.16363525390625;2.526756702879555;17.13849463236954;8.594579520639101;0.68994140625;0.06103515625;-0.4150390625;7.1875;28.375;-17.25;
1441975351713141;-0.82550048828125;0.13592529296875;-0.52197265625;-0.16632080078125;2.4912635975975177;17.08194500244389;8.65380281594299;0.68115234375;0.06005859375;-0.408203125;0.4375;29.1875;-19.4375;
1441975351728141;-0.8233642578125;0.132568359375;-0.525390625;-0.1690673828125;2.4509770210712727;17.020519018131086;8.71886073230517;0.66650390625;0.03662109375;-0.37255859375;-5.1875;29.625;-22.125;
1441975351750143;-0.82086181640625;0.12835693359375;-0.529541015625;-0.17144775390625;2.403682678691398;16.95343959948177;8.79483130905938;0.666015625;0.0283203125;-0.35009765625;-5.25;31.9375;-24.0;
1441975351791145;-0.81787109375;0.1234130859375;-0.53448486328125;-0.1739501953125;2.348785219017074;16.874370784682167;8.885513873756892;0.67431640625;0.04150390625;-0.33056640625;0.125;36.3125;-25.25;
1441975351812146;-0.814453125;0.11883544921875;-0.53973388671875;-0.1768798828125;2.290307603679973;16.787563969887966;8.980599164725424;0.71923828125;0.09619140625;-0.306640625;2.875;40.125;-25.25;
1441975351814146;-0.81024169921875;0.11541748046875;-0.54541015625;-0.18121337890625;2.22494200823339;16.685264071760997;9.080496398695749;0.806640625;0.138671875;-0.31005859375;0.625;41.5625;-22.875;
1441975351843148;-0.8050537109375;0.11358642578125;-0.551513671875;-0.1866455078125;2.150571310232251;16.572297622851842;9.179762967405871;0.9072265625;0.17919921875;-0.29052734375;-9.0;43.0625;-19.75;
1441975351848148;-0.7991943359375;0.113525390625;-0.5579833984375;-0.19281005859375;2.0684598831262035;16.454261287373697;9.273801403326638;1.03125;0.21533203125;-0.302734375;-20.0625;46.375;-14.3125;
1441975351871150;-0.79290771484375;0.114990234375;-0.56439208984375;-0.198974609375;1.9825405403496732;16.33980986273836;9.357755729189451;1.11572265625;0.20947265625;-0.30029296875;-29.625;48.375;-9.4375;
1441975351893151;-0.7864990234375;0.11798095703125;-0.57025146484375;-0.2059326171875;1.900209222940223;16.2219997107789;9.435243159291844;1.107421875;0.2001953125;-0.27490234375;-35.3125;47.75;-3.125;
1441975351909152;-0.78045654296875;0.12164306640625;-0.57568359375;-0.21173095703125;1.8202252871200986;16.122122387414553;9.496785675442897;1.01513671875;0.2255859375;-0.20703125;-43.0625;43.375;3.5;
1441975351938153;-0.77435302734375;0.12530517578125;-0.581298828125;-0.2164306640625;1.7363695479232908;16.029163202308528;9.555989061497247;0.9453125;0.19384765625;-0.20849609375;-41.0625;41.3125;8.4375;
1441975351953154;-0.7691650390625;0.1287841796875;-0.58599853515625;-0.22021484375;1.6645740320804225;15.951571014559365;9.604256414198842;0.953125;0.1240234375;-0.1396484375;-36.625;37.75;7.625;
1441975351971155;-0.764892578125;0.132568359375;-0.58953857421875;-0.22344970703125;1.6055083950231746;15.893809589222313;9.633461003171682;1.0283203125;0.150390625;-0.1181640625;-30.4375;28.9375;8.8125;
1441975351990156;-0.76165771484375;0.13629150390625;-0.591796875;-0.22607421875;1.5615985378360486;15.857604349722099;9.6435464307737;1.00830078125;0.08447265625;-0.05029296875;-29.3125;16.25;6.0;
1441975352021158;-0.75933837890625;0.13983154296875;-0.59326171875;-0.22802734375;1.5281252938290926;15.840741524018739;9.637816466970058;0.93701171875;-0.0048828125;0.01123046875;-26.6875;4.4375;0.5;
1441975352029159;-0.75775146484375;0.143310546875;-0.5936279296875;-0.23004150390625;1.5084618681864659;15.83508440853235;9.620502233614019;0.89892578125;-0.0244140625;0.0322265625;-22.0;-3.3125;-0.4375;
1441975352053160;-0.7574462890625;0.14630126953125;-0.592529296875;-0.23211669921875;1.5106848331647815;15.84252914401951;9.591574462904477;0.9296875;0.029296875;0.0380859375;-21.6875;-10.9375;0.375;
1441975352081162;-0.75799560546875;0.1495361328125;-0.5902099609375;-0.2340087890625;1.5266121426490091;15.869824100051767;9.542147541573636;0.9951171875;0.10205078125;-0.02099609375;-19.5625;-18.125;-0.6875;
1441975352090162;-0.75872802734375;0.1531982421875;-0.58770751953125;-0.2357177734375;1.5432169673472436;15.906541144869031;9.482330119173785;1.04931640625;0.11962890625;-0.041015625;-19.1875;-26.0;-1.125;
1441975352110163;-0.759521484375;0.1571044921875;-0.58551025390625;-0.23602294921875;1.5529008662742723;15.965593456189385;9.405141833012229;1.05224609375;0.107421875;-0.01513671875;-19.8125;-30.6875;0.5625;
1441975352141165;-0.76019287109375;0.16107177734375;-0.58404541015625;-0.2347412109375;1.5517946130614155;16.044845494929266;9.314440050999867;1.05078125;0.095703125;-0.02294921875;-14.1875;-30.625;5.875;
1441975352149166;-0.7606201171875;0.1649169921875;-0.58355712890625;-0.23193359375;1.5386039841814325;16.141014914593026;9.214131109970737;1.05078125;0.09765625;-0.02880859375;-7.0;-28.625;13.125;
1441975352170167;-0.7611083984375;0.1685791015625;-0.58319091796875;-0.2286376953125;1.5259963232144589;16.244283490749435;9.10956821394635;1.033203125;0.09033203125;-0.0205078125;0.8125;-25.5625;19.375;
1441975352192168;-0.7613525390625;0.17291259765625;-0.58258056640625;-0.22613525390625;1.5157394925908982;16.344179066858775;9.002071861145215;0.9736328125;0.11767578125;-0.01416015625;4.0;-24.9375;23.5625;
1441975352209169;-0.76141357421875;0.17822265625;-0.58154296875;-0.2244873046875;1.5091862084371477;16.444163188502145;8.886605220174422;0.94189453125;0.1767578125;-0.00830078125;-1.375;-25.5;28.875;
1441975352230170;-0.76116943359375;0.18450927734375;-0.58026123046875;-0.2235107421875;1.5038003907997228;16.54579510604312;8.762397643260922;0.9658203125;0.18359375;-0.04248046875;-8.9375;-25.6875;30.6875;
1441975352253171;-0.7607421875;0.19146728515625;-0.5792236328125;-0.22174072265625;1.4953296662072422;16.66965646910401;8.616513507565088;1.02099609375;0.1904296875;-0.0556640625;-15.5625;-26.3125;33.375;
1441975352269172;-0.76031494140625;0.19842529296875;-0.57861328125;-0.21881103515625;1.485604877225943;16.814524836957055;8.454669189315204;1.0859375;0.18310546875;-0.052734375;-14.4375;-27.875;38.75;
1441975352290174;-0.759765625;0.20452880859375;-0.57861328125;-0.2149658203125;1.474289275154859;16.964988189594465;8.294730744255977;1.09521484375;0.15966796875;-0.06103515625;-9.3125;-27.3125;42.8125;
1441975352315175;-0.75897216796875;0.210205078125;-0.57879638671875;-0.211669921875;1.4639387949912832;17.10155723816819;8.14813814644469;1.056640625;0.171875;-0.04052734375;-1.5625;-25.5;44.9375;
1441975352329176;-0.75726318359375;0.217041015625;-0.57879638671875;-0.2110595703125;1.4506965172269144;17.207653940667637;8.015694796957984;1.05419921875;0.2275390625;-0.04248046875;-1.4375;-22.1875;46.5625;
1441975352350177;-0.75439453125;0.22637939453125;-0.57818603515625;-0.21307373046875;1.4355656086732373;17.303347240469442;7.871521088447204;1.10498046875;0.3125;-0.03515625;-17.0;-19.75;49.8125;
1441975352373178;-0.75042724609375;0.2381591796875;-0.5771484375;-0.21697998046875;1.418087923957925;17.402248907270806;7.705401139105135;1.13427734375;0.27001953125;-0.0205078125;-39.4375;-19.5;50.6875;
1441975352391179;-0.74609375;0.25;-0.576416015625;-0.2205810546875;1.3988091238150244;17.5124719757348;7.5288487969580755;1.12353515625;0.18115234375;-0.0068359375;-58.75;-19.1875;50.3125;
1441975352418181;-0.7415771484375;0.26025390625;-0.5765380859375;-0.22369384765625;1.3729164997041745;17.616494193966297;7.367428054945115;1.10791015625;0.08837890625;-0.0087890625;-59.5;-16.5625;46.9375;
1441975352441182;-0.73699951171875;0.2686767578125;-0.57733154296875;-0.22662353515625;1.3409272808949202;17.705335408620964;7.2297933010343165;1.10595703125;0.06591796875;-0.03466796875;-51.75;-9.1875;42.375;
1441975352449183;-0.732177734375;0.27691650390625;-0.57830810546875;-0.2298583984375;1.3065881029044557;17.793169486108628;7.0926437492520575;1.103515625;0.111328125;-0.06103515625;-43.0625;-1.625;39.9375;
1441975352481185;-0.727294921875;0.28515625;-0.5791015625;-0.23333740234375;1.2746595713855033;17.881283549710915;6.953960913088039;1.11181640625;0.1044921875;-0.06005859375;-44.0625;0.625;38.8125;
1441975352502186;-0.72271728515625;0.2928466796875;-0.57952880859375;-0.23687744140625;1.2481578664196855;17.96070323778988;6.825759290370049;1.09375;0.0791015625;-0.06005859375;-45.8125;1.3125;36.6875;
1441975352533187;-0.718505859375;0.2994384765625;-0.57977294921875;-0.24078369140625;1.222775231981193;0.016280531620063224;6.724468567684811;1.10009765625;0.0556640625;-0.1220703125;-44.75;4.0625;32.125;
1441975352538188;-0.71490478515625;0.30487060546875;-0.57989501953125;-0.24444580078125;1.2006868351473836;0.05611635369817961;6.644984222036039;1.1455078125;0.07861328125;-0.15283203125;-42.25;6.125;27.1875;
1441975352553189;-0.71112060546875;0.3096923828125;-0.58013916015625;-0.24896240234375;1.171808170968119;0.07397790171053756;6.586482601259216;1.17919921875;0.0830078125;-0.18212890625;-36.5;6.6875;22.5;
1441975352570190;-0.70648193359375;0.31463623046875;-0.5804443359375;-0.25494384765625;1.13183586834709;0.0734459301226317;6.539186158727713;1.17919921875;0.11767578125;-0.15234375;-37.8125;8.1875;20.375;
1441975352598191;-0.7008056640625;0.31982421875;-0.5809326171875;-0.2630615234375;1.0762337353165736;0.044220958241494704;6.510355836741091;1.1982421875;0.20458984375;-0.1455078125;-43.875;13.8125;23.5625;
1441975352612192;-0.69293212890625;0.32635498046875;-0.58294677734375;-0.27117919921875;0.9982986265945455;0.07730703566651421;6.413176042313578;1.21240234375;0.2763671875;-0.10302734375;-53.5625;19.3125;24.6875;
1441975352629193;-0.685791015625;0.33331298828125;-0.58251953125;-0.2816162109375;0.936807091746319;0.03630582164796537;6.3770923241129065;1.29052734375;0.16259765625;-0.1015625;-60.75;30.4375;28.5;
1441975352650194;-0.67877197265625;0.33978271484375;-0.58050537109375;-0.29473876953125;0.8767425770114916;17.894175496232222;6.4315739439194735;1.322265625;0.21826171875;-0.14697265625;-73.8125;26.1875;21.0;
1441975352672195;-0.67236328125;0.3465576171875;-0.57781982421875;-0.306640625;0.8322510315456133;17.765179694830284;6.476194290659119;1.34912109375;0.26904296875;-0.0927734375;-85.625;22.0;10.125;
1441975352690196;-0.66851806640625;0.35040283203125;-0.57373046875;-0.31817626953125;0.8118636094395865;17.524410027218295;6.6466728465242095;1.365234375;0.08740234375;-0.13427734375;-84.0;18.3125;-0.0625;
1441975352710198;-0.66668701171875;0.35205078125;-0.56829833984375;-0.32965087890625;0.8183058080587424;17.196371938882546;6.913794762967261;1.27392578125;0.171875;-0.232421875;-70.625;16.8125;-13.125;
1441975352741199;-0.66754150390625;0.357421875;-0.56414794921875;-0.329345703125;0.8689126433998097;17.302444847264187;6.783231101479217;1.17578125;0.2265625;-0.27392578125;-62.125;13.25;-25.0;
1441975352749200;-0.6614990234375;0.3583984375;-0.566162109375;-0.3369140625;0.7924721277633296;17.15867985891778;6.888721409958049;1.0380859375;-0.18896484375;-0.85302734375;-27.4375;19.3125;-4.3125;
1441975352770201;-0.64178466796875;0.36090087890625;-0.5889892578125;-0.3331298828125;0.48350453665109816;17.916316577021476;6.141827677230683;1.2275390625;-0.0390625;0.02099609375;-39.5;28.0625;-10.5625;
1441975352801203;-0.65118408203125;0.35540771484375;-0.586669921875;-0.3248291015625;0.5787273437090171;17.828503960107128;6.29248845329755;1.23388671875;-0.66845703125;0.43505859375;10.5625;99.6875;58.8125;
1441975352840205;-0.64080810546875;0.37176513671875;-0.57659912109375;-0.34454345703125;0.5653243476097081;17.62513281266318;6.327659955169343;0.94482421875;0.85205078125;-1.22998046875;67.25;32.0625;44.4375;
1441975352843205;-0.6331787109375;0.38311767578125;-0.57501220703125;-0.3489990234375;0.5465828820209286;17.959016002760997;5.919560704313215;1.2685546875;0.2197265625;0.03759765625;-168.0;4.1875;0.625;
1441975352872207;-0.636474609375;0.3739013671875;-0.57525634765625;-0.35247802734375;0.5257070080105064;17.417333443747005;6.488583277481523;1.39990234375;-0.7998046875;-0.130859375;-77.75;5.4375;-16.75;
1441975352901209;-0.6412353515625;0.35870361328125;-0.578857421875;-0.3538818359375;0.5070716964126423;16.706670836260194;7.264656799943581;1.37890625;0.0986328125;0.017578125;25.5625;6.0;-46.375;
1441975352906209;-0.6461181640625;0.34539794921875;-0.57928466796875;-0.357421875;0.5504228627993222;15.998250934110446;8.018141470310969;1.458984375;0.06640625;-0.0283203125;62.375;24.875;-62.4375;
1441975352913209;-0.65240478515625;0.33251953125;-0.57763671875;-0.36090087890625;0.6483218247791284;15.490103220874305;8.568738526144752;1.4931640625;0.17724609375;-0.1044921875;42.375;19.0625;-63.625;
1441975352935210;-0.65753173828125;0.31988525390625;-0.576416015625;-0.3648681640625;0.7520856236619723;15.098108727599588;8.999174728589102;1.482421875;0.2021484375;-0.17041015625;39.625;10.8125;-69.875;
1441975352951211;-0.66217041015625;0.30859375;-0.57666015625;-0.36590576171875;0.8347946982692733;14.880093466652436;9.263233337974166;1.51513671875;0.18994140625;-0.13427734375;35.0625;14.125;-71.375;
1441975352972213;-0.66571044921875;0.2987060546875;-0.57855224609375;-0.36456298828125;0.8860382385972033;14.743242302962992;9.450719911216614;1.4521484375;0.1376953125;-0.244140625;42.0;21.25;-57.3125;
1441975352995214;-0.6666259765625;0.2899169921875;-0.58404541015625;-0.36126708984375;0.8851531261270831;14.583412874793385;9.66613382469422;1.32958984375;0.0341796875;-0.22314453125;46.4375;23.25;-46.0625;
1441975353011215;-0.6668701171875;0.283203125;-0.5902099609375;-0.3560791015625;0.8578285467507646;14.474711192153524;9.82974873029947;1.27880859375;0.04150390625;-0.08447265625;52.375;31.5625;-23.0;
1441975353033216;-0.66717529296875;0.27886962890625;-0.59429931640625;-0.35211181640625;0.8379171038315206;14.414124016660436;9.928483831083556;1.2724609375;0.02685546875;-0.13623046875;51.5625;33.125;-6.6875;
1441975353056217;-0.66741943359375;0.27545166015625;-0.59771728515625;-0.34857177734375;0.8192061534116317;14.368722623311887;10.005814560240834;1.21142578125;0.0458984375;-0.20703125;35.1875;27.5;-3.875;
1441975353088219;-0.6683349609375;0.27099609375;-0.60174560546875;-0.34332275390625;0.7972202371325628;14.341132158425562;10.07763234102651;1.1708984375;0.0146484375;-0.17578125;29.4375;22.125;-4.6875;
1441975353092219;-0.67010498046875;0.2640380859375;-0.607177734375;-0.335693359375;0.7732644989238622;14.306881243131043;10.177939689796276;1.13623046875;-0.0771484375;-0.14208984375;41.75;20.125;-8.375;
1441975353125221;-0.67279052734375;0.25439453125;-0.614013671875;-0.32513427734375;0.7457273997839873;14.273888855893421;10.301607960230378;1.0888671875;-0.0927734375;-0.1396484375;63.625;23.5625;-8.8125;
1441975353131222;-0.6756591796875;0.24224853515625;-0.62164306640625;-0.313720703125;0.7263823224779515;14.194137330764747;10.486068685304241;1.04296875;-0.072265625;-0.13037109375;88.25;26.0625;-5.3125;
1441975353164224;-0.67816162109375;0.23284912109375;-0.62841796875;-0.3017578125;0.6890234922120968;14.178600464346248;10.596132417842112;0.9853515625;0.015625;-0.09033203125;103.0;26.25;1.625;
1441975353175224;-0.67938232421875;0.2293701171875;-0.63299560546875;-0.2919921875;0.6317475296212581;14.24313222144095;10.590246684742429;0.93798828125;0.16259765625;-0.076171875;93.125;20.8125;18.625;
1441975353191225;-0.678955078125;0.23114013671875;-0.63604736328125;-0.28485107421875;0.5572249759580842;14.359781894617976;10.497773321727914;0.91650390625;0.1982421875;-0.07421875;58.5625;9.75;34.6875;
1441975353221227;-0.67803955078125;0.234130859375;-0.6390380859375;-0.2777099609375;0.47400210468511783;14.529507779037313;10.346787170991503;0.9140625;0.119140625;-0.0185546875;24.5625;0.5625;41.125;
1441975353235228;-0.67767333984375;0.23553466796875;-0.64288330078125;-0.2684326171875;0.388035136652365;14.785635016444004;10.125517183912239;0.89013671875;0.03125;0.02001953125;19.6875;-2.75;41.125;
1441975353251229;-0.6785888671875;0.2344970703125;-0.647216796875;-0.25634765625;0.3098108222606918;15.241355763175712;9.727069395299443;0.86083984375;-0.0244140625;0.04345703125;35.375;-3.1875;40.5625;
1441975353273230;-0.68017578125;0.23095703125;-0.652587890625;-0.24139404296875;0.23900551070170445;15.988118089104674;9.060374280193301;0.8251953125;-0.0361328125;0.0205078125;58.375;-4.5625;40.75;
1441975353295231;-0.6817626953125;0.22528076171875;-0.6593017578125;-0.22332763671875;0.18268239367637026;17.323689702325723;7.826715629514683;0.79638671875;-0.02490234375;0.02880859375;80.75;-3.4375;44.3125;
1441975353336233;-0.6827392578125;0.21826171875;-0.6669921875;-0.20355224609375;0.17460387112283235;1.2846942217245938;5.979814799390468;0.8427734375;0.04296875;0.02099609375;102.75;3.0;53.0625;
1441975353341234;-0.682861328125;0.2105712890625;-0.67498779296875;-0.1839599609375;0.22487190756092637;2.865823569894898;4.514022290989782;0.9150390625;0.09326171875;-0.01708984375;114.9375;10.0;57.75;
1441975353355235;-0.68212890625;0.20330810546875;-0.6826171875;-0.16558837890625;0.30569601110060557;3.7807918546654564;3.7066267032948503;0.931640625;0.19677734375;-0.02734375;116.0;15.125;57.75;
1441975353379236;-0.68035888671875;0.19573974609375;-0.68988037109375;-0.15167236328125;0.3653470828476591;4.398261390007424;3.1790341407458222;0.89697265625;0.271484375;-0.01318359375;108.6875;18.0625;57.125;
1441975353394237;-0.67730712890625;0.18988037109375;-0.69720458984375;-0.138671875;0.44524129963744374;4.889537374541595;2.7661347695810674;0.84814453125;0.30615234375;0.04443359375;90.625;22.5;59.125;
1441975353415238;-0.67364501953125;0.184326171875;-0.70458984375;-0.12591552734375;0.5357839597315385;5.261394779411246;2.4700174522977965;0.88623046875;0.29931640625;0.05810546875;79.125;27.5;63.9375;
1441975353431239;-0.66949462890625;0.17803955078125;-0.71234130859375;-0.11309814453125;0.6306949611302316;5.575911102225162;2.234330318339369;0.93359375;0.2646484375;0.05517578125;76.0625;31.0;63.375;
1441975353461241;-0.665283203125;0.17144775390625;-0.71978759765625;-0.1002197265625;0.7271774004297398;5.816323402906053;2.0739658185752363;0.91162109375;0.27783203125;0.0732421875;79.0625;34.875;63.625;
1441975353475241;-0.6617431640625;0.16522216796875;-0.72601318359375;-0.08831787109375;0.8127436072304;5.976618065337982;1.988019448477502;0.9111328125;0.26806640625;0.0703125;79.6875;35.0625;62.25;
1441975353491242;-0.6588134765625;0.15997314453125;-0.73101806640625;-0.077880859375;0.8867187804452357;6.081096216892474;1.9477592698884545;0.91552734375;0.26220703125;0.08544921875;73.0625;28.4375;58.625;
1441975353513244;-0.65631103515625;0.15509033203125;-0.73516845703125;-0.06939697265625;0.944648828752777;6.172828415942093;1.9107156382944517;0.927734375;0.2119140625;0.13671875;62.375;19.1875;51.9375;
1441975353535245;-0.65411376953125;0.15203857421875;-0.73834228515625;-0.062744140625;0.9958567484359191;6.227956700195682;1.8951814384085095;0.8994140625;0.193359375;0.1689453125;52.1875;14.625;43.375;
1441975353551246;-0.6527099609375;0.15130615234375;-0.7401123046875;-0.058349609375;1.0352288002033092;6.233794465264938;1.9101825759362758;0.83642578125;0.13134765625;0.18310546875;37.375;9.1875;37.0;
1441975353581247;-0.6531982421875;0.15179443359375;-0.73980712890625;-0.05523681640625;1.0524531534540174;6.171874375581162;1.9827722188356571;0.818359375;0.09033203125;0.24560546875;17.4375;-2.125;32.5625;
1441975353596248;-0.6561279296875;0.1534423828125;-0.73699951171875;-0.0540771484375;1.039454533136456;6.033453696728234;2.119301215572719;0.822265625;0.07470703125;0.20947265625;6.75;-14.6875;28.3125;
1441975353613249;-0.66058349609375;0.1556396484375;-0.732421875;-0.054931640625;1.0036160593369745;5.845279453200869;2.2951265492028514;0.80810546875;0.04345703125;0.15869140625;-6.4375;-30.1875;19.5625;
1441975353636251;-0.66632080078125;0.15838623046875;-0.72650146484375;-0.0567626953125;0.9580656393708918;5.5926311534968685;2.5292625415873964;0.8046875;0.06494140625;0.15576171875;-17.3125;-42.3125;12.6875;
1441975353656252;-0.67291259765625;0.1629638671875;-0.7191162109375;-0.0595703125;0.918590008321556;5.249793161394881;2.8419434050936063;0.80908203125;0.06298828125;0.12353515625;-23.625;-50.875;8.625;
1441975353679253;-0.67987060546875;0.1693115234375;-0.71087646484375;-0.06207275390625;0.9054319077471215;4.83400572277972;3.221393171677894;0.80615234375;0.02392578125;0.07861328125;-35.375;-57.5625;7.75;
1441975353692254;-0.6865234375;0.17535400390625;-0.70281982421875;-0.0635986328125;0.9160598240684774;4.426885115837058;3.597234453183292;0.810546875;-0.07421875;0.03662109375;-41.5625;-61.5;8.625;
1441975353715255;-0.693359375;0.17987060546875;-0.69488525390625;-0.06427001953125;0.9377764942251058;4.039101517853522;3.9634779007270975;0.80615234375;-0.16552734375;0.0107421875;-36.1875;-60.1875;5.6875;
1441975353731256;-0.70050048828125;0.1827392578125;-0.6868896484375;-0.06439208984375;0.9663870069942326;3.666969259702642;4.323032644899101;0.7705078125;-0.16748046875;-0.05810546875;-25.9375;-57.25;2.125;
1441975353753257;-0.70745849609375;0.1849365234375;-0.67913818359375;-0.06463623046875;1.0026474247068937;3.327480589273229;4.652180668106585;0.81298828125;-0.14697265625;-0.11474609375;-16.6875;-55.9375;0.0;
1441975353775259;-0.714111328125;0.1871337890625;-0.6712646484375;-0.066650390625;1.0375644431030315;3.0021320071474182;4.959788151856872;0.90576171875;-0.14306640625;-0.17236328125;-14.125;-51.75;-2.4375;
1441975353791259;-0.72015380859375;0.1910400390625;-0.66326904296875;-0.07147216796875;1.0743881582291215;2.6906321772348574;5.2349227983123505;0.9306640625;-0.10888671875;-0.232421875;-20.75;-46.3125;-5.9375;
1441975353822261;-0.7247314453125;0.19775390625;-0.655517578125;-0.077880859375;1.1233324112116756;2.435239758934302;5.435423701476815;0.908203125;-0.091796875;-0.2666015625;-39.0;-40.875;-8.875;
1441975353850263;-0.727783203125;0.20538330078125;-0.64892578125;-0.084228515625;1.1733503032519281;2.2530406249911414;5.558976927488124;0.88720703125;-0.189453125;-0.31787109375;-56.6875;-31.25;-9.0;
1441975353868264;-0.7303466796875;0.21173095703125;-0.643310546875;-0.0894775390625;1.2182373054731455;2.10919662365365;5.654025065752437;0.9033203125;-0.294921875;-0.34619140625;-60.6875;-20.625;-10.125;
1441975353874264;-0.73309326171875;0.2159423828125;-0.63824462890625;-0.09344482421875;1.2577707054249905;1.9768053939463592;5.751831389726334;0.88232421875;-0.35791015625;-0.390625;-50.8125;-12.75;-14.5;
1441975353895265;-0.73602294921875;0.2188720703125;-0.63330078125;-0.09661865234375;1.2966027802520417;1.8493610121108468;5.8531918625591235;0.86328125;-0.3642578125;-0.3955078125;-37.375;-11.8125;-19.75;
1441975353911266;-0.73870849609375;0.22186279296875;-0.628662109375;-0.09967041015625;1.3354270469877716;1.7380641085905562;5.938682202956724;0.87646484375;-0.35986328125;-0.38818359375;-29.25;-13.625;-22.0625;
1441975353934268;-0.74078369140625;0.224853515625;-0.624755859375;-0.1024169921875;1.3699665779469716;1.6530960914141293;5.999151655877039;0.873046875;-0.35009765625;-0.40234375;-29.0625;-11.3125;-20.0625;
1441975353955269;-0.74285888671875;0.22735595703125;-0.620849609375;-0.10504150390625;1.4033656859232773;1.5686553095036488;6.061498708240064;0.89013671875;-0.34130859375;-0.404296875;-27.3125;-7.125;-17.8125;
1441975353979270;-0.7457275390625;0.2303466796875;-0.6158447265625;-0.108154296875;1.4487177616415299;1.4645626462879748;6.139309126911281;0.90625;-0.322265625;-0.4404296875;-24.6875;-5.5;-17.5625;
1441975353994271;-0.7489013671875;0.2337646484375;-0.6099853515625;-0.112060546875;1.5006780976922052;1.3471677384542144;6.225012716621204;0.876953125;-0.3203125;-0.4765625;-29.3125;-10.1875;-19.625;
1441975354015272;-0.75201416015625;0.2371826171875;-0.6041259765625;-0.11553955078125;1.5563078321228168;1.2429634272054297;6.299117391257773;0.84423828125;-0.28173828125;-0.46337890625;-35.3125;-15.5625;-19.25;
1441975354040274;-0.754638671875;0.24102783203125;-0.5987548828125;-0.11810302734375;1.613884815012802;1.1698434939757436;6.344029031635386;0.810546875;-0.25830078125;-0.47802734375;-33.1875;-15.125;-16.4375;
1441975354054274;-0.75738525390625;0.24481201171875;-0.5933837890625;-0.12017822265625;1.6749334192269556;1.1056232568206996;6.382302057844622;0.81982421875;-0.306640625;-0.5078125;-31.4375;-11.9375;-14.1875;
1441975354075276;-0.76043701171875;0.2489013671875;-0.58734130859375;-0.122314453125;1.7442090813366993;1.0389698553036202;6.421125687694924;0.85302734375;-0.2919921875;-0.494140625;-29.375;-15.0;-11.375;
1441975354091277;-0.76361083984375;0.25311279296875;-0.5806884765625;-0.125244140625;1.815967353760391;0.9617692104195654;6.466289779052731;0.79833984375;-0.2431640625;-0.5185546875;-30.1875;-17.5625;-8.375;
1441975354114278;-0.76666259765625;0.25701904296875;-0.5743408203125;-0.12811279296875;1.8844010365774935;0.890430309528345;6.507180283620597;0.76513671875;-0.19091796875;-0.49755859375;-34.4375;-21.1875;-7.9375;
1441975354135279;-0.7694091796875;0.26031494140625;-0.568603515625;-0.13043212890625;1.9470723225127757;0.8307729647889568;6.5412597149979925;0.72412109375;-0.14990234375;-0.47119140625;-32.625;-20.75;-6.5625;
1441975354151280;-0.7723388671875;0.26202392578125;-0.5633544921875;-0.1322021484375;2.0036856586892346;0.7702435488101956;6.585375005299296;0.68798828125;-0.1337890625;-0.47412109375;-27.5;-17.625;-5.8125;
1441975354174281;-0.77545166015625;0.2628173828125;-0.55841064453125;-0.13360595703125;2.0576763260718036;0.7107378531175218;6.6340693440239775;0.74169921875;-0.11767578125;-0.4833984375;-18.6875;-16.5625;-9.4375;
1441975354195283;-0.77850341796875;0.26287841796875;-0.553955078125;-0.13427734375;2.108552638376759;0.6601428923291;6.680123151106608;0.77734375;-0.1005859375;-0.46142578125;-13.25;-18.8125;-11.375;
1441975354211283;-0.7813720703125;0.26177978515625;-0.55047607421875;-0.13421630859375;2.149927975903909;0.618035076263393;6.7260947816053545;0.78125;-0.09619140625;-0.44677734375;-7.5625;-18.5;-11.6875;
1441975354234285;-0.7838134765625;0.25946044921875;-0.54803466796875;-0.13446044921875;2.175289579363782;0.5727004644028861;6.779635201101618;0.7880859375;-0.09033203125;-0.43310546875;1.125;-15.4375;-13.3125;
1441975354255286;-0.785400390625;0.255859375;-0.54705810546875;-0.1358642578125;2.175184055899048;0.5170358214706906;6.844706418641659;0.8056640625;-0.052734375;-0.427734375;5.25;-8.9375;-15.875;
1441975354287288;-0.7874755859375;0.2501220703125;-0.5465087890625;-0.13677978515625;2.170617111023231;0.45083211701100734;6.93176820398732;0.8720703125;-0.0400390625;-0.408203125;5.6875;-0.4375;-22.125;
1441975354301289;-0.78936767578125;0.2440185546875;-0.54608154296875;-0.13861083984375;2.161103045760338;0.37187691053505456;7.029330352330651;0.8994140625;0.01416015625;-0.4091796875;16.75;0.5;-27.5625;
1441975354318290;-0.79052734375;0.238525390625;-0.54595947265625;-0.14190673828125;2.143167485945068;0.2833938769283268;7.1277012182186565;0.9521484375;0.03662109375;-0.40869140625;13.9375;1.6875;-30.875;
1441975354331290;-0.79156494140625;0.23345947265625;-0.54583740234375;-0.145263671875;2.127533027185199;0.1966481680140852;7.222255440882575;1.005859375;0.095703125;-0.39892578125;6.5;5.1875;-28.0625;
1441975354355292;-0.792724609375;0.2281494140625;-0.54583740234375;-0.14739990234375;2.116651703739676;0.12196514492143497;7.310825983795287;1.02783203125;0.10302734375;-0.42138671875;4.8125;6.25;-26.3125;
1441975354375293;-0.79345703125;0.2230224609375;-0.54620361328125;-0.14971923828125;2.1013356283678406;0.048251685871733015;7.396900625814066;1.01416015625;0.076171875;-0.39013671875;9.875;3.3125;-26.125;
1441975354391294;-0.79486083984375;0.217041015625;-0.5458984375;-0.15228271484375;2.0959889343137412;17.958979460481487;7.500952630441736;1.06982421875;0.07958984375;-0.35791015625;8.75;3.375;-25.5625;
1441975354414295;-0.7967529296875;0.21160888671875;-0.54400634765625;-0.1566162109375;2.1076784245484603;17.84590403765677;7.618392735345095;1.11767578125;0.1142578125;-0.42333984375;10.625;2.125;-30.25;
1441975354443297;-0.7987060546875;0.206787109375;-0.541259765625;-0.1624755859375;2.128891398662972;17.717954544869816;7.7413514877814915;1.119140625;0.12548828125;-0.4365234375;-0.6875;-4.3125;-35.3125;
1441975354459298;-0.80145263671875;0.200927734375;-0.537353515625;-0.169189453125;2.1681882803188994;17.569953272959186;7.884683887407697;1.10791015625;0.11279296875;-0.384765625;-11.75;-10.0625;-40.5625;
1441975354474299;-0.80523681640625;0.1937255859375;-0.53216552734375;-0.17572021484375;2.231521780725245;17.416503554265386;8.039261181290465;1.033203125;0.08740234375;-0.373046875;-13.625;-15.3125;-52.75;
1441975354503300;-0.8096923828125;0.1849365234375;-0.526611328125;-0.1815185546875;2.309449572686033;17.267825885320153;8.198649349192513;0.9208984375;0.07421875;-0.359375;-10.0625;-21.4375;-62.875;
1441975354511301;-0.8150634765625;0.17388916015625;-0.5205078125;-0.18603515625;2.4062895502491495;17.127818145276194;8.363943392373315;0.84130859375;0.037109375;-0.31982421875;-3.1875;-25.8125;-72.0625;
1441975354534302;-0.8216552734375;0.16070556640625;-0.51318359375;-0.1890869140625;2.53050347875949;17.002956361526643;8.528633828676563;0.828125;0.0703125;-0.32421875;10.8125;-30.0;-79.4375;
1441975354555303;-0.82861328125;0.1458740234375;-0.50531005859375;-0.19195556640625;2.6701658116670797;16.88380793383582;8.695000890266636;0.8359375;0.1044921875;-0.369140625;23.75;-37.0625;-87.1875;
1441975354571304;-0.836181640625;0.130126953125;-0.49658203125;-0.193359375;2.827460370030993;16.790478445527764;8.845230076873229;0.86328125;0.17138671875;-0.36572265625;31.0625;-41.3125;-92.75;
1441975354594305;-0.8431396484375;0.11529541015625;-0.48748779296875;-0.195556640625;2.9879110836346854;16.706683126391113;8.978394356430286;0.88134765625;0.19677734375;-0.43359375;40.0;-44.5;-94.6875;
1441975354616307;-0.8487548828125;0.1015625;-0.47979736328125;-0.19793701171875;3.1285026649460796;16.632849921892806;9.09675061257479;0.91943359375;0.2490234375;-0.43408203125;33.875;-48.125;-91.5625;
1441975354631307;-0.85400390625;0.0889892578125;-0.471923828125;-0.20037841796875;3.268799514092203;16.571787106545816;9.197104626369736;1.0048828125;0.24755859375;-0.41259765625;29.0;-43.8125;-87.375;
1441975354654309;-0.8590087890625;0.0782470703125;-0.46343994140625;-0.2032470703125;3.4114513255886965;16.52234468374084;9.27600151612818;1.0185546875;0.287109375;-0.42236328125;25.8125;-46.0625;-81.25;
1441975354675310;-0.86370849609375;0.0682373046875;-0.455078125;-0.205810546875;3.5500156946448342;16.482702126222797;9.343381330628024;0.9931640625;0.29052734375;-0.4345703125;18.0;-49.875;-75.0625;
1441975354691311;-0.86785888671875;0.05810546875;-0.447509765625;-0.20794677734375;3.6787066078763253;16.447290567370775;9.409246602366213;0.96142578125;0.2412109375;-0.42529296875;15.1875;-50.4375;-74.125;
1441975354714312;-0.87109375;0.0484619140625;-0.4412841796875;-0.21026611328125;3.78981914827728;16.41091731572434;9.473829855185294;0.90087890625;0.2294921875;-0.38671875;17.5625;-46.4375;-72.9375;
1441975354736313;-0.87371826171875;0.0396728515625;-0.435546875;-0.21319580078125;3.8929448690905595;16.373212291046077;9.533648893539201;0.85791015625;0.255859375;-0.34716796875;16.375;-39.0;-67.75;
1441975354750314;-0.8759765625;0.0325927734375;-0.4293212890625;-0.21771240234375;3.99811273370675;16.331637758191416;9.582830642449261;0.818359375;0.3017578125;-0.38232421875;11.375;-33.75;-61.625;
1441975354773316;-0.8780517578125;0.02716064453125;-0.4229736328125;-0.222412109375;4.099193167553672;16.29596107811301;9.618138332409847;0.763671875;0.32861328125;-0.3876953125;-0.875;-35.25;-56.1875;
1441975354796317;-0.88006591796875;0.02252197265625;-0.41717529296875;-0.2259521484375;4.189435999295849;16.27162238869737;9.644064896146531;0.72998046875;0.28662109375;-0.35205078125;-7.25;-38.1875;-50.9375;
1441975354826319;-0.88189697265625;0.018310546875;-0.412353515625;-0.2279052734375;4.264094287360031;16.258692161373304;9.664194222848213;0.7001953125;0.2421875;-0.3193359375;-4.0625;-38.0;-45.375;
1441975354857320;-0.88360595703125;0.0150146484375;-0.4083251953125;-0.22882080078125;4.324631403024092;16.254558687325982;9.67662951642836;0.6787109375;0.21826171875;-0.31640625;1.8125;-33.3125;-39.375;
1441975354860321;-0.8848876953125;0.01263427734375;-0.4051513671875;-0.22967529296875;4.371637997482937;16.250959787934555;9.685241669965908;0.69091796875;0.2548828125;-0.34814453125;5.25;-29.5;-30.375;
1441975354879322;-0.88519287109375;0.01141357421875;-0.403564453125;-0.2314453125;4.397391732379533;16.238740990816613;9.694068052623946;0.7607421875;0.33154296875;-0.4091796875;4.625;-25.3125;-22.875;
1441975354909323;-0.884521484375;0.01190185546875;-0.40350341796875;-0.23394775390625;4.400032214469999;16.220745847591086;9.698628718883137;0.8447265625;0.396484375;-0.453125;-2.9375;-17.875;-16.0625;
1441975354916324;-0.883056640625;0.0145263671875;-0.40472412109375;-0.2373046875;4.3813271601754895;16.198097323498665;9.695422575882796;0.9365234375;0.47607421875;-0.48974609375;-9.6875;-12.0625;-5.875;
1441975354946326;-0.88128662109375;0.01885986328125;-0.40692138671875;-0.23980712890625;4.343196627530248;16.18356575972254;9.681056432220586;0.9951171875;0.4765625;-0.5244140625;-21.3125;-6.1875;3.0;
1441975354953326;-0.87908935546875;0.0247802734375;-0.410400390625;-0.24127197265625;4.2821397489767925;16.17747330921549;9.65673780890312;0.962890625;0.42578125;-0.5029296875;-22.5625;-2.4375;13.375;
1441975354977327;-0.87664794921875;0.0308837890625;-0.41522216796875;-0.2412109375;4.202407919535532;16.180085277004466;9.630530511367823;0.9091796875;0.32568359375;-0.4482421875;-23.8125;2.75;22.6875;
1441975354998328;-0.87451171875;0.0367431640625;-0.42022705078125;-0.239501953125;4.118978591149372;16.19517787734686;9.600419938666473;0.87109375;0.30908203125;-0.4169921875;-16.6875;10.375;29.625;
1441975355013329;-0.872314453125;0.04241943359375;-0.4249267578125;-0.23828125;4.040341130019863;16.207354769163324;9.571686570169584;0.8154296875;0.28076171875;-0.4482421875;-9.25;14.6875;33.3125;
1441975355036331;-0.86981201171875;0.0474853515625;-0.430419921875;-0.2366943359375;3.9541786213752395;16.21869031418722;9.54843571643569;0.787109375;0.31982421875;-0.45751953125;-9.8125;16.4375;34.5;
1441975355058332;-0.867431640625;0.05206298828125;-0.435546875;-0.235107421875;3.873963172552976;16.230121684233808;9.526976010022862;0.8251953125;0.32177734375;-0.4501953125;-6.875;20.375;33.1875;
1441975355081333;-0.86517333984375;0.05694580078125;-0.43994140625;-0.23406982421875;3.801708539709715;16.24081678749942;9.50216091365882;0.8134765625;0.330078125;-0.46533203125;-4.875;21.1875;31.625;
1441975355096334;-0.8629150390625;0.0621337890625;-0.444091796875;-0.23333740234375;3.7315787738712523;16.251401087500287;9.474742694492628;0.76953125;0.33447265625;-0.453125;-8.5;18.375;32.625;
1441975355118335;-0.86077880859375;0.0672607421875;-0.44732666015625;-0.2335205078125;3.6732713110489015;16.25721789871389;9.447850966769515;0.822265625;0.35791015625;-0.4638671875;-9.8125;16.25;34.0;
1441975355133336;-0.85894775390625;0.0723876953125;-0.4493408203125;-0.2349853515625;3.631100530287881;16.2563721740279;9.421483016691548;0.8291015625;0.3740234375;-0.48583984375;-14.5;13.5;30.9375;
1441975355157338;-0.85772705078125;0.0775146484375;-0.449951171875;-0.23663330078125;3.6057189788872055;16.258767292306214;9.390395145929025;0.77587890625;0.39697265625;-0.4716796875;-19.5;8.375;29.125;
1441975355187339;-0.85748291015625;0.08221435546875;-0.44854736328125;-0.23846435546875;3.6062428229391177;16.264667242068896;9.355800675826274;0.79296875;0.41357421875;-0.5087890625;-20.75;1.9375;26.875;
1441975355194340;-0.85748291015625;0.0870361328125;-0.446044921875;-0.2413330078125;3.620382374050033;16.265196713446045;9.32089438109874;0.79638671875;0.4296875;-0.556640625;-20.6875;-7.1875;22.5;
1441975355223341;-0.85791015625;0.091552734375;-0.44268798828125;-0.24444580078125;3.6463330018825166;16.265005710628675;9.286476823065497;0.7626953125;0.39990234375;-0.53515625;-26.6875;-13.4375;17.25;
1441975355238342;-0.8587646484375;0.0955810546875;-0.43829345703125;-0.24786376953125;3.686569978109817;16.263010032883116;9.253904754413401;0.70947265625;0.359375;-0.5390625;-28.5625;-16.125;13.0625;
1441975355256343;-0.860107421875;0.09869384765625;-0.43316650390625;-0.25091552734375;3.7384956681975696;16.26248278898002;9.224803192367375;0.65869140625;0.357421875;-0.5341796875;-28.375;-20.375;8.6875;
1441975355278345;-0.86163330078125;0.100830078125;-0.427734375;-0.25408935546875;3.797644428454214;16.257781015812938;9.203175592360484;0.66650390625;0.384765625;-0.54345703125;-23.6875;-24.375;4.875;
1441975355306346;-0.8634033203125;0.10186767578125;-0.421875;-0.25738525390625;3.865860525038493;16.249001206912776;9.189358075294196;0.70849609375;0.4208984375;-0.55419921875;-20.375;-26.1875;-0.3125;
1441975355313347;-0.865234375;0.10260009765625;-0.41583251953125;-0.2608642578125;3.937426355260095;16.23798775469889;9.178042023258868;0.7431640625;0.439453125;-0.57470703125;-18.3125;-28.25;-6.9375;
1441975355336348;-0.86676025390625;0.1036376953125;-0.41033935546875;-0.2640380859375;4.0006002820695405;16.228794535061045;9.165099455975273;0.73828125;0.4169921875;-0.56005859375;-19.0625;-29.8125;-11.1875;
1441975355359349;-0.86822509765625;0.104248046875;-0.40478515625;-0.2674560546875;4.0658843205657895;16.216112934734515;9.156168388580902;0.75439453125;0.39208984375;-0.580078125;-20.1875;-26.875;-10.3125;
1441975355373350;-0.86993408203125;0.10400390625;-0.39874267578125;-0.27105712890625;4.14018838849242;16.200476036800232;9.152589127994883;0.74462890625;0.3701171875;-0.61083984375;-21.8125;-25.3125;-14.3125;
1441975355397351;-0.87188720703125;0.10284423828125;-0.392578125;-0.2742919921875;4.219194489940893;16.185519139592916;9.15372042340022;0.70849609375;0.35986328125;-0.58935546875;-21.0;-26.8125;-20.25;
1441975355418353;-0.8740234375;0.10113525390625;-0.3861083984375;-0.27716064453125;4.3032599106882925;16.172605548597183;9.156400763421791;0.68310546875;0.36083984375;-0.60302734375;-17.25;-26.125;-24.375;
1441975355433353;-0.87615966796875;0.098876953125;-0.37982177734375;-0.27996826171875;4.387308593973303;16.158511023718813;9.162985550324157;0.66748046875;0.3779296875;-0.6142578125;-14.0;-26.875;-25.9375;
1441975355455355;-0.87860107421875;0.09564208984375;-0.3734130859375;-0.2821044921875;4.476117515729148;16.147599908333234;9.173485470766048;0.66552734375;0.39208984375;-0.6064453125;-11.75;-26.25;-28.5;
1441975355478356;-0.8809814453125;0.0921630859375;-0.3668212890625;-0.284423828125;4.567733248053356;16.13519119816909;9.185427178291356;0.638671875;0.3955078125;-0.619140625;-6.1875;-25.375;-31.6875;
1441975355494357;-0.88311767578125;0.08868408203125;-0.3604736328125;-0.28704833984375;4.656541402085043;16.120242310995067;9.19861741799069;0.62890625;0.42041015625;-0.650390625;-6.75;-24.9375;-33.1875;
1441975355523359;-0.8848876953125;0.0853271484375;-0.354736328125;-0.28973388671875;4.7375813441884915;16.104073778408623;9.21255302006241;0.65478515625;0.43701171875;-0.65576171875;-8.75;-24.125;-33.8125;
1441975355539359;-0.8863525390625;0.0821533203125;-0.34967041015625;-0.292236328125;4.809856531409857;16.08853824106162;9.22631292789265;0.6865234375;0.43115234375;-0.669921875;-10.375;-21.75;-34.1875;
1441975355569361;-0.8878173828125;0.07916259765625;-0.34454345703125;-0.29473876953125;4.882177708455622;16.073921524893333;9.238285591820837;0.68310546875;0.41748046875;-0.6806640625;-11.0625;-18.5;-32.6875;
1441975355583362;-0.88946533203125;0.07623291015625;-0.33953857421875;-0.29632568359375;4.952176356969801;16.066177132089678;9.247414398868326;0.6220703125;0.37451171875;-0.66552734375;-13.0625;-17.8125;-32.625;
1441975355599363;-0.89129638671875;0.07269287109375;-0.3349609375;-0.297119140625;5.019433586017333;16.062432843140897;9.259352533935935;0.5869140625;0.326171875;-0.6591796875;-10.3125;-17.5;-32.3125;
1441975355615364;-0.89306640625;0.068359375;-0.33087158203125;-0.29730224609375;5.083462181570086;16.060419850981177;9.276184992001655;0.57177734375;0.30712890625;-0.6318359375;-4.25;-16.0625;-33.6875;
1441975355635365;-0.89459228515625;0.06365966796875;-0.32745361328125;-0.2974853515625;5.141271764752005;16.056520274518974;9.297107393549554;0.5625;0.32568359375;-0.61767578125;1.4375;-13.3125;-34.625;
1441975355658366;-0.8958740234375;0.05859375;-0.32470703125;-0.29779052734375;5.193130457227155;16.050001880243645;9.32232750411849;0.56591796875;0.345703125;-0.60009765625;3.125;-10.0;-35.3125;
1441975355676367;-0.89666748046875;0.053466796875;-0.32269287109375;-0.29852294921875;5.2370967403706175;16.03892119463927;9.350907627060735;0.56689453125;0.3544921875;-0.59228515625;3.875;-6.4375;-36.25;
1441975355696368;-0.89697265625;0.04876708984375;-0.3221435546875;-0.2989501953125;5.262611694916198;16.02803043399713;9.380044456581434;0.56494140625;0.3720703125;-0.54345703125;3.4375;-3.875;-35.1875;
1441975355718370;-0.8970947265625;0.0443115234375;-0.322509765625;-0.29876708984375;5.276316197984193;16.020116489648025;9.408737405740249;0.5908203125;0.38623046875;-0.52880859375;4.5625;1.8125;-30.5625;
1441975355733371;-0.89697265625;0.04010009765625;-0.32330322265625;-0.29901123046875;5.284967701821848;16.008935279471487;9.438018075106378;0.60986328125;0.39697265625;-0.5458984375;7.1875;6.125;-26.8125;
1441975355755372;-0.89617919921875;0.0362548828125;-0.32489013671875;-0.3001708984375;5.284165907073245;15.990043598933875;9.469575878065113;0.59521484375;0.412109375;-0.5283203125;5.1875;8.1875;-24.5625;
1441975355778373;-0.89501953125;0.03271484375;-0.32708740234375;-0.301513671875;5.275598031979099;15.968827217050173;9.501618174278574;0.59228515625;0.455078125;-0.490234375;2.0625;11.875;-21.25;
1441975355794374;-0.8939208984375;0.02984619140625;-0.3294677734375;-0.302490234375;5.262194392648581;15.951029657980138;9.52919242684915;0.6025390625;0.47998046875;-0.49072265625;0.5;15.3125;-18.125;
1441975355815375;-0.89276123046875;0.0277099609375;-0.3326416015625;-0.30267333984375;5.2361210866777155;15.938233607059415;9.552881141521912;0.59814453125;0.48681640625;-0.4658203125;2.4375;13.875;-13.4375;
1441975355838377;-0.891357421875;0.0257568359375;-0.33685302734375;-0.30230712890625;5.197097668438255;15.926900742701266;9.577600818878356;0.6318359375;0.4716796875;-0.46533203125;4.125;15.75;-8.625;
1441975355854377;-0.8897705078125;0.02410888671875;-0.34161376953125;-0.30181884765625;5.1506429727304175;15.915338653548336;9.602130437288551;0.640625;0.4814453125;-0.46533203125;6.6875;20.9375;-4.4375;
1441975355883379;-0.887939453125;0.02337646484375;-0.34674072265625;-0.30145263671875;5.096394397434278;15.903270523699266;9.622749624004719;0.65087890625;0.525390625;-0.4794921875;7.625;24.4375;0.125;
1441975355898380;-0.88604736328125;0.02325439453125;-0.35186767578125;-0.30120849609375;5.039799862921417;15.891161205367661;9.640129496441869;0.68115234375;0.52294921875;-0.498046875;3.875;25.25;4.4375;
1441975355914381;-0.88427734375;0.0235595703125;-0.357177734375;-0.300048828125;4.9777506573744486;15.88553602095284;9.65345453420029;0.63916015625;0.4892578125;-0.4921875;0.625;26.25;7.75;
1441975355943383;-0.8826904296875;0.02447509765625;-0.363037109375;-0.297607421875;4.905029966228786;15.88885045300013;9.661513954523292;0.6181640625;0.48291015625;-0.50146484375;4.125;28.125;13.0;
1441975355958383;-0.88079833984375;0.02593994140625;-0.369873046875;-0.29461669921875;4.817974068363961;15.894294804172386;9.668117389286108;0.63720703125;0.50048828125;-0.52490234375;9.6875;30.1875;20.0;
1441975355975384;-0.87884521484375;0.02789306640625;-0.37725830078125;-0.2908935546875;4.721336614351239;15.904493995431196;9.671461741253443;0.66943359375;0.51220703125;-0.49951171875;12.1875;32.8125;26.0;
1441975355996386;-0.8765869140625;0.03106689453125;-0.3851318359375;-0.2869873046875;4.61323837018865;15.917191816768344;9.667972262361864;0.69873046875;0.52197265625;-0.490234375;15.1875;34.3125;31.4375;
1441975356026387;-0.87384033203125;0.03497314453125;-0.3935546875;-0.28350830078125;4.49616396719935;15.926696819639858;9.662734130010952;0.72119140625;0.51123046875;-0.49560546875;13.0625;35.5;38.375;
1441975356034388;-0.87078857421875;0.03936767578125;-0.402099609375;-0.28033447265625;4.375598034213865;15.934601971333253;9.655504999527121;0.75732421875;0.49658203125;-0.47119140625;8.9375;36.375;41.6875;
1441975356056389;-0.867431640625;0.044189453125;-0.41070556640625;-0.27752685546875;4.252531460788693;15.940481857538888;9.646691471385576;0.77734375;0.4541015625;-0.443359375;5.0625;36.125;41.4375;
1441975356078390;-0.86407470703125;0.0496826171875;-0.4188232421875;-0.27490234375;4.131888577089331;15.948506597237932;9.631653433540786;0.78955078125;0.41015625;-0.42138671875;0.8125;35.6875;41.8125;
1441975356094391;-0.86065673828125;0.05560302734375;-0.42681884765625;-0.272216796875;4.010313036659205;15.959098867485684;9.612378779819911;0.806640625;0.390625;-0.4013671875;-1.4375;31.75;43.25;
1441975356115392;-0.85711669921875;0.0618896484375;-0.434814453125;-0.2694091796875;3.8865240557440344;15.97238241059807;9.589334857142362;0.80712890625;0.36572265625;-0.3828125;-3.0;30.75;45.125;
1441975356138394;-0.85345458984375;0.06854248046875;-0.44256591796875;-0.2667236328125;3.7635333163213134;15.987353859545944;9.562263180210813;0.82861328125;0.375;-0.39404296875;-3.1875;31.125;48.1875;
1441975356154395;-0.84930419921875;0.076171875;-0.45050048828125;-0.26458740234375;3.634431428689537;16.00106718969242;9.529914818112236;0.85498046875;0.392578125;-0.4072265625;-4.5625;30.625;50.75;
1441975356175396;-0.8446044921875;0.08447265625;-0.4595947265625;-0.26153564453125;3.4871353655014126;16.022210333907896;9.491943558400628;0.89306640625;0.37109375;-0.3544921875;-9.5;28.375;53.5625;
1441975356198397;-0.8394775390625;0.0928955078125;-0.46875;-0.2589111328125;3.338221933738993;16.041243241384276;9.453576103901776;0.978515625;0.33154296875;-0.34765625;-8.6875;32.0625;58.0;
1441975356214398;-0.83367919921875;0.1021728515625;-0.47821044921875;-0.2568359375;3.181683083490824;16.059079900143075;9.410447166758818;0.95751953125;0.3046875;-0.33056640625;-11.4375;34.4375;58.5;
1441975356236399;-0.82708740234375;0.112548828125;-0.4884033203125;-0.25457763671875;3.0102123778899887;16.08278482592834;9.357882460207106;0.9306640625;0.27294921875;-0.29296875;-17.4375;36.9375;62.0;
1441975356258401;-0.82000732421875;0.12335205078125;-0.49908447265625;-0.25177001953125;2.829370466378428;16.115821722036173;9.296714140002912;0.9765625;0.22314453125;-0.27783203125;-21.0625;40.0;66.75;
1441975356274401;-0.8125;0.13433837890625;-0.51007080078125;-0.2484130859375;2.6423109354455505;16.15966827152168;9.226289494420785;0.9970703125;0.1572265625;-0.2783203125;-22.125;43.375;68.6875;
1441975356297403;-0.80462646484375;0.14483642578125;-0.52166748046875;-0.24407958984375;2.4481492016735786;16.21647678962646;9.149224002900695;0.98046875;0.11328125;-0.2587890625;-20.6875;46.6875;71.3125;
1441975356326404;-0.7962646484375;0.15533447265625;-0.53314208984375;-0.2401123046875;2.2544225884041444;16.27877082375219;9.064659825278852;0.96923828125;0.103515625;-0.2734375;-14.875;53.0;73.9375;
1441975356342405;-0.78680419921875;0.16754150390625;-0.54473876953125;-0.237060546875;2.0515762552165966;16.353724946973625;8.95608452874827;0.98095703125;0.17041015625;-0.29443359375;-16.1875;57.375;79.5;
1441975356355406;-0.77618408203125;0.18267822265625;-0.55633544921875;-0.23388671875;1.8369015285874235;16.476405157385614;8.787594671627673;1.0517578125;0.26904296875;-0.2841796875;-24.0;59.25;93.0;
1441975356378407;-0.76416015625;0.19970703125;-0.568359375;-0.230712890625;1.6115518265953455;16.655030551458193;8.554861049747492;1.08154296875;0.25927734375;-0.27001953125;-36.0;60.8125;105.4375;
1441975356394408;-0.75091552734375;0.2169189453125;-0.581298828125;-0.22637939453125;1.3797882022111525;16.92012953043034;8.239368603091071;1.06689453125;0.22314453125;-0.2880859375;-43.1875;66.1875;115.8125;
1441975356415410;-0.73675537109375;0.2347412109375;-0.59454345703125;-0.22076416015625;1.1597768280291771;17.336237489187496;7.774918619029069;1.05712890625;0.1923828125;-0.302734375;-39.625;72.8125;123.4375;
1441975356438411;-0.72149658203125;0.2540283203125;-0.60736083984375;-0.214599609375;0.979632435890685;17.981613117595735;7.075842666582901;1.05517578125;0.20849609375;-0.3056640625;-36.75;75.875;132.75;
1441975356454412;-0.704833984375;0.2745361328125;-0.62017822265625;-0.208251953125;0.8719800628798182;0.9020217856489501;6.09598116180474;1.10986328125;0.27685546875;-0.3076171875;-40.8125;75.3125;143.875;
1441975356475413;-0.68658447265625;0.2957763671875;-0.6329345703125;-0.2015380859375;0.8794869389898794;1.9848079376200383;4.950096110624408;1.08544921875;0.23974609375;-0.34619140625;-46.0625;79.75;152.0;
1441975356499414;-0.667236328125;0.31683349609375;-0.6458740234375;-0.1932373046875;1.0176253018496944;2.9482755102579796;3.9288847862476852;1.0341796875;0.2021484375;-0.322265625;-49.25;83.875;158.875;
1441975356514415;-0.64727783203125;0.33819580078125;-0.65789794921875;-0.18408203125;1.2541861215486283;3.6066404392801243;3.212433320756816;1.029296875;0.2373046875;-0.314453125;-43.0625;86.625;167.5;
1441975356535416;-0.62652587890625;0.35980224609375;-0.6690673828125;-0.17437744140625;1.546152136728019;4.025749530034277;2.7335901826208904;1.07275390625;0.24658203125;-0.26806640625;-43.0625;83.0;172.8125;
1441975356559418;-0.6051025390625;0.38116455078125;-0.67926025390625;-0.16497802734375;1.860034058049695;4.294847032674695;2.4015141599179577;1.0966796875;0.2353515625;-0.265625;-44.3125;81.9375;177.5625;
1441975356574419;-0.5831298828125;0.40118408203125;-0.68914794921875;-0.15545654296875;2.1815715593832046;4.4853735762467295;2.151616555132536;1.10205078125;0.19482421875;-0.27880859375;-47.0625;82.25;176.3125;
1441975356595420;-0.560791015625;0.42010498046875;-0.698486328125;-0.14532470703125;2.5104747571765853;4.621765953268117;1.960172401772607;1.0830078125;0.2060546875;-0.26953125;-42.4375;84.375;174.1875;
1441975356618421;-0.53826904296875;0.4393310546875;-0.7064208984375;-0.13494873046875;2.8469044656559355;4.707501018166294;1.8157154589196898;1.05615234375;0.25146484375;-0.220703125;-37.75;83.125;174.6875;
1441975356634422;-0.51544189453125;0.46044921875;-0.71160888671875;-0.1263427734375;3.17994306978309;4.743055948726012;1.7011693973360302;1.048828125;0.2861328125;-0.26171875;-41.3125;79.375;177.125;
1441975356656423;-0.49310302734375;0.47955322265625;-0.71624755859375;-0.11785888671875;3.4976431891214204;4.769154426791866;1.601935343972897;1.0078125;0.17626953125;-0.22998046875;-61.375;74.875;173.125;
1441975356678425;-0.4730224609375;0.493408203125;-0.72174072265625;-0.1090087890625;3.7779415224496113;4.80731023869929;1.516899111327005;0.9482421875;-0.05712890625;-0.12890625;-55.5;71.375;161.875;
1441975356694425;-0.45550537109375;0.502197265625;-0.72833251953125;-0.099609375;4.0225678784225805;4.858911710926227;1.446427374816239;0.8525390625;-0.09033203125;-0.07373046875;-29.625;66.1875;142.125;
1441975356716427;-0.43951416015625;0.50946044921875;-0.734130859375;-0.09112548828125;4.2422522898493735;4.902772998629871;1.3872214373850136;0.77734375;-0.033203125;-0.080078125;-2.375;60.4375;124.6875;
1441975356738428;-0.42840576171875;0.5142822265625;-0.738037109375;-0.08563232421875;4.391236144234037;4.9312428793240715;1.3470308053104663;0.7333984375;-0.04052734375;-0.06689453125;0.375;55.4375;111.1875;
1441975356754429;-0.4193115234375;0.51708984375;-0.74176025390625;-0.0816650390625;4.505270891413108;4.96207946364041;1.3099430721648988;0.654296875;-0.06103515625;-0.1328125;6.0625;49.375;97.9375;
1441975356777430;-0.41253662109375;0.5216064453125;-0.7425537109375;-0.079833984375;4.589849502146302;4.9627707513113455;1.2866888987210483;0.56201171875;0.08203125;-0.07568359375;7.4375;42.4375;83.5625;
1441975356814432;-0.4073486328125;0.52642822265625;-0.74212646484375;-0.0789794921875;4.654941257371215;4.951430017016795;1.2710735885853361;0.48388671875;0.072265625;-0.12060546875;-10.375;33.0;66.25;
1441975356817433;-0.40386962890625;0.52691650390625;-0.74395751953125;-0.07666015625;4.702793657789245;4.96635933816287;1.2599091140928735;0.44677734375;-0.10205078125;-0.0439453125;-19.0625;22.125;47.6875;
1441975356837434;-0.40252685546875;0.52191162109375;-0.74847412109375;-0.0736083984375;4.720625772078625;5.014998297983441;1.2493281321082625;0.4140625;-0.23583984375;-0.0498046875;11.625;17.625;31.9375;
1441975356858435;-0.4036865234375;0.51409912109375;-0.75347900390625;-0.07147216796875;4.701880420788282;5.073843463066109;1.2420360127852779;0.34423828125;-0.07666015625;-0.07568359375;45.6875;15.75;21.0;
1441975356874436;-0.4075927734375;0.5068359375;-0.756103515625;-0.07275390625;4.636093661091599;5.114192460239061;1.2382045054332207;0.33056640625;0.13232421875;-0.09326171875;57.375;10.6875;12.3125;
1441975356897437;-0.4149169921875;0.49786376953125;-0.7576904296875;-0.07720947265625;4.512357603255589;5.152537996947219;1.2350241660062198;0.3701171875;0.044921875;-0.06396484375;40.375;2.875;-12.5;
1441975356918438;-0.4261474609375;0.48883056640625;-0.75640869140625;-0.0855712890625;4.325438024356752;5.170479712291044;1.2388011248424058;0.421875;-0.02783203125;-0.03271484375;37.75;-5.25;-42.125;
1441975356934439;-0.441650390625;0.48065185546875;-0.75146484375;-0.09625244140625;4.086413919068149;5.153136149355891;1.2663583991238219;0.45703125;-0.0341796875;-0.0244140625;22.125;-17.6875;-70.8125;
1441975356957441;-0.45904541015625;0.4737548828125;-0.7437744140625;-0.1080322265625;3.826226048444302;5.104485555970049;1.3142740407216889;0.544921875;-0.01513671875;-0.04736328125;5.25;-37.6875;-88.75;
1441975356978442;-0.48028564453125;0.46368408203125;-0.734375;-0.12255859375;3.5007914018689283;5.045851569776997;1.3777712347269708;0.705078125;-0.0361328125;-0.02490234375;-11.3125;-55.875;-113.375;
1441975356994443;-0.505615234375;0.447265625;-0.7247314453125;-0.13836669921875;3.106525082526648;4.9947932142945275;1.459810165391332;0.8701171875;-0.03564453125;0.01806640625;-7.75;-68.3125;-144.25;
1441975357017444;-0.53485107421875;0.42437744140625;-0.714111328125;-0.15472412109375;2.6471170170145326;4.936981263720776;1.5754629765777235;1.021484375;-0.1279296875;-0.04052734375;18.1875;-77.75;-178.625;
1441975357038445;-0.56732177734375;0.39825439453125;-0.69989013671875;-0.17254638671875;2.133219928424186;4.808949333014245;1.766188096670784;1.16650390625;0.01611328125;-0.12109375;44.5;-88.8125;-208.6875;
1441975357054446;-0.60125732421875;0.374755859375;-0.6783447265625;-0.1949462890625;1.5902327055148304;4.460306614211657;2.1397434239845463;1.3740234375;0.34765625;-0.21875;47.625;-106.0;-230.4375;
1441975357077447;-0.6334228515625;0.352783203125;-0.65179443359375;-0.22259521484375;1.066850787765755;3.695736806719741;2.8925065661869254;1.73388671875;0.45361328125;-0.275390625;6.875;-127.3125;-249.5625;
1441975357099449;-0.6654052734375;0.3275146484375;-0.6219482421875;-0.25146484375;0.710156582865418;1.8019786626794474;4.776466792373669;2.0517578125;0.23974609375;-0.1669921875;-30.4375;-131.6875;-271.875;
1441975357114450;-0.6995849609375;0.298583984375;-0.583740234375;-0.2841796875;0.9469390033274228;17.133242483448896;7.424456527643085;2.08251953125;0.1708984375;-0.11474609375;-29.8125;-139.1875;-297.0;
1441975357154452;-0.7308349609375;0.27313232421875;-0.53509521484375;-0.32403564453125;1.6444028944464903;16.008422854104474;8.466145692432079;2.17236328125;0.794921875;-0.16748046875;-42.8125;-168.1875;-334.875;
1441975357159452;-0.75628662109375;0.24755859375;-0.4854736328125;-0.36212158203125;2.4000512402619365;15.545993195592056;8.838992607041819;2.61669921875;1.04296875;-0.22412109375;-107.3125;-190.3125;-369.0625;
1441975357174453;-0.7799072265625;0.21453857421875;-0.44281005859375;-0.38690185546875;3.1055899330897754;15.336328074088451;9.044468220983546;2.74072265625;0.12109375;-0.626953125;-111.75;-179.1875;-356.9375;
1441975357197454;-0.80584716796875;0.1705322265625;-0.41156005859375;-0.39019775390625;3.7221167438209974;15.307320921691224;9.219629579386165;2.65087890625;-0.22412109375;-0.69140625;-27.4375;-147.125;-334.5;
1441975357218455;-0.8310546875;0.11737060546875;-0.39166259765625;-0.377197265625;4.231523732161741;15.36901678037785;9.428735665953345;2.55078125;-0.3056640625;-0.76513671875;116.5;-104.1875;-306.9375;
1441975357234456;-0.85821533203125;0.0528564453125;-0.37786865234375;-0.34344482421875;4.67764717654745;15.552577055623523;9.669784338189986;2.439453125;0.0341796875;-0.4619140625;222.5625;-45.25;-284.4375;
1441975357257458;-0.88629150390625;-0.02191162109375;-0.3648681640625;-0.2845458984375;5.0636832003848795;15.88504343288308;9.929457845874321;2.341796875;-0.30078125;-0.404296875;355.8125;-9.9375;-280.3125;
1441975357278459;-0.91058349609375;-0.1019287109375;-0.3505859375;-0.194091796875;5.321397271313733;16.39795021990344;10.184089610285321;2.1513671875;-0.2490234375;-0.26953125;505.25;4.4375;-275.875;
