1441975638999572;0.11822509765625;-0.66290283203125;-0.722900390625;-0.1551513671875;11.212339387109093;13.211191610815307;17.790857623659388;-1.92578125;-1.046875;-0.294921875;-167.8125;12.4375;216.5625;
1441975639029574;0.09381103515625;-0.67901611328125;-0.7158203125;-0.13336181640625;10.838486387338222;13.317785199293127;17.808083195101972;-1.447265625;-0.701171875;-0.08203125;12.5625;-16.3125;221.375;
1441975639045575;0.07373046875;-0.69598388671875;-0.70574951171875;-0.110595703125;10.495018341075165;13.439265779041849;17.84137902852638;-1.14404296875;-0.20166015625;0.05029296875;101.6875;-0.25;207.3125;
1441975639059576;0.05706787109375;-0.70703125;-0.69903564453125;-0.0908203125;10.201690776113047;13.518307564900471;17.864415622461824;-0.982421875;0.1767578125;0.02685546875;112.4375;24.0;188.5625;
1441975639096578;0.04638671875;-0.71075439453125;-0.697998046875;-0.0743408203125;9.981241717471756;13.542433762913289;17.889964535559834;-0.8583984375;0.22216796875;0.05712890625;74.5;21.3125;160.5;
1441975639120579;0.0472412109375;-0.70654296875;-0.7032470703125;-0.063720703125;9.900259868714464;13.508173048600561;17.93367157841403;-0.837890625;0.22216796875;0.08544921875;20.9375;26.625;123.6875;
1441975639121579;0.05328369140625;-0.69940185546875;-0.71063232421875;-0.05560302734375;9.882945264426894;13.453361110750016;17.98697474025151;-0.8505859375;0.32568359375;0.07421875;-35.9375;44.9375;94.6875;
1441975639149581;0.0643310546875;-0.6917724609375;-0.71746826171875;-0.05145263671875;9.940908350837713;13.39916559342251;0.044059586433160915;-0.8759765625;0.53173828125;0.06201171875;-58.6875;53.0;63.625;
1441975639158582;0.081298828125;-0.68231201171875;-0.72467041015625;-0.0523681640625;10.091096290428991;13.337325242380405;0.10225579364106363;-0.84033203125;0.76806640625;0.03076171875;-62.6875;55.625;21.9375;
1441975639179583;0.10430908203125;-0.6722412109375;-0.730712890625;-0.05810546875;10.33287056616524;13.280388161379182;0.16295217675307835;-0.81884765625;0.91259765625;0.091796875;-69.0;59.25;-28.0625;
1441975639203584;0.130615234375;-0.66387939453125;-0.73333740234375;-0.06683349609375;10.627785731104906;13.247638181738644;0.22525459061698366;-0.7607421875;0.9775390625;0.12939453125;-65.5;65.9375;-80.5;
1441975639226585;0.1624755859375;-0.6572265625;-0.7314453125;-0.08221435546875;11.022518233874074;13.244989341841444;0.28527384666580946;-0.69970703125;1.009765625;0.208984375;-46.8125;71.875;-135.4375;
1441975639239586;0.2001953125;-0.6502685546875;-0.7254638671875;-0.10418701171875;11.52097895303963;13.26472919790873;0.3465646178718559;-0.67138671875;1.07177734375;0.19140625;-19.75;74.8125;-187.1875;
1441975639261587;0.23944091796875;-0.639892578125;-0.7183837890625;-0.131103515625;12.078217858457153;13.278146122539894;0.39493126473628465;-0.6962890625;1.10693359375;0.083984375;-4.0;77.25;-241.125;
1441975639278588;0.27734375;-0.62457275390625;-0.71234130859375;-0.16015625;12.652198669764037;13.264229689892021;0.42311235166515204;-0.92578125;1.02001953125;-0.0078125;-10.75;63.75;-269.9375;
1441975639307590;0.3160400390625;-0.606689453125;-0.7044677734375;-0.189208984375;13.244197105495804;13.250771119891695;0.45568893664122506;-1.076171875;1.0380859375;-0.01953125;-31.0;44.9375;-280.3125;
1441975639329591;0.3546142578125;-0.58966064453125;-0.69146728515625;-0.22027587890625;13.85998879365985;13.269323693110959;0.4944139143600966;-1.05517578125;0.98046875;0.01513671875;-35.1875;49.0625;-290.6875;
1441975639337592;0.392578125;-0.568115234375;-0.677734375;-0.252685546875;14.500463179124496;13.268474942497988;0.5200888213901699;-1.1328125;1.0751953125;-0.0615234375;-10.9375;51.0;-306.125;
1441975639359593;0.42962646484375;-0.540283203125;-0.66619873046875;-0.28240966796875;15.134729289966497;13.218215001048593;0.5284689877625587;-1.2080078125;1.19970703125;-0.09716796875;-23.25;39.4375;-323.125;
1441975639381594;0.46466064453125;-0.51348876953125;-0.65185546875;-0.30908203125;15.739521123520248;13.194843228989113;0.556824747868386;-1.2734375;0.88916015625;0.01708984375;-57.9375;32.1875;-319.125;
1441975639405596;0.49462890625;-0.4935302734375;-0.6302490234375;-0.33856201171875;16.325468106205772;13.265013812667034;0.6159144220636844;-1.39013671875;0.59375;0.0732421875;-49.0;43.25;-300.0;
1441975639420597;0.517822265625;-0.47796630859375;-0.6044921875;-0.37158203125;16.886418698247503;13.39775178111956;0.6853214643468455;-1.521484375;0.46630859375;0.00244140625;14.3125;46.9375;-290.375;
1441975639443598;0.5367431640625;-0.4609375;-0.579345703125;-0.40478515625;17.428652362503918;13.530620986896603;0.7506357643950355;-1.56103515625;0.5244140625;-0.06591796875;64.8125;31.75;-283.0625;
1441975639457599;0.5537109375;-0.4415283203125;-0.555908203125;-0.435302734375;17.946506873100287;14.443803696465524;1.6121928207168197;-1.4814453125;0.509765625;-0.0859375;67.75;11.625;-277.4375;
1441975639480600;0.56964111328125;-0.42181396484375;-0.53326416015625;-0.46185302734375;17.56158028428674;4.322301133514575;9.452069364107773;-1.39111328125;0.3984375;-0.03955078125;52.0625;2.375;-267.1875;
1441975639501601;0.58404541015625;-0.40325927734375;-0.51153564453125;-0.484375;17.117545399041983;4.36102614840866;9.45960436788858;-1.2958984375;0.27490234375;0.0107421875;39.0625;6.5625;-250.5625;
1441975639517602;0.59600830078125;-0.38623046875;-0.49163818359375;-0.50396728515625;16.72253220569307;4.387150999987562;9.457247462447805;-1.25;0.16650390625;0.0107421875;31.3125;11.8125;-228.1875;
1441975639540603;0.60491943359375;-0.3719482421875;-0.47357177734375;-0.52105712890625;16.384573165882795;4.412445194948945;9.4499233657094;-1.2001953125;0.0234375;0.0361328125;28.125;9.8125;-202.375;
1441975639561605;0.6104736328125;-0.36138916015625;-0.45733642578125;-0.5362548828125;16.107983585348798;4.442088632376728;9.436912833231322;-1.11083984375;-0.05126953125;0.05419921875;32.375;8.9375;-173.4375;
1441975639577605;0.613525390625;-0.35400390625;-0.44378662109375;-0.54888916015625;15.894016789460267;4.472045130466897;9.422473492436858;-1.05322265625;-0.08935546875;0.060546875;41.6875;8.375;-142.5625;
1441975639600607;0.61395263671875;-0.350830078125;-0.435791015625;-0.556884765625;15.778989187990346;4.50011267160545;9.415110776889419;-0.99951171875;-0.05615234375;0.03173828125;43.25;7.1875;-112.1875;
1441975639621608;0.61419677734375;-0.3489990234375;-0.43121337890625;-0.56134033203125;15.713677852816401;4.51481884682099;9.409895900344372;-0.96923828125;0.0185546875;0.03173828125;34.0625;5.4375;-84.5;
1441975639637609;0.61468505859375;-0.34814453125;-0.42974853515625;-0.56243896484375;15.690876183234705;4.514455109698888;9.40611902741945;-0.90185546875;0.05517578125;0.02734375;18.75;3.625;-60.875;
1441975639666611;0.61474609375;-0.3486328125;-0.4306640625;-0.56134033203125;15.705387610983028;4.508206934772291;9.404425690878476;-0.8310546875;0.052734375;0.033203125;2.125;3.25;-37.625;
1441975639681611;0.6124267578125;-0.35150146484375;-0.432861328125;-0.56036376953125;15.75379068210252;4.5206698570698896;9.41066264136682;-0.7744140625;0.01611328125;0.041015625;-5.875;3.3125;-15.125;
1441975639697612;0.6075439453125;-0.35687255859375;-0.43646240234375;-0.5595703125;15.838044303190332;4.555598332802276;9.427888514161081;-0.75;0.02587890625;0.05908203125;5.125;1.1875;2.625;
1441975639720614;0.60150146484375;-0.36376953125;-0.44158935546875;-0.5576171875;15.953003570896351;4.596721766106892;9.451229798221378;-0.7373046875;0.05908203125;0.0498046875;17.6875;-2.75;19.3125;
1441975639741615;0.59521484375;-0.3707275390625;-0.4495849609375;-0.5533447265625;16.09870381422887;4.64600838725361;9.496896021895687;-0.74169921875;0.0654296875;0.03076171875;18.1875;-5.625;35.1875;
1441975639757616;0.58868408203125;-0.37750244140625;-0.46026611328125;-0.54693603515625;16.270811998676038;4.711514291317028;9.572545635828034;-0.7373046875;0.0615234375;0.03125;5.875;-11.1875;52.5625;
1441975639786617;0.582275390625;-0.3841552734375;-0.47271728515625;-0.53851318359375;16.461684819351465;4.790310624402533;9.673102976645225;-0.6865234375;0.052734375;0.05078125;-7.75;-15.75;69.625;
1441975639801618;0.57501220703125;-0.39105224609375;-0.48626708984375;-0.5291748046875;16.66673472627489;4.9103578548375655;9.81752733952503;-0.70703125;0.02099609375;0.03857421875;-18.1875;-18.75;82.75;
1441975639817619;0.56610107421875;-0.398681640625;-0.50006103515625;-0.52008056640625;16.878382843859775;5.110359610221352;10.035056881914336;-0.77392578125;-0.04248046875;0.04638671875;-20.75;-21.625;96.875;
1441975639840621;0.55462646484375;-0.4083251953125;-0.51397705078125;-0.511474609375;17.10076732546493;5.460582731044112;10.388562397062453;-0.7900390625;-0.083984375;0.06201171875;-12.75;-26.3125;110.875;
1441975639861622;0.5408935546875;-0.41949462890625;-0.52783203125;-0.5029296875;17.315326808451502;6.095021002207372;11.01525100144284;-0.7880859375;-0.0771484375;0.0654296875;2.0625;-29.25;122.8125;
1441975639877623;0.52545166015625;-0.43157958984375;-0.54205322265625;-0.49383544921875;17.477756051747274;7.292664130459658;12.200477587354095;-0.81201171875;-0.04736328125;0.04052734375;13.5625;-31.9375;132.9375;
1441975639900624;0.50921630859375;-0.4434814453125;-0.55670166015625;-0.48388671875;17.494638893292542;9.031470750286134;13.929084092291163;-0.833984375;0.0;0.0283203125;18.5625;-34.625;142.0;
1441975639922625;0.4925537109375;-0.454833984375;-0.57183837890625;-0.47283935546875;17.34086667424703;10.413955943319877;15.306570695733997;-0.84033203125;0.02880859375;0.0244140625;16.5625;-37.125;148.125;
1441975639937626;0.47540283203125;-0.46575927734375;-0.587158203125;-0.4608154296875;17.092650344314148;11.181104619872942;16.072195992971846;-0.837890625;0.02294921875;0.03564453125;12.0;-38.6875;153.0;
1441975639960627;0.45758056640625;-0.47662353515625;-0.602294921875;-0.44805908203125;16.802639153813942;11.613434647114044;16.50314518295308;-0.81884765625;-0.00634765625;0.04736328125;8.5625;-39.375;158.125;
1441975639981629;0.4393310546875;-0.487548828125;-0.61676025390625;-0.43475341796875;16.495794964611566;11.885101598091076;16.77197585380009;-0.7880859375;-0.00146484375;0.07763671875;8.625;-38.875;162.4375;
1441975639997630;0.42132568359375;-0.498046875;-0.63018798828125;-0.421142578125;16.18907267650225;12.068629871953798;16.952769718738015;-0.75732421875;0.05078125;0.09326171875;10.25;-36.9375;163.5;
1441975640020631;0.40435791015625;-0.50726318359375;-0.64288330078125;-0.40740966796875;15.892998212662107;12.192495991364506;17.07906129073792;-0.7568359375;0.11865234375;0.0791015625;10.25;-33.875;159.875;
1441975640041632;0.3885498046875;-0.51458740234375;-0.6551513671875;-0.39385986328125;15.611482450559464;12.269973998849773;17.166312378458223;-0.79052734375;0.17041015625;0.05322265625;4.5625;-31.625;152.625;
1441975640057633;0.37347412109375;-0.52032470703125;-0.66680908203125;-0.38104248046875;15.345199079034296;12.31535885379455;17.224586100976765;-0.8330078125;0.1787109375;0.04150390625;-3.4375;-32.125;144.0;
1441975640080634;0.3592529296875;-0.525390625;-0.6771240234375;-0.36944580078125;15.10035624560849;12.347020121675756;17.26619704941085;-0.84326171875;0.18017578125;0.05078125;-7.4375;-33.5625;134.6875;
1441975640101635;0.34619140625;-0.5301513671875;-0.68572998046875;-0.359130859375;14.881295559424187;12.374379808427522;17.29899147940285;-0.82568359375;0.19140625;0.07421875;-5.4375;-32.5;123.5;
1441975640117636;0.33587646484375;-0.5340576171875;-0.6920166015625;-0.3509521484375;14.710320087556463;12.396885433590759;17.32406007265692;-0.7939453125;0.2041015625;0.0966796875;-0.9375;-28.625;110.6875;
1441975640140638;0.3272705078125;-0.53729248046875;-0.697265625;-0.34375;14.565627883414672;12.415373718282751;17.346008983374453;-0.755859375;0.2333984375;0.125;2.25;-23.5625;97.375;
1441975640161639;0.32122802734375;-0.53936767578125;-0.70111083984375;-0.3382568359375;14.461288818998296;12.427060752100777;17.362624054736326;-0.732421875;0.27587890625;0.1513671875;1.8125;-17.75;82.3125;
1441975640177640;0.317626953125;-0.54022216796875;-0.70404052734375;-0.33416748046875;14.392423446665143;12.431357481431895;17.375515418957004;-0.75830078125;0.30126953125;0.15625;-0.5;-12.625;63.625;
1441975640200641;0.31646728515625;-0.53973388671875;-0.7061767578125;-0.3314208984375;14.35842075035701;12.427627043142419;17.384975132943175;-0.7763671875;0.322265625;0.15625;-5.125;-8.3125;46.3125;
1441975640229643;0.31787109375;-0.538330078125;-0.70733642578125;-0.330078125;14.36074385764199;12.420021888758036;17.393375067984866;-0.7666015625;0.328125;0.16552734375;-10.0;-3.375;28.875;
1441975640237643;0.32171630859375;-0.536376953125;-0.7069091796875;-0.330322265625;14.401536562386699;12.413044033756847;17.40136233158432;-0.765625;0.33447265625;0.16748046875;-12.875;2.625;11.375;
1441975640259645;0.32794189453125;-0.53363037109375;-0.7052001953125;-0.3323974609375;14.480550258893107;12.402358058937473;17.40522741110963;-0.7900390625;0.345703125;0.1494140625;-13.1875;8.375;-6.625;
1441975640281646;0.3359375;-0.530029296875;-0.702392578125;-0.33599853515625;14.590086791925485;12.386520843100788;17.40351317270084;-0.82763671875;0.3330078125;0.13232421875;-13.75;12.0;-23.875;
1441975640297647;0.345458984375;-0.5260009765625;-0.6982421875;-0.34136962890625;14.729569931146798;12.367698218202921;17.394861706881063;-0.84814453125;0.31640625;0.12939453125;-14.5;14.4375;-38.5;
1441975640327648;0.35626220703125;-0.52117919921875;-0.69287109375;-0.348388671875;14.896330306515729;12.341305084605736;17.375961622053353;-0.88818359375;0.314453125;0.10595703125;-12.6875;15.625;-53.75;
1441975640341649;0.3677978515625;-0.51544189453125;-0.68682861328125;-0.35693359375;15.082160847422381;12.300867880196973;17.341149790614757;-0.92529296875;0.287109375;0.08544921875;-11.5625;15.3125;-67.5;
1441975640357650;0.3795166015625;-0.50927734375;-0.6798095703125;-0.36669921875;15.281001194158861;12.249309786271807;17.29051178283274;-0.9462890625;0.23681640625;0.087890625;-11.1875;13.3125;-76.9375;
1441975640379651;0.3909912109375;-0.50372314453125;-0.67132568359375;-0.3779296875;15.490420544103982;12.192873038906487;17.223829883062063;-0.95654296875;0.18994140625;0.09716796875;-6.6875;12.4375;-84.5625;
1441975640403653;0.4019775390625;-0.498779296875;-0.661376953125;-0.39019775390625;15.706171598225037;12.130481899693077;17.14087930315269;-0.97998046875;0.1650390625;0.0927734375;3.625;11.75;-91.4375;
1441975640417654;0.4111328125;-0.4945068359375;-0.65155029296875;-0.4024658203125;15.902426437698786;12.055763476649055;17.039112429260914;-1.0009765625;0.1650390625;0.0859375;13.375;11.4375;-98.0;
1441975640439655;0.41973876953125;-0.49005126953125;-0.6414794921875;-0.41497802734375;16.094347036364038;11.958122553502495;16.912298170905856;-1.0029296875;0.16357421875;0.080078125;19.4375;10.875;-101.5;
1441975640463656;0.42779541015625;-0.48583984375;-0.6309814453125;-0.42767333984375;16.28112047363583;11.838129169195128;16.759365100050015;-1.001953125;0.138671875;0.10009765625;21.8125;9.0;-102.5;
1441975640477657;0.43585205078125;-0.48187255859375;-0.61920166015625;-0.4410400390625;16.47351207695857;11.686650221185003;16.56885564693728;-1.0263671875;0.111328125;0.11083984375;25.3125;8.125;-101.6875;
1441975640506659;0.4423828125;-0.478759765625;-0.60736083984375;-0.4541015625;16.645211306358753;11.506339921355973;16.343730456664808;-1.0400390625;0.076171875;0.11767578125;32.375;7.4375;-98.875;
1441975640522660;0.44793701171875;-0.4765625;-0.595703125;-0.46630859375;16.797628623111336;11.303280923929602;16.093674261851433;-1.021484375;0.08056640625;0.14013671875;38.75;7.5;-94.8125;
1441975640544661;0.453125;-0.474609375;-0.58441162109375;-0.47735595703125;16.934427270895117;11.066933197129242;15.813218637858908;-1.01513671875;0.1064453125;0.13330078125;41.0;8.625;-90.4375;
1441975640559662;0.45794677734375;-0.47271728515625;-0.57391357421875;-0.4873046875;17.05186164725629;10.788247022894879;15.494798014825195;-1.02490234375;0.12548828125;0.11962890625;38.375;9.375;-86.9375;
1441975640583663;0.46221923828125;-0.47100830078125;-0.56427001953125;-0.49615478515625;17.147606007651248;10.472647685658629;15.143095481223616;-1.0283203125;0.1416015625;0.10888671875;34.4375;9.0;-82.9375;
1441975640604664;0.4661865234375;-0.46923828125;-0.55584716796875;-0.5035400390625;17.221556104207973;10.132502250129829;14.773946734242575;-1.01904296875;0.16943359375;0.107421875;30.375;8.9375;-78.9375;
1441975640619665;0.470458984375;-0.46697998046875;-0.5489501953125;-0.50927734375;17.277091498813338;9.772097426345532;14.395967520756772;-0.99609375;0.19775390625;0.10693359375;24.125;9.0;-73.25;
1441975640643666;0.47515869140625;-0.46405029296875;-0.54351806640625;-0.51336669921875;17.316617087864152;9.400404669062297;14.018819640222286;-0.9794921875;0.1904296875;0.10498046875;12.9375;9.0;-66.8125;
1441975640672668;0.4798583984375;-0.4609375;-0.539306640625;-0.5162353515625;17.34178717587794;9.043324042363945;13.663825705768312;-0.9833984375;0.16162109375;0.0966796875;1.125;8.75;-59.4375;
1441975640694669;0.48370361328125;-0.45855712890625;-0.53582763671875;-0.51837158203125;17.356810902628627;8.742368652386082;13.364613793041377;-0.98779296875;0.119140625;0.10498046875;-5.4375;8.4375;-50.75;
1441975640702670;0.48651123046875;-0.45703125;-0.53326416015625;-0.5196533203125;17.366436994761077;8.52540722483579;13.14905302343294;-0.99365234375;0.10205078125;0.11181640625;-4.875;8.8125;-41.3125;
1441975640724671;0.48834228515625;-0.45648193359375;-0.531494140625;-0.52032470703125;17.375323287749143;8.391024502716066;13.01448390029291;-0.98583984375;0.09228515625;0.11474609375;-3.3125;8.25;-30.9375;
1441975640739672;0.48846435546875;-0.45684814453125;-0.5302734375;-0.52117919921875;17.37805548650589;8.342602493439713;12.959402099195621;-0.9814453125;0.0625;0.09326171875;-1.5;6.25;-19.625;
1441975640762673;0.4864501953125;-0.45928955078125;-0.5294189453125;-0.521728515625;17.38556755365925;8.426739850292696;13.026726306847243;-0.9716796875;0.0185546875;0.11865234375;6.125;3.75;-8.625;
1441975640784675;0.48309326171875;-0.463134765625;-0.5294189453125;-0.52142333984375;17.396431110468654;8.633723936188424;13.213918781465633;-0.95849609375;0.0498046875;0.10498046875;16.75;2.5;3.0;
1441975640806676;0.47918701171875;-0.46722412109375;-0.5308837890625;-0.5198974609375;17.401720146261773;8.940278642090776;13.50611283622366;-0.9658203125;0.08984375;0.0966796875;19.875;1.75;13.25;
1441975640822677;0.474853515625;-0.4713134765625;-0.5335693359375;-0.5174560546875;17.394644493354843;9.313685680530364;13.87006562529982;-0.97802734375;0.10107421875;0.10205078125;15.25;0.0;23.3125;
1441975640843678;0.469970703125;-0.47564697265625;-0.537109375;-0.5142822265625;17.372053828724372;9.729473469044175;14.278679490683377;-0.9755859375;0.0947265625;0.1083984375;10.9375;-1.3125;32.375;
1441975640859679;0.46453857421875;-0.48052978515625;-0.54119873046875;-0.5103759765625;17.333068875422914;10.165094247611927;14.707654142295764;-0.9716796875;0.08447265625;0.1240234375;9.0625;-1.625;41.25;
1441975640883680;0.458740234375;-0.48541259765625;-0.54608154296875;-0.5057373046875;17.272905491109345;10.575385110436661;15.114630581336716;-0.9765625;0.07666015625;0.1142578125;9.0625;-2.125;49.5625;
1441975640911682;0.45294189453125;-0.49041748046875;-0.5518798828125;-0.49981689453125;17.19406843996139;10.957704297556417;15.499596937690049;-0.97216796875;0.080078125;0.125;6.1875;-2.625;56.75;
1441975640919682;0.447265625;-0.4951171875;-0.55865478515625;-0.49273681640625;17.09632088907328;11.28525251602497;15.837169146713434;-0.96484375;0.09814453125;0.11962890625;0.625;-1.5;63.5;
1441975640942684;0.44183349609375;-0.49932861328125;-0.5660400390625;-0.48486328125;16.98546632890965;11.548087589757179;16.116197508539017;-0.966796875;0.12158203125;0.123046875;-6.25;-1.125;68.8125;
1441975640971685;0.4366455078125;-0.50335693359375;-0.5736083984375;-0.4764404296875;16.867166462802466;11.76207496827995;16.349755882504645;-0.974609375;0.1376953125;0.11962890625;-12.25;-1.125;72.3125;
1441975640979686;0.43133544921875;-0.507080078125;-0.58099365234375;-0.46832275390625;16.74486755826271;11.922738997743249;16.52916562539448;-0.98828125;0.1455078125;0.10595703125;-15.375;-1.4375;74.3125;
1441975641002687;0.4259033203125;-0.5108642578125;-0.58782958984375;-0.46051025390625;16.622639114923047;12.052583121099788;16.674822813957732;-0.9951171875;0.14404296875;0.11279296875;-14.5;-2.4375;74.625;
1441975641024688;0.4202880859375;-0.5147705078125;-0.59423828125;-0.453125;16.500393915526278;12.158306987672946;16.793054232002593;-0.99560546875;0.15185546875;0.10986328125;-11.6875;-2.875;73.6875;
1441975641039689;0.4146728515625;-0.51849365234375;-0.6002197265625;-0.4461669921875;16.38107242252248;12.24211883731817;16.887477914100458;-0.97509765625;0.1669921875;0.10791015625;-8.375;-3.1875;72.1875;
1441975641062690;0.409423828125;-0.52178955078125;-0.60577392578125;-0.4395751953125;16.268657421154806;12.30797976555421;16.963990103388586;-0.95263671875;0.18212890625;0.11572265625;-6.6875;-3.6875;69.1875;
1441975641084692;0.40472412109375;-0.5245361328125;-0.61102294921875;-0.433349609375;16.164614400741986;12.35833634045213;17.02626324982465;-0.93896484375;0.2021484375;0.1083984375;-7.0;-3.6875;64.9375;
1441975641099693;0.40087890625;-0.52655029296875;-0.61566162109375;-0.4278564453125;16.075733729150468;12.393670058177888;17.074234262734844;-0.9365234375;0.22412109375;0.109375;-9.0;-4.0;59.3125;
1441975641123694;0.3978271484375;-0.52783203125;-0.61968994140625;-0.42327880859375;16.002617192311078;12.415012765076938;17.108211066813332;-0.94091796875;0.21923828125;0.1015625;-9.875;-4.125;52.5;
1441975641144695;0.3951416015625;-0.52886962890625;-0.623046875;-0.4195556640625;15.940872684005987;12.429644851296297;17.132809329406737;-0.943359375;0.20849609375;0.10693359375;-9.8125;-4.4375;45.5625;
1441975641159696;0.39300537109375;-0.52978515625;-0.62554931640625;-0.41668701171875;15.89291402095677;12.44176139574504;17.15184367250142;-0.931640625;0.216796875;0.1171875;-7.875;-4.125;39.0;
1441975641182697;0.39166259765625;-0.53045654296875;-0.62713623046875;-0.414794921875;15.862015049222288;12.45075683969953;17.16521089378991;-0.91845703125;0.22802734375;0.1220703125;-4.875;-2.875;31.25;
1441975641203698;0.39111328125;-0.53045654296875;-0.6280517578125;-0.413818359375;15.847523485971339;12.451269925198929;17.16970338164816;-0.919921875;0.23388671875;0.107421875;-3.0625;-2.3125;22.75;
1441975641219699;0.3914794921875;-0.52996826171875;-0.62847900390625;-0.41351318359375;15.847796165663038;12.44688327094792;17.169940682287923;-0.9228515625;0.2353515625;0.10888671875;-3.4375;-2.5;14.3125;
1441975641242701;0.39263916015625;-0.5289306640625;-0.62823486328125;-0.41412353515625;15.86417707311422;12.435555204333955;17.162468594771003;-0.923828125;0.2353515625;0.1025390625;-4.1875;-1.875;6.625;
1441975641263702;0.3944091796875;-0.527587890625;-0.62725830078125;-0.41558837890625;15.89460152343856;12.41998733847954;17.1487498109816;-0.9306640625;0.2265625;0.109375;-3.6875;-1.0625;-1.375;
1441975641279703;0.3968505859375;-0.52587890625;-0.62579345703125;-0.41766357421875;15.937094136400539;12.399753002796192;17.130135158444986;-0.935546875;0.22802734375;0.1083984375;-2.625;-0.4375;-8.9375;
1441975641317705;0.39996337890625;-0.52386474609375;-0.62371826171875;-0.4202880859375;15.991930260670207;12.376260752522176;17.107692142709173;-0.927734375;0.224609375;0.107421875;-2.4375;-0.0625;-15.875;
1441975641325705;0.40362548828125;-0.52154541015625;-0.62115478515625;-0.4234619140625;16.057282036250555;12.347570018964685;17.07948116422833;-0.927734375;0.22802734375;0.09814453125;-2.4375;1.125;-22.375;
1441975641339706;0.40777587890625;-0.518798828125;-0.61822509765625;-0.4271240234375;16.131793230391835;12.31066010075061;17.04320554282814;-0.93017578125;0.2197265625;0.0986328125;-2.0625;1.875;-28.6875;
1441975641362708;0.41229248046875;-0.515869140625;-0.61480712890625;-0.4312744140625;16.214508372581804;12.267607750809946;16.99952661138814;-0.9384765625;0.21435546875;0.10107421875;-2.25;2.3125;-33.8125;
1441975641385709;0.41705322265625;-0.51275634765625;-0.6109619140625;-0.43585205078125;16.30361896734666;12.216640164181017;16.9466903350337;-0.953125;0.205078125;0.103515625;-1.625;2.5625;-38.5625;
1441975641399710;0.42205810546875;-0.5096435546875;-0.60675048828125;-0.4405517578125;16.397036455759565;12.161778958398362;16.8892591714342;-0.9599609375;0.1982421875;0.09912109375;-0.375;2.9375;-42.375;
1441975641422711;0.42718505859375;-0.50628662109375;-0.6024169921875;-0.4453125;16.492290752146133;12.096565792482515;16.822031615317165;-0.95849609375;0.1875;0.09033203125;-0.0625;3.5;-45.3125;
1441975641445712;0.432373046875;-0.5028076171875;-0.59796142578125;-0.4501953125;16.588596299906605;12.019685930841984;16.742972586769074;-0.95947265625;0.1826171875;0.08544921875;-0.625;3.5625;-47.5;
1441975641459713;0.43743896484375;-0.49945068359375;-0.5933837890625;-0.45513916015625;16.683526658844553;11.9331776964637;16.653065463442253;-0.96728515625;0.16845703125;0.091796875;-0.5;3.75;-49.0625;
1441975641482714;0.44232177734375;-0.49615478515625;-0.5887451171875;-0.46002197265625;16.775671610104123;11.835185486445777;16.551004980455623;-0.9765625;0.1591796875;0.09130859375;0.75;3.75;-49.3125;
1441975641505716;0.44696044921875;-0.49285888671875;-0.5843505859375;-0.46466064453125;16.861705384463267;11.723678493245703;16.436165333833408;-0.98583984375;0.1435546875;0.0888671875;1.1875;3.9375;-48.5625;
1441975641527717;0.4512939453125;-0.48980712890625;-0.580078125;-0.46905517578125;16.94155894329169;11.603364396773705;16.31201654861073;-0.98388671875;0.13037109375;0.09765625;1.0;3.5625;-46.625;
1441975641542718;0.455078125;-0.4871826171875;-0.57598876953125;-0.47314453125;17.01251207774852;11.479405642304402;16.182850328859235;-0.9873046875;0.1103515625;0.0927734375;1.8125;3.4375;-43.875;
1441975641565719;0.45843505859375;-0.48492431640625;-0.572265625;-0.47674560546875;17.074305131789192;11.356263364454172;16.054699828319023;-0.98876953125;0.11083984375;0.09033203125;2.9375;3.1875;-40.625;
1441975641586720;0.46136474609375;-0.4830322265625;-0.56890869140625;-0.47979736328125;17.127368103780164;11.23924179878998;15.933048835498852;-0.98779296875;0.10888671875;0.09326171875;3.375;3.3125;-36.6875;
1441975641610722;0.46392822265625;-0.4814453125;-0.56610107421875;-0.48223876953125;17.171380202109624;11.132455969427278;15.823049994682139;-0.9931640625;0.10205078125;0.0869140625;2.6875;3.3125;-32.0625;
1441975641625723;0.466064453125;-0.480224609375;-0.56378173828125;-0.484130859375;17.206972031178207;11.041493451217175;15.729588465967499;-0.98046875;0.09912109375;0.08984375;1.9375;3.5;-27.125;
1441975641646724;0.4676513671875;-0.47955322265625;-0.56195068359375;-0.4853515625;17.233902536454387;10.98117476009612;15.66696409337016;-0.98876953125;0.09765625;0.09423828125;1.5625;3.9375;-22.125;
1441975641662725;0.468994140625;-0.4793701171875;-0.5606689453125;-0.48583984375;17.254853134511816;10.955631736629549;15.640686512418768;-0.98486328125;0.10986328125;0.095703125;1.3125;4.5;-17.125;
1441975641685726;0.47003173828125;-0.47918701171875;-0.56011962890625;-0.48565673828125;17.267706913590462;10.950868253345888;15.638363201957356;-0.9794921875;0.12353515625;0.083984375;0.0;4.6875;-12.375;
1441975641706727;0.4708251953125;-0.47918701171875;-0.55999755859375;-0.48492431640625;17.275489856270774;10.970170582827881;15.661698682005468;-0.97119140625;0.1240234375;0.0927734375;-2.8125;4.5625;-7.625;
1441975641730729;0.4713134765625;-0.47943115234375;-0.560302734375;-0.48382568359375;17.277582721258508;11.010512923065797;15.706774619118079;-0.96142578125;0.123046875;0.08837890625;-4.3125;4.5;-3.1875;
1441975641745729;0.47137451171875;-0.48016357421875;-0.56072998046875;-0.48260498046875;17.27524078416804;11.072214948345785;15.771278143094978;-0.962890625;0.1162109375;0.08740234375;-4.5;4.125;0.875;
1441975641759730;0.4708251953125;-0.48114013671875;-0.5614013671875;-0.4813232421875;17.265576750697637;11.144055059815628;15.844362251209434;-0.96533203125;0.1142578125;0.0810546875;-2.625;3.4375;4.6875;
1441975641782732;0.4697265625;-0.4825439453125;-0.56231689453125;-0.47998046875;17.248957136170176;11.229485440343648;15.929104418559826;-0.95947265625;0.10888671875;0.0908203125;-0.9375;2.6875;8.125;
1441975641805733;0.46826171875;-0.484375;-0.56329345703125;-0.47845458984375;17.22793659893529;11.329563697898521;16.02692423640737;-0.9599609375;0.11181640625;0.0947265625;1.1875;1.9375;11.9375;
1441975641826734;0.4664306640625;-0.48626708984375;-0.56451416015625;-0.476806640625;17.20092228038113;11.427993241366845;16.122937591663483;-0.9609375;0.11572265625;0.07763671875;3.0;1.0625;15.125;
1441975641842735;0.46441650390625;-0.48828125;-0.5660400390625;-0.47491455078125;17.1687580961581;11.528045332285062;16.22127338074655;-0.9677734375;0.11865234375;0.08740234375;3.0625;0.4375;17.75;
1441975641865736;0.4622802734375;-0.49029541015625;-0.5677490234375;-0.47296142578125;17.13316505315808;11.620730684853966;16.31259225711413;-0.97509765625;0.12109375;0.08349609375;2.6875;-0.3125;20.375;
1441975641886738;0.459716796875;-0.49249267578125;-0.56951904296875;-0.470947265625;17.092388792437898;11.710519291305214;16.399634761473752;-0.97705078125;0.11083984375;0.0947265625;2.5;-0.5;22.75;
1441975641902738;0.45703125;-0.49493408203125;-0.5712890625;-0.4688720703125;17.04934072972933;11.799719255697841;16.48520435238541;-0.97607421875;0.11279296875;0.1025390625;3.8125;-0.5625;25.1875;
1441975641932740;0.4542236328125;-0.49737548828125;-0.5732421875;-0.466552734375;17.00252661775728;11.884584709014263;16.56733114402101;-0.97412109375;0.1201171875;0.09521484375;4.875;-0.8125;26.8125;
1441975641947741;0.45159912109375;-0.499755859375;-0.57537841796875;-0.4639892578125;16.95457689274034;11.964879461016423;16.646810037889356;-0.97705078125;0.12451171875;0.09619140625;4.0;-0.75;28.375;
1441975641962742;0.44903564453125;-0.5018310546875;-0.57769775390625;-0.46136474609375;16.90549178955947;12.031519697500206;16.71440056606252;-0.9716796875;0.1328125;0.0908203125;2.125;-0.6875;29.25;
1441975641992744;0.44659423828125;-0.503662109375;-0.58013916015625;-0.4586181640625;16.856119311584298;12.089148190198815;16.774747732517636;-0.97412109375;0.1298828125;0.0947265625;0.3125;-1.1875;29.75;
1441975642006744;0.44415283203125;-0.50555419921875;-0.58251953125;-0.4559326171875;16.806799794006327;12.14255804903997;16.83034579376851;-0.962890625;0.130859375;0.0986328125;-1.0625;-1.3125;30.125;
1441975642022745;0.44183349609375;-0.50732421875;-0.584716796875;-0.453369140625;16.760044833784047;12.189464037891566;16.879271860496072;-0.96337890625;0.1455078125;0.09375;-0.8125;-1.375;29.3125;
1441975642052747;0.43975830078125;-0.50897216796875;-0.5867919921875;-0.450927734375;16.716515917296142;12.231045206841122;16.92321483866748;-0.9658203125;0.1572265625;0.0908203125;-0.8125;-1.3125;27.8125;
1441975642066748;0.43780517578125;-0.51031494140625;-0.5887451171875;-0.44879150390625;16.676405077915053;12.261528989016083;16.95606225218695;-0.96337890625;0.1669921875;0.0888671875;-1.1875;-1.5;25.875;
1441975642082749;0.43609619140625;-0.511474609375;-0.59033203125;-0.44696044921875;16.64218675332379;12.286837955836354;16.983032757631836;-0.94873046875;0.1689453125;0.09423828125;-1.4375;-1.5625;23.5625;
1441975642112750;0.43463134765625;-0.51263427734375;-0.59149169921875;-0.445556640625;16.614330960240874;12.309605156908788;17.005678200160677;-0.94384765625;0.173828125;0.0947265625;-0.6875;-1.375;20.5;
1441975642126751;0.43359375;-0.513427734375;-0.59228515625;-0.444580078125;16.59487573337023;12.324701690782096;17.020640860227747;-0.94775390625;0.18505859375;0.08935546875;0.625;-1.1875;16.875;
1441975642142752;0.432861328125;-0.51397705078125;-0.59283447265625;-0.44390869140625;16.58128897458206;12.334776173404498;17.030569370610813;-0.95361328125;0.18408203125;0.08837890625;1.0;-0.9375;12.75;
1441975642171754;0.4326171875;-0.51409912109375;-0.59320068359375;-0.4434814453125;16.574900859027668;12.338368821804956;17.035412845183803;-0.951171875;0.1904296875;0.09326171875;0.375;-0.6875;9.0625;
1441975642186755;0.43292236328125;-0.51385498046875;-0.59326171875;-0.443359375;16.57711083390193;12.337091978700556;17.03624927064202;-0.9384765625;0.19482421875;0.0927734375;-1.0;-0.25;5.0625;
1441975642202756;0.43365478515625;-0.51336669921875;-0.593017578125;-0.44366455078125;16.58709647026941;12.330649335778407;17.031712831708408;-0.93896484375;0.18798828125;0.091796875;-1.8125;0.375;0.9375;
1441975642224757;0.434814453125;-0.5125732421875;-0.5924072265625;-0.4442138671875;16.60469162480944;12.320832561463527;17.02415371182005;-0.94580078125;0.18408203125;0.0888671875;-2.0;0.6875;-2.625;
1441975642253759;0.436279296875;-0.5115966796875;-0.591552734375;-0.44500732421875;16.627774946980605;12.307826291376081;17.01339170355021;-0.96044921875;0.18115234375;0.08642578125;-2.0625;1.0625;-6.125;
1441975642268759;0.43798828125;-0.5103759765625;-0.59063720703125;-0.44598388671875;16.65452347570226;12.289327078165027;16.99782672671915;-0.96826171875;0.17431640625;0.083984375;-2.625;1.4375;-8.8125;
1441975642285760;0.43994140625;-0.50897216796875;-0.58953857421875;-0.4471435546875;16.68556859260054;12.26696631702601;16.97856785715326;-0.9580078125;0.16552734375;0.080078125;-3.3125;1.375;-10.9375;
1441975642307762;0.44183349609375;-0.50750732421875;-0.58831787109375;-0.44854736328125;16.717907407667806;12.239416024169635;16.95306249788448;-0.962890625;0.1630859375;0.080078125;-3.5;1.25;-13.0;
1441975642328763;0.44378662109375;-0.506103515625;-0.5869140625;-0.45001220703125;16.751956815510308;12.212511298509147;16.927498336685932;-0.962890625;0.16015625;0.08349609375;-2.6875;1.125;-14.625;
1441975642344764;0.44573974609375;-0.50469970703125;-0.58538818359375;-0.45166015625;16.78737092551644;12.182137314485505;16.89757891343088;-0.9560546875;0.16015625;0.0791015625;-1.875;1.25;-15.8125;
1441975642375766;0.44769287109375;-0.50323486328125;-0.5838623046875;-0.45330810546875;16.82277780254379;12.148738380303206;16.86481650184899;-0.96630859375;0.158203125;0.0810546875;-1.1875;1.1875;-16.875;
1441975642391766;0.44976806640625;-0.50164794921875;-0.5823974609375;-0.45489501953125;16.85865532387997;12.11201432546589;16.82978213126205;-0.97314453125;0.16015625;0.08154296875;-1.375;1.25;-17.4375;
1441975642404767;0.451904296875;-0.49993896484375;-0.5810546875;-0.45635986328125;16.893852175804735;12.071948666481278;16.7926405734519;-0.97509765625;0.15966796875;0.080078125;-2.75;1.125;-18.25;
1441975642427769;0.45404052734375;-0.49835205078125;-0.57958984375;-0.4578857421875;16.929649464604626;12.031877997133877;16.75460804065844;-0.96826171875;0.15771484375;0.07763671875;-3.75;0.9375;-18.4375;
1441975642442769;0.45599365234375;-0.49688720703125;-0.57794189453125;-0.4595947265625;16.96533257586114;11.98877478165978;16.711618847127177;-0.96142578125;0.14990234375;0.076171875;-2.6875;1.375;-18.6875;
1441975642464771;0.457763671875;-0.49566650390625;-0.57623291015625;-0.46124267578125;16.999097057243432;11.949250343995972;16.670987486601284;-0.966796875;0.1416015625;0.08203125;-1.0;1.5625;-18.3125;
1441975642487772;0.4593505859375;-0.49468994140625;-0.57470703125;-0.462646484375;17.028755162374036;11.915890176827693;16.636520922847733;-0.9716796875;0.134765625;0.07666015625;0.375;1.8125;-17.4375;
1441975642502773;0.4609375;-0.49359130859375;-0.5733642578125;-0.4638671875;17.056664201205958;11.879998552235252;16.600939403827574;-0.97265625;0.14404296875;0.07470703125;0.3125;1.6875;-16.125;
1441975642532775;0.46240234375;-0.4925537109375;-0.57232666015625;-0.46484375;17.080478258275622;11.846272267365169;16.568574795457522;-0.97265625;0.1328125;0.07421875;-0.875;1.5;-14.75;
1441975642547775;0.46368408203125;-0.49176025390625;-0.57135009765625;-0.465576171875;17.10126410235558;11.821777604132489;16.545104461864614;-0.9677734375;0.13232421875;0.07958984375;-1.5625;1.625;-12.875;
1441975642562776;0.46466064453125;-0.49114990234375;-0.57061767578125;-0.4661865234375;17.11709889352234;11.800853528104042;16.52485398544263;-0.970703125;0.126953125;0.0732421875;-1.5;1.6875;-10.75;
1441975642586778;0.465576171875;-0.49072265625;-0.57012939453125;-0.46636962890625;17.129357327591073;11.792637166001793;16.51854442106047;-0.974609375;0.1328125;0.07861328125;-1.4375;1.5625;-8.9375;
1441975642607779;0.46624755859375;-0.49029541015625;-0.56982421875;-0.4664306640625;17.13794669687929;11.78473954203977;16.51274931190444;-0.974609375;0.1396484375;0.0673828125;-1.875;1.25;-6.9375;
1441975642628780;0.466796875;-0.49005126953125;-0.5697021484375;-0.46630859375;17.143494140211498;11.784466552431786;16.514746931916996;-0.9775390625;0.13671875;0.07080078125;-2.4375;1.0625;-5.0625;
1441975642644781;0.46710205078125;-0.49005126953125;-0.569580078125;-0.4661865234375;17.146665698334683;11.789885768487089;16.521035051328333;-0.974609375;0.13525390625;0.072265625;-2.25;0.9375;-3.0625;
1441975642667782;0.46710205078125;-0.4901123046875;-0.569580078125;-0.46612548828125;17.146441447945783;11.793121865080797;16.52427114792204;-0.97802734375;0.12841796875;0.06591796875;-1.375;0.625;-1.25;
1441975642690784;0.46697998046875;-0.49041748046875;-0.5697021484375;-0.46575927734375;17.14324568454279;11.80924964735707;16.540581195630597;-0.9755859375;0.1279296875;0.0712890625;-0.5;0.5;0.8125;
1441975642704784;0.466796875;-0.49078369140625;-0.57012939453125;-0.46502685546875;17.136304156218;11.833272215689702;16.56636993967347;-0.9765625;0.12646484375;0.0732421875;-0.1875;0.625;2.5625;
1441975642727786;0.466552734375;-0.49114990234375;-0.57080078125;-0.46405029296875;17.126398209688336;11.860536258758044;16.59663398659106;-0.9697265625;0.12890625;0.07177734375;-1.5;0.375;4.5625;
1441975642748787;0.46624755859375;-0.4915771484375;-0.571533203125;-0.46295166015625;17.11504191982357;11.890866712019593;16.63014740397404;-0.970703125;0.12890625;0.0703125;-2.6875;0.625;6.125;
1441975642764788;0.46575927734375;-0.49212646484375;-0.57244873046875;-0.4617919921875;17.1003551747959;11.922447843009646;16.664729481658274;-0.9697265625;0.1279296875;0.0751953125;-2.875;0.6875;7.625;
1441975642787789;0.46527099609375;-0.4927978515625;-0.57330322265625;-0.4605712890625;17.085602565023066;11.958039217689397;16.70297174377919;-0.96484375;0.130859375;0.08056640625;-2.6875;0.75;8.8125;
1441975642810790;0.46466064453125;-0.49346923828125;-0.57415771484375;-0.459228515625;17.06935651658601;11.994439695241477;16.74205380482797;-0.97265625;0.13037109375;0.0751953125;-2.25;0.8125;9.8125;
1441975642824791;0.4639892578125;-0.494140625;-0.5751953125;-0.4580078125;17.051499108780988;12.024861713283805;16.775127800816712;-0.97412109375;0.13330078125;0.0693359375;-2.25;0.625;10.4375;
1441975642847793;0.46331787109375;-0.49481201171875;-0.576171875;-0.456787109375;17.033968576647037;12.054658148930134;16.807409044169315;-0.9736328125;0.12939453125;0.078125;-2.0625;0.25;11.25;
1441975642868794;0.4625244140625;-0.49554443359375;-0.5771484375;-0.45550537109375;17.01501264643041;12.08528466143579;16.840185869387962;-0.97705078125;0.1279296875;0.07861328125;-1.9375;0.1875;11.5625;
1441975642885795;0.46173095703125;-0.4962158203125;-0.5782470703125;-0.45416259765625;16.99501920707124;12.11340448157394;16.871158104253368;-0.97021484375;0.1337890625;0.07958984375;-1.9375;0.1875;11.8125;
1441975642907796;0.46099853515625;-0.49688720703125;-0.57928466796875;-0.452880859375;16.976048331185037;12.140131349933942;16.900554963490404;-0.962890625;0.13916015625;0.080078125;-2.375;0.0;12.125;
1441975642928797;0.46026611328125;-0.49749755859375;-0.58026123046875;-0.45172119140625;16.957968667456395;12.162683985362637;16.925427527384983;-0.96435546875;0.142578125;0.076171875;-1.9375;-0.25;11.625;
1441975642944798;0.45965576171875;-0.49786376953125;-0.58123779296875;-0.45068359375;16.941816621290656;12.177559795234444;16.94332550701742;-0.97705078125;0.14501953125;0.07421875;-1.9375;-0.375;10.9375;
1441975642968799;0.45904541015625;-0.4981689453125;-0.5821533203125;-0.44970703125;16.926416415324766;12.190053009623522;16.95867447934958;-0.974609375;0.15087890625;0.08154296875;-2.5;-0.625;9.6875;
1441975642990801;0.4586181640625;-0.4984130859375;-0.5828857421875;-0.44891357421875;16.914527289966962;12.200388625185077;16.97149925127531;-0.96240234375;0.15234375;0.08349609375;-2.75;-0.625;8.8125;
1441975643004802;0.458251953125;-0.4986572265625;-0.58349609375;-0.44830322265625;16.904602862658518;12.208680865000241;16.981562603558242;-0.95751953125;0.14404296875;0.0849609375;-2.0;-0.25;7.5625;
1441975643027803;0.4580078125;-0.4989013671875;-0.58392333984375;-0.44769287109375;16.896913309824146;12.219309456050434;16.993795431270097;-0.951171875;0.14990234375;0.087890625;-1.5;0.1875;6.4375;
1441975643048804;0.4580078125;-0.49896240234375;-0.58441162109375;-0.447021484375;16.890994969977676;12.228088335840818;17.00574949866941;-0.94970703125;0.15625;0.091796875;-1.3125;0.9375;5.3125;
1441975643064805;0.4583740234375;-0.49871826171875;-0.58477783203125;-0.44635009765625;16.889624072851266;12.233981114071135;17.016405468672676;-0.95849609375;0.15576171875;0.08642578125;-2.6875;1.375;4.3125;
1441975643087806;0.458740234375;-0.49835205078125;-0.5853271484375;-0.4456787109375;16.88730280717074;12.235591602313885;17.02364811698171;-0.9619140625;0.14990234375;0.078125;-4.5;1.125;3.0;
1441975643108807;0.4593505859375;-0.49786376953125;-0.58575439453125;-0.445068359375;16.888313362350523;12.236344842705886;17.03055097840753;-0.95654296875;0.16064453125;0.0849609375;-5.625;1.1875;2.125;
1441975643124808;0.46002197265625;-0.49725341796875;-0.58612060546875;-0.44451904296875;16.890769581785893;12.234462618104526;17.035002711492588;-0.95654296875;0.16015625;0.07666015625;-5.9375;1.0625;0.875;
1441975643147810;0.46063232421875;-0.4967041015625;-0.58642578125;-0.44415283203125;16.89366344458242;12.230755662742169;17.03655846784037;-0.96533203125;0.16455078125;0.07373046875;-6.125;0.75;-0.1875;
1441975643168811;0.4613037109375;-0.49627685546875;-0.58642578125;-0.44390869140625;16.899268501475188;12.230723793982914;17.040385593276298;-0.96142578125;0.16064453125;0.078125;-5.375;1.0;-0.875;
1441975643184812;0.4619140625;-0.49578857421875;-0.58648681640625;-0.4437255859375;16.90434567685037;12.227321227993633;17.04084174028431;-0.95947265625;0.16650390625;0.07470703125;-4.125;1.375;-2.0;
1441975643207813;0.462646484375;-0.49530029296875;-0.58660888671875;-0.44342041015625;16.909540070346175;12.226374281605114;17.044620346640613;-0.9599609375;0.1728515625;0.078125;-3.875;1.0625;-2.5;
1441975643230814;0.46343994140625;-0.49462890625;-0.58673095703125;-0.443115234375;16.915700344292492;12.221965677114445;17.045657786448395;-0.951171875;0.17431640625;0.076171875;-4.6875;1.4375;-2.9375;
1441975643252816;0.4642333984375;-0.49395751953125;-0.5869140625;-0.44281005859375;16.92144181745335;12.216948831166382;17.046251986039398;-0.9453125;0.17626953125;0.08056640625;-5.3125;1.625;-3.4375;
1441975643267817;0.4652099609375;-0.4931640625;-0.58709716796875;-0.4425048828125;16.928967719565232;12.210555846875126;17.046335698401013;-0.9443359375;0.17626953125;0.07666015625;-6.0;1.3125;-3.875;
1441975643290818;0.46612548828125;-0.49224853515625;-0.5872802734375;-0.4422607421875;16.936537816287323;12.199900491309455;17.042176749530046;-0.953125;0.17431640625;0.0732421875;-6.4375;1.1875;-4.25;
1441975643304819;0.467041015625;-0.49139404296875;-0.58746337890625;-0.44195556640625;16.943728816298616;12.19162516746096;17.040397350247016;-0.953125;0.1708984375;0.0791015625;-6.6875;1.125;-4.25;
1441975643326820;0.4677734375;-0.49066162109375;-0.58770751953125;-0.441650390625;16.948714121451545;12.18408912351733;17.03865572241618;-0.95068359375;0.1669921875;0.07666015625;-6.625;1.0625;-4.0;
1441975643341821;0.468505859375;-0.48992919921875;-0.58807373046875;-0.44122314453125;16.95242218947553;12.177647139168874;17.03870872640043;-0.94189453125;0.17578125;0.0859375;-6.0;1.4375;-3.9375;
1441975643363822;0.469482421875;-0.48895263671875;-0.58856201171875;-0.44061279296875;16.957222972730204;12.169801448986021;17.039646548151786;-0.93603515625;0.1826171875;0.0869140625;-6.5625;1.5;-3.8125;
1441975643378823;0.47064208984375;-0.48779296875;-0.58905029296875;-0.4400634765625;16.964174395624383;12.157954272409494;17.037446524602508;-0.9375;0.17919921875;0.08251953125;-8.75;1.5;-3.6875;
1441975643400824;0.47174072265625;-0.48675537109375;-0.5894775390625;-0.439453125;16.970534490990275;12.150108599412286;17.038732907534975;-0.96826171875;0.1630859375;0.07861328125;-9.8125;1.4375;-3.5625;
1441975643423825;0.47271728515625;-0.48590087890625;-0.58984375;-0.4388427734375;16.975875632363852;12.146091030988979;17.042795787227046;-0.96240234375;0.15966796875;0.0771484375;-9.25;1.4375;-3.0625;
1441975643438826;0.4735107421875;-0.48516845703125;-0.59027099609375;-0.438232421875;16.9790144910172;12.142930739688811;17.047014935129585;-0.95068359375;0.15478515625;0.07763671875;-8.125;1.875;-2.3125;
1441975643460828;0.47393798828125;-0.4847412109375;-0.5906982421875;-0.4376220703125;16.978437707665382;12.144063492240864;17.053613241981623;-0.927734375;0.15185546875;0.08251953125;-7.125;1.4375;-1.4375;
1441975643483829;0.4744873046875;-0.4842529296875;-0.59130859375;-0.436767578125;16.976870480898853;12.14765122061388;17.064417658635154;-0.93115234375;0.17578125;0.0869140625;-5.5625;1.75;-0.875;
1441975643498830;0.4752197265625;-0.48333740234375;-0.59234619140625;-0.43560791015625;16.97383577471613;12.144624078969894;17.072484688286625;-0.93212890625;0.185546875;0.08447265625;-7.25;1.875;-0.9375;
1441975643520831;0.47607421875;-0.4822998046875;-0.59344482421875;-0.43426513671875;16.971030388763882;12.142666118066952;17.08304831198825;-0.91943359375;0.1806640625;0.09033203125;-11.0;1.6875;-0.625;
1441975643543832;0.47705078125;-0.4814453125;-0.5943603515625;-0.43292236328125;16.969993747472685;12.147488150902973;17.099665341179733;-0.90869140625;0.1796875;0.10009765625;-12.0;2.5;0.0;
1441975643559833;0.4781494140625;-0.48016357421875;-0.59564208984375;-0.431396484375;16.967869302069516;12.143506163266053;17.11065622183417;-0.916015625;0.17626953125;0.083984375;-11.9375;2.9375;-0.25;
1441975643580834;0.4793701171875;-0.47869873046875;-0.59710693359375;-0.42962646484375;16.96507537370757;12.139183695493573;17.123435482385563;-0.92041015625;0.17578125;0.0908203125;-14.625;2.5625;0.0;
1441975643603836;0.4805908203125;-0.4775390625;-0.598388671875;-0.42779541015625;16.962517400642827;12.144610182775336;17.144724925095392;-0.91064453125;0.1669921875;0.0966796875;-16.625;2.625;0.875;
1441975643626837;0.48187255859375;-0.47625732421875;-0.5997314453125;-0.4259033203125;16.960121391738877;12.148271084467002;17.165138969926137;-0.91162109375;0.17724609375;0.09326171875;-15.875;3.75;0.875;
1441975643640838;0.48321533203125;-0.4747314453125;-0.60125732421875;-0.42388916015625;16.957168221312088;12.147408853322123;17.18281108720373;-0.91845703125;0.17236328125;0.0859375;-16.3125;3.625;1.1875;
1441975643663839;0.484375;-0.473388671875;-0.60272216796875;-0.4219970703125;16.953121410795468;12.147457379164276;17.199805494682924;-0.900390625;0.1533203125;0.087890625;-18.1875;3.0625;2.25;
1441975643678840;0.485107421875;-0.47265625;-0.60382080078125;-0.42034912109375;16.94738201067629;12.156675309821894;17.221235059385506;-0.8701171875;0.13720703125;0.087890625;-16.5625;2.75;3.4375;
1441975643700841;0.48553466796875;-0.472412109375;-0.604736328125;-0.41888427734375;16.93974694777817;12.17242943599997;17.24583006288345;-0.84814453125;0.13671875;0.07958984375;-11.8125;2.5625;4.4375;
1441975643723843;0.48565673828125;-0.47216796875;-0.60577392578125;-0.41754150390625;16.929287214692813;12.182052901101391;17.26343923082407;-0.8291015625;0.14794921875;0.06787109375;-8.5;2.0625;5.0625;
1441975643746844;0.485595703125;-0.47198486328125;-0.6068115234375;-0.416259765625;16.917414709148634;12.190195854617702;17.27871358949511;-0.81005859375;0.1396484375;0.07421875;-7.75;1.0625;5.875;
1441975643760845;0.4852294921875;-0.4720458984375;-0.60772705078125;-0.41522216796875;16.90416758689698;12.197767702641784;17.29077971671297;-0.78515625;0.12890625;0.0732421875;-6.6875;0.3125;6.8125;
1441975643791847;0.484375;-0.47265625;-0.60833740234375;-0.41461181640625;16.889152453564755;12.20835610829735;17.300741773222885;-0.74365234375;0.1162109375;0.07275390625;-3.9375;0.0;7.75;
1441975643798847;0.4833984375;-0.47369384765625;-0.60858154296875;-0.41424560546875;16.87530571813299;12.2259372868306;17.31432166227538;-0.71337890625;0.11376953125;0.0732421875;0.875;-0.875;8.5;
1441975643822848;0.48199462890625;-0.47515869140625;-0.6087646484375;-0.4140625;16.85791914956868;12.245975693691898;17.327175780893917;-0.68505859375;0.09326171875;0.05078125;4.3125;-1.1875;9.5625;
1441975643843850;0.4798583984375;-0.476806640625;-0.6090087890625;-0.4141845703125;16.83500748475774;12.25801201275817;17.328756535672905;-0.6484375;0.076171875;0.0458984375;7.4375;-2.1875;11.5625;
1441975643858850;0.47686767578125;-0.479248046875;-0.60888671875;-0.41497802734375;16.80811275127396;12.271637728058955;17.324154669853286;-0.6025390625;0.05224609375;0.060546875;10.9375;-3.9375;14.4375;
1441975643880852;0.472900390625;-0.48284912109375;-0.60845947265625;-0.416015625;16.773044071382742;12.298941791940692;17.32548547481916;-0.576171875;0.0283203125;0.06494140625;18.8125;-5.625;17.5;
1441975643903853;0.4681396484375;-0.4873046875;-0.60797119140625;-0.4169921875;16.72927001274389;12.33682819012473;17.33266687975401;-0.5458984375;0.0341796875;0.068359375;26.6875;-5.6875;21.0;
1441975643926854;0.462890625;-0.49237060546875;-0.607421875;-0.41766357421875;16.678829776275006;12.38534787685221;17.34805970911339;-0.55029296875;0.076171875;0.07373046875;31.4375;-5.5;23.3125;
1441975643940855;0.4578857421875;-0.497314453125;-0.60693359375;-0.41802978515625;16.62884799369722;12.434674409582266;17.366359993650928;-0.5927734375;0.16162109375;0.07470703125;33.625;-5.0625;22.4375;
1441975643963856;0.45355224609375;-0.50152587890625;-0.60650634765625;-0.4183349609375;16.58565755078369;12.474559457177644;17.379593835597927;-0.64453125;0.1884765625;0.0908203125;31.75;-3.0625;21.625;
1441975643986858;0.44970703125;-0.50439453125;-0.60693359375;-0.41839599609375;16.544034630675064;12.490447364531645;17.377295306052865;-0.68017578125;0.17626953125;0.080078125;27.125;-3.625;20.375;
1441975644002859;0.44580078125;-0.50640869140625;-0.6083984375;-0.41802978515625;16.496203224558663;12.488693654697547;17.363906951483546;-0.7236328125;0.1630859375;0.08447265625;18.5625;-6.125;20.25;
1441975644023860;0.4415283203125;-0.50787353515625;-0.61065673828125;-0.41748046875;16.441382073456808;12.472660942130572;17.33962940974407;-0.76611328125;0.1689453125;0.09228515625;11.75;-10.25;22.75;
1441975644046861;0.436767578125;-0.50897216796875;-0.61358642578125;-0.41680908203125;16.378949547573217;12.446137724264712;17.306844868907607;-0.79541015625;0.17236328125;0.09814453125;7.9375;-13.9375;25.8125;
1441975644060862;0.4320068359375;-0.510009765625;-0.6165771484375;-0.4161376953125;16.316152077948157;12.420495172910936;17.275284053307153;-0.830078125;0.19775390625;0.12939453125;5.8125;-16.875;27.8125;
1441975644083863;0.42694091796875;-0.51129150390625;-0.619384765625;-0.41558837890625;16.25174574731733;12.398862023018367;17.245272930372515;-0.87109375;0.21728515625;0.1513671875;6.0;-15.9375;27.875;
1441975644106865;0.42144775390625;-0.51275634765625;-0.6220703125;-0.4154052734375;16.185599699710927;12.376818741158944;17.211655657593212;-0.92578125;0.26220703125;0.171875;8.0;-16.0;27.125;
1441975644120865;0.416015625;-0.51422119140625;-0.6246337890625;-0.415283203125;16.12083347180442;12.357197385924364;17.180085764706213;-0.9453125;0.2978515625;0.1728515625;11.1875;-18.5;26.0625;
1441975644143867;0.41107177734375;-0.51519775390625;-0.62701416015625;-0.4154052734375;16.063354554767777;12.333891688865863;17.146394545506645;-0.95458984375;0.35546875;0.16796875;10.5;-19.125;22.0625;
1441975644166868;0.40740966796875;-0.51513671875;-0.629638671875;-0.4150390625;16.015218321906737;12.306919946254679;17.117882638852826;-0.966796875;0.36083984375;0.15380859375;8.4375;-19.875;18.625;
1441975644180869;0.4044189453125;-0.513427734375;-0.63348388671875;-0.41424560546875;15.966818486681987;12.260109847673846;17.08108831527253;-0.9658203125;0.3583984375;0.1259765625;-0.8125;-19.625;15.5625;
1441975644203870;0.40179443359375;-0.510986328125;-0.63775634765625;-0.41326904296875;15.919229104590784;12.20677942519444;17.042778275047596;-0.97021484375;0.3525390625;0.1416015625;-12.5;-22.0625;15.1875;
1441975644226871;0.39923095703125;-0.5087890625;-0.6414794921875;-0.4127197265625;15.876332178777727;12.157780397772147;17.005415821388695;-1.0009765625;0.36279296875;0.15771484375;-18.0;-22.9375;14.375;
1441975644242872;0.39697265625;-0.50701904296875;-0.6444091796875;-0.41253662109375;15.84123202510664;12.117204713926204;16.972706397319918;-1.0400390625;0.353515625;0.14501953125;-15.0;-23.75;13.5625;
1441975644263874;0.393798828125;-0.5057373046875;-0.64715576171875;-0.412841796875;15.800059235628735;12.078117056827523;16.935472728930417;-1.033203125;0.2958984375;0.12939453125;-10.6875;-22.9375;14.5;
1441975644286875;0.3897705078125;-0.50567626953125;-0.64923095703125;-0.4134521484375;15.754510788690686;12.053218659929907;16.90353551322488;-1.02783203125;0.2939453125;0.16455078125;-4.5625;-23.8125;16.1875;
1441975644300876;0.3853759765625;-0.50628662109375;-0.6512451171875;-0.4136962890625;15.703582740117941;12.039471548215568;16.880622657733184;-1.03125;0.326171875;0.15869140625;4.25;-24.6875;17.25;
1441975644323877;0.381103515625;-0.50640869140625;-0.65386962890625;-0.41326904296875;15.648072096003697;12.023873446204046;16.86144243023787;-1.0244140625;0.369140625;0.14404296875;5.8125;-24.5625;18.375;
1441975644346878;0.37713623046875;-0.5069580078125;-0.65618896484375;-0.41259765625;15.59557149308429;12.017429651907731;16.85084244094256;-1.013671875;0.3759765625;0.1650390625;0.9375;-23.75;21.0625;
1441975644368880;0.37322998046875;-0.5069580078125;-0.65887451171875;-0.41180419921875;15.541615414987595;12.004943643736473;16.83744932602018;-1.0146484375;0.3583984375;0.15283203125;1.6875;-21.125;22.9375;
1441975644383880;0.3681640625;-0.5076904296875;-0.66168212890625;-0.41107177734375;15.475888705698171;11.997875275381752;16.82414721042946;-1.0400390625;0.35498046875;0.17138671875;-0.875;-22.5625;24.375;
1441975644406882;0.3623046875;-0.5086669921875;-0.66455078125;-0.41033935546875;15.40243516602838;11.992426947372795;16.80966343454894;-1.00146484375;0.3662109375;0.1669921875;3.8125;-25.6875;28.25;
1441975644420883;0.3560791015625;-0.51031494140625;-0.6673583984375;-0.40924072265625;15.32393807666391;11.996426106290746;16.80246574393129;-0.9697265625;0.35546875;0.181640625;6.75;-27.25;32.0;
1441975644444884;0.34991455078125;-0.5126953125;-0.66961669921875;-0.40789794921875;15.247574547097274;12.011483641614863;16.803414536951582;-0.96826171875;0.40087890625;0.20068359375;9.5625;-25.3125;33.5625;
1441975644466885;0.34429931640625;-0.514404296875;-0.6722412109375;-0.40625;15.173524487631987;12.020936215480003;16.804304525721957;-0.982421875;0.419921875;0.18896484375;12.75;-22.75;34.625;
1441975644480886;0.338134765625;-0.51556396484375;-0.67535400390625;-0.40478515625;15.092958822517632;12.021414533473992;16.797155751496867;-1.00244140625;0.43359375;0.208984375;7.6875;-21.8125;34.5;
1441975644503887;0.33099365234375;-0.517822265625;-0.67816162109375;-0.40313720703125;15.003580703127287;12.033220264604301;16.794848984498646;-0.9892578125;0.4189453125;0.24365234375;6.75;-24.5;37.125;
1441975644526889;0.32366943359375;-0.52178955078125;-0.67950439453125;-0.401611328125;14.919832177333328;12.064529951068891;16.801636969848012;-0.943359375;0.4501953125;0.26904296875;14.375;-22.8125;39.75;
1441975644540889;0.31707763671875;-0.52587890625;-0.68072509765625;-0.39947509765625;14.840696059844987;12.100501548657071;16.816242908862872;-0.95947265625;0.50732421875;0.23046875;23.8125;-19.9375;37.8125;
1441975644564891;0.3114013671875;-0.52886962890625;-0.68243408203125;-0.3970947265625;14.766996795988694;12.126405444437752;16.828880114917254;-0.98583984375;0.57421875;0.21435546875;20.25;-16.4375;35.9375;
1441975644587892;0.3065185546875;-0.530517578125;-0.6845703125;-0.39495849609375;14.700369020778279;12.138286113714557;16.834359224236437;-1.01806640625;0.60888671875;0.22705078125;12.4375;-15.4375;33.25;
1441975644600893;0.3018798828125;-0.53216552734375;-0.6865234375;-0.39300537109375;14.637714130233844;12.14985056151641;16.839110694599558;-1.01708984375;0.5986328125;0.2568359375;5.5;-15.5;30.375;
1441975644623894;0.2972412109375;-0.5355224609375;-0.6868896484375;-0.39129638671875;14.583099104461741;12.179693583975293;16.85148001829042;-0.9853515625;0.58837890625;0.2783203125;6.625;-13.25;28.75;
1441975644646895;0.29302978515625;-0.539306640625;-0.68646240234375;-0.3900146484375;14.537951856829087;12.213707598402015;16.864268095119254;-0.99267578125;0.630859375;0.2578125;17.9375;-8.4375;25.75;
1441975644660896;0.28948974609375;-0.54156494140625;-0.68701171875;-0.38861083984375;14.494484646860696;12.232667902093063;16.87184950990624;-1.02197265625;0.671875;0.22607421875;19.625;-8.0625;21.375;
1441975644683898;0.28729248046875;-0.54278564453125;-0.68768310546875;-0.3873291015625;14.464042563520744;12.243518205280632;16.878412693853342;-1.005859375;0.6845703125;0.25390625;10.4375;-8.375;18.6875;
1441975644706899;0.2857666015625;-0.54345703125;-0.68792724609375;-0.3870849609375;14.44719119699289;12.247470577323476;16.877286226351526;-0.99609375;0.6474609375;0.2373046875;2.875;-6.75;14.8125;
1441975644720900;0.283203125;-0.54510498046875;-0.68768310546875;-0.3870849609375;14.42370477197637;12.25872273370687;16.875209324958227;-0.9755859375;0.55615234375;0.25244140625;4.5;-6.625;11.625;
1441975644751901;0.28009033203125;-0.547119140625;-0.687255859375;-0.38720703125;14.39644341215483;12.272369524373211;16.871846053271664;-0.923828125;0.568359375;0.267578125;12.875;-6.9375;12.25;
1441975644766902;0.27740478515625;-0.54931640625;-0.6865234375;-0.38739013671875;14.374749445301283;12.2886375583831;16.870693340569318;-0.9130859375;0.60595703125;0.28466796875;16.75;-7.0;11.1875;
1441975644780903;0.2750244140625;-0.5511474609375;-0.68585205078125;-0.38775634765625;14.356713791888966;12.301283298021309;16.86754803157042;-0.8935546875;0.5908203125;0.28857421875;18.0625;-4.0;9.875;
1441975644803904;0.2724609375;-0.55267333984375;-0.6851806640625;-0.38848876953125;14.339076931828998;12.309798541297045;16.859523620287973;-0.8935546875;0.57080078125;0.28759765625;16.5625;-4.125;9.5;
1441975644826906;0.26885986328125;-0.554443359375;-0.684814453125;-0.38909912109375;14.309721652442567;12.318605773354653;16.849203537424124;-0.85205078125;0.5166015625;0.30322265625;17.8125;-5.3125;9.75;
1441975644840907;0.26434326171875;-0.55645751953125;-0.68438720703125;-0.39007568359375;14.273976736933363;12.327118964055762;16.833761522146542;-0.80078125;0.54296875;0.30712890625;19.4375;-7.9375;11.1875;
1441975644863908;0.26092529296875;-0.55792236328125;-0.684326171875;-0.39044189453125;14.24389346047698;12.333797825357836;16.82437934953783;-0.79052734375;0.59423828125;0.3212890625;23.375;-10.9375;10.125;
1441975644886909;0.25885009765625;-0.557861328125;-0.6849365234375;-0.39080810546875;14.223793876941368;12.327809882736963;16.81302676917924;-0.77099609375;0.60205078125;0.29638671875;15.75;-7.8125;8.5;
1441975644900910;0.25567626953125;-0.55902099609375;-0.68463134765625;-0.391845703125;14.200637035738017;12.33060474602985;16.798614857832924;-0.7451171875;0.5712890625;0.30126953125;4.9375;-6.4375;4.0625;
1441975644931912;0.253173828125;-0.559326171875;-0.684814453125;-0.39263916015625;14.180573092346032;12.326941288584731;16.78456927400738;-0.71923828125;0.57421875;0.2802734375;15.4375;-9.625;3.875;
1441975644946913;0.2509765625;-0.5601806640625;-0.68438720703125;-0.39361572265625;14.166847292579668;12.329069497356;16.773167531884475;-0.70947265625;0.60400390625;0.2666015625;7.5625;-9.5;0.4375;
1441975644960913;0.25048828125;-0.5599365234375;-0.68414306640625;-0.3946533203125;14.16875256897454;12.323456012411999;16.762928687315114;-0.71728515625;0.5908203125;0.22314453125;9.75;-9.25;-0.375;
1441975644983915;0.24981689453125;-0.55975341796875;-0.6832275390625;-0.39691162109375;14.178111290178737;12.31542136393855;16.74380768225401;-0.70654296875;0.52490234375;0.18994140625;0.875;-7.375;-4.1875;
1441975645006916;0.24786376953125;-0.5606689453125;-0.68060302734375;-0.4013671875;14.194146985380497;12.31135812973487;16.709629688706627;-0.7353515625;0.48779296875;0.166015625;4.8125;-12.625;-6.6875;
1441975645020917;0.24578857421875;-0.5596923828125;-0.677978515625;-0.4083251953125;14.221455787418176;12.282094652559824;16.64809927662838;-0.69970703125;0.55419921875;0.146484375;18.875;-20.25;-19.0;
1441975645043918;0.2503662109375;-0.5595703125;-0.669921875;-0.41888427734375;14.353234563031796;12.264603636218167;16.589137350910697;-0.54248046875;0.78955078125;0.349609375;19.375;-19.0625;-50.625;
1441975645066919;0.26123046875;-0.55401611328125;-0.662353515625;-0.4315185546875;14.549851153501072;12.192027628177671;16.506168691811393;-0.673828125;0.78466796875;0.2802734375;26.375;-0.75;-93.3125;
1441975645080920;0.28863525390625;-0.53863525390625;-0.65814208984375;-0.43988037109375;14.861910282018252;12.045382577771791;16.450939555510327;-0.9814453125;0.72607421875;0.3076171875;-5.25;-1.3125;-111.5625;
1441975645103922;0.28863525390625;-0.5355224609375;-0.6507568359375;-0.45440673828125;14.957548663910087;11.956319343116142;16.306271701356202;-1.388671875;-0.90283203125;-0.2138671875;-100.4375;46.0625;-152.125;
1441975645125923;0.2735595703125;-0.54144287109375;-0.6510009765625;-0.4564208984375;14.824723610946325;11.99390790516964;16.27554136057341;-1.9111328125;-0.89501953125;0.36669921875;34.9375;-40.6875;-78.625;
1441975645140924;0.265380859375;-0.54168701171875;-0.66656494140625;-0.4381103515625;14.592865298313878;12.04550951688007;16.402126228355762;-0.81640625;0.9521484375;0.412109375;59.5625;-37.75;18.1875;
1441975645163925;0.2728271484375;-0.53326416015625;-0.678466796875;-0.4254150390625;14.547133778160262;12.005528105592159;16.483373774686854;-0.54541015625;0.8876953125;0.40771484375;-55.5;5.625;126.625;
1441975645194927;0.28948974609375;-0.5234375;-0.68707275390625;-0.41253662109375;14.606143427398152;11.96850123790634;16.59007766930278;-0.41943359375;0.7041015625;0.162109375;-109.0625;28.75;36.0;
1441975645200927;0.301513671875;-0.52410888671875;-0.6878662109375;-0.40167236328125;14.6694811427617;12.034080978230252;16.724278794632177;-1.15625;0.322265625;0.0869140625;-126.1875;62.375;9.875;
1441975645223928;0.3028564453125;-0.5364990234375;-0.68280029296875;-0.39276123046875;14.661450649920576;12.20176782121439;16.87046164946147;-1.54052734375;0.15771484375;0.01904296875;-48.0625;52.3125;52.75;
1441975645245930;0.28839111328125;-0.55450439453125;-0.681640625;-0.38055419921875;14.459869873382864;12.390502294215969;16.995672557819187;-1.45947265625;0.126953125;-0.11328125;40.25;37.1875;84.375;
1441975645268931;0.26898193359375;-0.5751953125;-0.6798095703125;-0.36712646484375;14.199474310764746;12.583224758110603;17.10282625867298;-1.50732421875;0.509765625;0.119140625;84.5;19.375;127.75;
1441975645283932;0.2509765625;-0.594482421875;-0.67645263671875;-0.35516357421875;13.961669083637876;12.751734796844582;17.1839234879038;-1.3017578125;0.7197265625;0.18798828125;106.3125;13.0625;147.75;
1441975645305933;0.23846435546875;-0.613525390625;-0.6689453125;-0.3453369140625;13.796768179104857;12.92510124180861;17.26717825995628;-1.0947265625;0.85595703125;0.19580078125;105.25;14.4375;128.8125;
1441975645321934;0.2322998046875;-0.627197265625;-0.66351318359375;-0.33538818359375;13.679615611235485;13.057230371079843;17.351454522897846;-0.83056640625;0.9033203125;0.10498046875;109.875;33.8125;90.875;
1441975645343935;0.23602294921875;-0.63201904296875;-0.662841796875;-0.324951171875;13.634957732461611;13.126291798826587;17.446959532018084;-0.775390625;1.048828125;0.16162109375;69.875;48.8125;50.6875;
1441975645365937;0.24285888671875;-0.63189697265625;-0.6636962890625;-0.3182373046875;13.642935233150284;13.152128206911973;17.51767167609756;-0.79052734375;0.990234375;0.09765625;-1.875;61.6875;19.0625;
1441975645380937;0.24908447265625;-0.63128662109375;-0.66253662109375;-0.31707763671875;13.691540082087432;13.168262603282052;17.555092118388107;-0.833984375;0.9423828125;0.2119140625;-21.0625;54.6875;-5.9375;
1441975645403939;0.254150390625;-0.63714599609375;-0.65460205078125;-0.31793212890625;13.754227576994808;13.249167978297274;17.60678809554649;-0.8359375;0.87255859375;0.29248046875;-1.875;38.625;-26.1875;
1441975645425940;0.25799560546875;-0.6455078125;-0.64544677734375;-0.31658935546875;13.787753742673322;13.356487020710663;17.676401591964932;-0.720703125;0.91357421875;0.12109375;44.75;41.625;-41.125;
1441975645440941;0.26123046875;-0.651123046875;-0.63995361328125;-0.31365966796875;13.796359860702724;13.432744873031732;17.737536512430257;-0.6884765625;1.01416015625;0.0498046875;55.75;49.1875;-34.125;
1441975645463942;0.2652587890625;-0.65289306640625;-0.63690185546875;-0.31280517578125;13.826681600044514;13.470482237647422;17.775658471168583;-0.69140625;1.091796875;0.0244140625;30.625;41.5;-27.5625;
1441975645485943;0.26788330078125;-0.654296875;-0.635498046875;-0.3104248046875;13.829959575925344;13.498469355702195;17.81040264828156;-0.7197265625;1.0;0.0244140625;9.8125;26.8125;-33.6875;
1441975645500944;0.267578125;-0.656494140625;-0.63555908203125;-0.30596923828125;13.788131835329008;13.521483533021469;17.839344108391963;-0.8017578125;0.97314453125;0.06005859375;4.9375;25.9375;-15.375;
1441975645523946;0.264892578125;-0.65838623046875;-0.63812255859375;-0.298828125;13.700848737015235;13.530001090807858;17.863112637856702;-0.8203125;1.00439453125;0.07470703125;5.1875;23.625;7.0625;
1441975645554947;0.25994873046875;-0.66259765625;-0.6412353515625;-0.2867431640625;13.55087726799498;13.553981248427537;17.904912448586174;-0.76123046875;0.93310546875;0.08154296875;-4.625;21.0;31.75;
1441975645560948;0.2540283203125;-0.6685791015625;-0.644287109375;-0.27093505859375;13.35976417130716;13.591061139026689;17.962642372447025;-0.595703125;0.888671875;0.04248046875;-3.5625;32.8125;59.1875;
1441975645583949;0.2474365234375;-0.6737060546875;-0.64892578125;-0.2528076171875;13.14290294041726;13.614980220422272;0.02021850387239671;-0.5361328125;0.9111328125;0.00244140625;-1.875;44.5625;77.5625;
1441975645605950;0.24066162109375;-0.67779541015625;-0.65435791015625;-0.23370361328125;12.91745019122078;13.627603192548193;0.07533806861872154;-0.55224609375;0.93310546875;-0.0263671875;-14.5;46.25;92.375;
1441975645620951;0.2313232421875;-0.6834716796875;-0.6590576171875;-0.21240234375;12.652573684811102;13.646826070189771;0.12920629331318767;-0.5419921875;0.9619140625;-0.009765625;-22.75;47.0;107.5;
1441975645643952;0.2200927734375;-0.6903076171875;-0.66278076171875;-0.189208984375;12.356943166930126;13.67161826124527;0.18253172985884458;-0.4443359375;0.9580078125;-0.0390625;-13.9375;48.625;126.6875;
1441975645665954;0.20855712890625;-0.6962890625;-0.666748046875;-0.16497802734375;12.051817259755628;13.688154180728036;0.2344698782119244;-0.41259765625;0.99072265625;-0.07470703125;-6.125;51.5;141.5;
1441975645688955;0.19635009765625;-0.6998291015625;-0.67254638671875;-0.13946533203125;11.734030940001684;13.682468017654358;0.28174865452812137;-0.4052734375;0.96875;-0.111328125;-11.75;52.6875;147.125;
1441975645703956;0.18316650390625;-0.7034912109375;-0.67724609375;-0.11358642578125;11.407336022962397;13.678603065235691;0.3265835547698457;-0.404296875;0.99462890625;-0.06201171875;-28.75;51.75;154.125;
1441975645725957;0.1700439453125;-0.7064208984375;-0.681640625;-0.08642578125;11.072643581710732;13.671139113469941;0.37604403595885677;-0.41064453125;1.00830078125;-0.05078125;-22.875;50.5625;159.75;
1441975645756959;0.15625;-0.7093505859375;-0.684814453125;-0.0589599609375;10.731587185548424;13.66556478075325;0.4244016370939294;-0.38427734375;0.9765625;-0.00830078125;-25.4375;56.0625;164.5625;
1441975645771960;0.14190673828125;-0.71234130859375;-0.68670654296875;-0.03106689453125;10.383540069587788;13.66245052981662;0.4726956024179414;-0.32080078125;0.95166015625;-0.0087890625;-20.625;55.9375;167.9375;
1441975645785961;0.12713623046875;-0.71429443359375;-0.688232421875;-0.00469970703125;10.046882411294828;13.653576570950014;0.5129836387126174;-0.267578125;0.93310546875;-0.0419921875;-16.0625;56.6875;171.875;
1441975645809962;0.11163330078125;-0.71600341796875;-0.6888427734375;0.02130126953125;9.708155631778759;13.6448662104128;0.5495216343742267;-0.240234375;0.88720703125;9.765625E-4;-16.6875;49.0;167.0625;
1441975645822963;0.09613037109375;-0.716064453125;-0.6898193359375;0.04730224609375;9.371980412656587;13.626063900261645;0.5866280312634762;-0.1904296875;0.90869140625;-0.05810546875;-14.375;44.625;168.625;
1441975645845964;0.080078125;-0.71478271484375;-0.6910400390625;0.07183837890625;9.045702620268901;13.599227540611338;0.6171541273404473;-0.1650390625;0.8935546875;-0.09521484375;-23.4375;44.875;167.9375;
1441975645868965;0.06353759765625;-0.71142578125;-0.6934814453125;0.09478759765625;8.73209412755874;13.558111415617393;0.6416197399845247;-0.1318359375;0.857421875;-0.080078125;-28.8125;36.8125;164.0625;
1441975645883966;0.04718017578125;-0.70806884765625;-0.69482421875;0.1170654296875;8.424875694277015;13.520448656600694;0.6667310449146067;-0.06201171875;0.81005859375;-0.02197265625;-40.5625;28.9375;157.875;
1441975645905967;0.031982421875;-0.70574951171875;-0.6939697265625;0.13934326171875;8.124117697092922;13.494478013862459;0.6982523470173384;-0.02783203125;0.73486328125;-0.0078125;-35.875;27.0625;154.875;
1441975645928969;0.01751708984375;-0.70428466796875;-0.6917724609375;0.1588134765625;7.849547964716733;13.478230015329673;0.7220618608857727;-0.029296875;0.705078125;-0.01708984375;-22.5625;31.6875;152.9375;
1441975645943970;0.002197265625;-0.7027587890625;-0.68914794921875;0.17681884765625;7.578993558540872;13.463607767374718;0.7374063654791246;0.0283203125;0.68701171875;-0.04345703125;-13.0;23.0;139.0625;
1441975645965971;-0.01275634765625;-0.700439453125;-0.68707275390625;0.19287109375;7.327940560607526;13.444690465361845;0.7477564042228967;-0.0087890625;0.7353515625;-0.0390625;-11.9375;13.75;138.75;
1441975645988972;-0.027099609375;-0.69683837890625;-0.6859130859375;0.2078857421875;7.091940962737331;13.417006253921837;0.7588308002356422;0.03173828125;0.66259765625;-0.06591796875;-17.25;8.1875;128.625;
1441975646003973;-0.04058837890625;-0.694580078125;-0.6837158203125;0.22021484375;6.881397473946406;13.402057707222799;0.760841276346489;0.005859375;0.60888671875;-0.02734375;-25.125;7.75;121.5;
1441975646025974;-0.0511474609375;-0.6947021484375;-0.6802978515625;0.228271484375;6.725079340983971;13.407779198760169;0.7525813980333081;0.00634765625;0.49072265625;-0.05029296875;-15.375;-1.3125;108.0625;
1441975646048976;-0.05889892578125;-0.6966552734375;-0.676513671875;0.23162841796875;6.627333724249629;13.42951464476896;0.7317592607788196;0.04736328125;0.3251953125;-0.0615234375;-2.0625;-8.4375;83.4375;
1441975646063976;-0.064208984375;-0.69903564453125;-0.67437744140625;0.22930908203125;6.597500514753185;13.454230385386975;0.6952113869347356;0.0458984375;0.30810546875;-0.01611328125;11.8125;-20.125;54.1875;
1441975646085978;-0.06719970703125;-0.70037841796875;-0.6751708984375;0.2216796875;6.634399780705041;13.46887520439564;0.6472891263747202;0.02587890625;0.35595703125;4.8828125E-4;9.625;-33.625;22.625;
1441975646108979;-0.068603515625;-0.69866943359375;-0.6807861328125;0.2093505859375;6.730116822620797;13.455126648608287;0.5915848902671018;-0.0048828125;0.40283203125;-0.01708984375;-6.0625;-43.125;-7.6875;
1441975646122980;-0.06744384765625;-0.6968994140625;-0.6878662109375;0.19158935546875;6.891260622376582;13.439670385065925;0.523521796898808;-0.03759765625;0.375;0.0107421875;-35.6875;-50.9375;-36.0625;
1441975646153982;-0.063720703125;-0.6978759765625;-0.6929931640625;0.16943359375;7.104709905684206;13.445912790802502;0.4436689375473567;-0.0576171875;0.33984375;0.04443359375;-38.4375;-62.9375;-69.5625;
1441975646168982;-0.05523681640625;-0.7008056640625;-0.6966552734375;0.14349365234375;7.385572972563523;13.464991240736413;0.3663375083559813;-0.05908203125;0.3291015625;0.09326171875;-19.8125;-73.3125;-105.5625;
1441975646186984;-0.04254150390625;-0.7047119140625;-0.69903564453125;0.11395263671875;7.728689202255881;13.490581218402788;0.29227201833635585;-0.06494140625;0.3720703125;0.0712890625;-3.3125;-71.9375;-138.5625;
1441975646205985;-0.025634765625;-0.7098388671875;-0.69927978515625;0.08111572265625;8.131541999059605;13.525953484090744;0.22350237405566273;-0.08837890625;0.4794921875;0.04541015625;7.75;-70.6875;-168.8125;
1441975646228986;-0.0032958984375;-0.7158203125;-0.6968994140625;0.04461669921875;8.60742208593796;13.571073074219216;0.1651013525636033;-0.076171875;0.63134765625;0.03857421875;23.3125;-68.25;-198.625;
1441975646259988;0.022705078125;-0.72113037109375;-0.69244384765625;0.00750732421875;9.118122631551381;13.617532723498158;0.12365171167900625;-0.033203125;0.61083984375;0.041015625;39.8125;-62.1875;-235.75;
1441975646266988;0.05010986328125;-0.7236328125;-0.687744140625;-0.03131103515625;9.655900199525114;13.650528401285051;0.08493793004850389;-0.17919921875;0.6396484375;4.8828125E-4;46.0625;-49.9375;-251.125;
1441975646290989;0.078125;-0.72271728515625;-0.6827392578125;-0.073974609375;10.233324628491415;13.666707962848795;0.03493676244523912;-0.3095703125;0.8544921875;-0.0625;34.9375;-51.125;-263.4375;
1441975646303990;0.10784912109375;-0.7154541015625;-0.68011474609375;-0.11846923828125;10.84325157390806;13.641713665534212;17.979397857843722;-0.365234375;0.88134765625;-0.11083984375;23.4375;-65.375;-283.0625;
1441975646327992;0.14031982421875;-0.7022705078125;-0.6787109375;-0.16290283203125;11.47873727142251;13.58106353880275;17.924128058327852;-0.4130859375;0.9111328125;-0.14111328125;-12.0625;-70.5;-300.0625;
1441975646348993;0.17559814453125;-0.6907958984375;-0.671875;-0.2015380859375;12.095527117782169;13.553449204989182;17.90574505251549;-0.53662109375;0.51123046875;0.11669921875;-37.9375;-62.6875;-310.9375;
1441975646362994;0.20855712890625;-0.68072509765625;-0.6591796875;-0.24224853515625;12.720806238664748;13.549206678551823;17.872526341849206;-0.77587890625;0.4482421875;-0.01611328125;-19.4375;-23.3125;-300.875;
1441975646385995;0.2386474609375;-0.66461181640625;-0.648193359375;-0.28497314453125;13.34842128798066;13.489328433251675;17.793645242404033;-1.03173828125;0.54638671875;-0.1337890625;12.6875;-34.375;-304.25;
1441975646408996;0.2667236328125;-0.64398193359375;-0.63958740234375;-0.32427978515625;13.935705548693093;13.375168897608445;17.68588729567064;-1.2001953125;0.44873046875;-0.1015625;-10.125;-63.5;-303.75;
1441975646423997;0.293212890625;-0.6248779296875;-0.62725830078125;-0.36077880859375;14.495250474196054;13.264441268957286;17.568578141522053;-1.19189453125;0.2568359375;-4.8828125E-4;-36.5;-68.0;-285.6875;
1441975646445998;0.3155517578125;-0.6083984375;-0.6116943359375;-0.3951416015625;15.009174044551841;13.151053797584257;17.424770419580906;-1.26416015625;0.05029296875;0.00634765625;-17.9375;-55.1875;-272.125;
1441975646469000;0.3338623046875;-0.5947265625;-0.5926513671875;-0.42852783203125;15.487850025501627;13.027487697288526;17.24343886773746;-1.32470703125;-0.025390625;0.09521484375;8.6875;-50.625;-251.8125;
1441975646486001;0.34857177734375;-0.58331298828125;-0.5711669921875;-0.4605712890625;15.929176369609062;12.874522617336797;17.01276483701479;-1.3388671875;-0.0439453125;0.16845703125;38.625;-47.75;-238.5;
1441975646506002;0.36090087890625;-0.572509765625;-0.55023193359375;-0.48919677734375;16.317956627855928;12.655794807974221;16.71934033497472;-1.462890625;0.00390625;0.1728515625;60.9375;-45.75;-225.0625;
1441975646529003;0.37298583984375;-0.56072998046875;-0.532470703125;-0.51287841796875;16.64773945459858;12.32788725763264;16.34223833064099;-1.4658203125;0.05859375;0.1455078125;59.6875;-41.9375;-205.75;
1441975646543004;0.38494873046875;-0.5478515625;-0.51702880859375;-0.5333251953125;16.92177565456158;11.821975837237279;15.805649370497543;-1.50927734375;0.15869140625;0.07373046875;36.25;-37.0;-185.75;
1441975646566005;0.39654541015625;-0.53466796875;-0.5025634765625;-0.55169677734375;17.12912790223767;11.063139394983253;15.024359740223154;-1.5556640625;0.20166015625;0.04248046875;18.375;-36.25;-173.125;
1441975646589007;0.40771484375;-0.521484375;-0.48785400390625;-0.569091796875;17.244174333776332;9.994735919633955;13.933981308850155;-1.55908203125;0.23681640625;0.02490234375;11.0625;-34.1875;-165.5;
1441975646603007;0.4180908203125;-0.5078125;-0.47137451171875;-0.58758544921875;17.222131752462122;8.73319759270857;12.64086437116924;-1.4931640625;0.2578125;0.02001953125;10.75;-32.25;-164.1875;
1441975646626009;0.427734375;-0.4932861328125;-0.452880859375;-0.607177734375;17.05387809548059;7.689159941023111;11.555915756343841;-1.46484375;0.26025390625;0.009765625;19.75;-35.5;-173.125;
1441975646650010;0.43792724609375;-0.4775390625;-0.43487548828125;-0.62542724609375;16.799293451723592;7.023122669158775;10.858660969112046;-1.390625;0.22509765625;0.005859375;28.25;-39.125;-184.0625;
1441975646663011;0.44927978515625;-0.4610595703125;-0.4173583984375;-0.64141845703125;16.51171127503496;6.589650573027626;10.40667581918895;-1.28466796875;0.22802734375;0.048828125;18.5625;-38.375;-184.125;
1441975646686012;0.46087646484375;-0.4447021484375;-0.39935302734375;-0.65606689453125;16.20904914622085;6.288200025457926;10.08889312818938;-1.16259765625;0.18359375;0.03955078125;5.625;-33.6875;-182.125;
1441975646708013;0.471923828125;-0.42816162109375;-0.38092041015625;-0.6700439453125;15.894206417738982;6.077499867322488;9.860718938979147;-1.08056640625;0.1005859375;0.02197265625;2.8125;-27.75;-180.5;
1441975646723014;0.47918701171875;-0.41278076171875;-0.3599853515625;-0.6859130859375;15.567119856401188;5.952504933197246;9.689731120505101;-1.14794921875;-0.05126953125;0.0263671875;4.6875;-27.0625;-178.5;
1441975646746015;0.48193359375;-0.398681640625;-0.33721923828125;-0.70367431640625;15.238058014493411;5.900029998722558;9.561607649834912;-1.1015625;-0.14794921875;-0.013671875;33.1875;-29.5625;-179.1875;
1441975646779017;0.48284912109375;-0.3858642578125;-0.3148193359375;-0.72039794921875;14.930197444792102;5.876854269128248;9.456196625549168;-1.01025390625;-0.10205078125;0.05029296875;62.5625;-32.1875;-176.6875;
1441975646783018;0.48565673828125;-0.37176513671875;-0.29437255859375;-0.734375;14.629751960418027;5.849832772133067;9.368910118437343;-0.935546875;-0.00927734375;0.056640625;68.5;-29.1875;-167.6875;
1441975646806019;0.4901123046875;-0.357177734375;-0.27545166015625;-0.74591064453125;14.339984627143986;5.81654428146218;9.292681402634138;-0.8486328125;-0.04931640625;0.08056640625;46.4375;-30.0;-161.4375;
1441975646828020;0.49395751953125;-0.34393310546875;-0.25689697265625;-0.75616455078125;14.070379918490003;5.7891674128857264;9.220655519530684;-0.767578125;-0.14208984375;0.146484375;28.375;-27.25;-154.1875;
1441975646844021;0.49542236328125;-0.33258056640625;-0.2384033203125;-0.76629638671875;13.823276786469261;5.780713428315823;9.154197674365887;-0.69189453125;-0.19384765625;0.14892578125;28.5;-20.6875;-145.0625;
1441975646866022;0.494140625;-0.3236083984375;-0.2208251953125;-0.776123046875;13.609883584484365;5.791966606350972;9.094867484037394;-0.62890625;-0.14111328125;0.1474609375;41.4375;-15.875;-134.625;
1441975646890024;0.49432373046875;-0.316162109375;-0.20501708984375;-0.78338623046875;13.426800297808523;5.788833828440116;9.034574028404386;-0.5390625;0.03759765625;0.08544921875;53.75;-11.625;-120.1875;
1441975646905025;0.4967041015625;-0.3116455078125;-0.19464111328125;-0.786376953125;13.311174129660543;5.766824745518453;8.986389691885444;-0.44189453125;0.2197265625;0.013671875;38.0;-3.625;-108.375;
1441975646934026;0.49993896484375;-0.3074951171875;-0.18658447265625;-0.78790283203125;13.214809814717153;5.740405063090366;8.948083273454088;-0.40283203125;0.271484375;-0.00927734375;5.8125;-2.5;-98.375;
1441975646949027;0.50006103515625;-0.30474853515625;-0.1802978515625;-0.79034423828125;13.145080400370858;5.739169127483279;8.924353546809616;-0.43701171875;0.1572265625;0.0166015625;-4.75;-3.5;-83.1875;
1441975646965028;0.49676513671875;-0.3046875;-0.1751708984375;-0.7935791015625;13.111584525416077;5.760202453361793;8.90609467794576;-0.37548828125;0.12890625;0.07275390625;8.375;-3.4375;-62.8125;
1441975646986029;0.4935302734375;-0.30853271484375;-0.173583984375;-0.79443359375;13.14175589610528;5.77348080267892;8.890188706928324;-0.30029296875;0.17236328125;0.07958984375;25.1875;2.375;-43.0625;
1441975647008030;0.49432373046875;-0.31396484375;-0.17657470703125;-0.79119873046875;13.216883448241871;5.754179263893794;8.880197359034717;-0.31591796875;0.28515625;0.03271484375;15.9375;12.0625;-19.125;
1441975647025031;0.497314453125;-0.31976318359375;-0.18292236328125;-0.7855224609375;13.317665216534875;5.71852330442542;8.879503010847625;-0.3251953125;0.287109375;-0.00244140625;-19.0;15.3125;2.5;
1441975647046033;0.494873046875;-0.32977294921875;-0.191650390625;-0.78082275390625;13.479956904798955;5.718301831119321;8.890562713442193;-0.34912109375;0.09228515625;0.02197265625;-38.0;15.125;25.125;
1441975647069034;0.48773193359375;-0.34527587890625;-0.20306396484375;-0.77569580078125;13.71985477962076;5.743854753207634;8.908189204177967;-0.4384765625;0.07666015625;0.04052734375;-11.3125;19.3125;54.0;
1441975647085035;0.4852294921875;-0.3587646484375;-0.21624755859375;-0.767578125;13.951217456480338;5.737123343590383;8.928554554889066;-0.48779296875;0.25634765625;-0.0576171875;10.25;26.125;80.375;
1441975647106036;0.48272705078125;-0.37347412109375;-0.2325439453125;-0.75726318359375;14.219683915026028;5.729218789214892;8.960842362104556;-0.5419921875;0.28369140625;-0.103515625;-22.25;32.5625;101.4375;
1441975647129037;0.4752197265625;-0.39306640625;-0.25054931640625;-0.746337890625;14.556267537157257;5.752440695483618;9.002041679334386;-0.66650390625;0.11279296875;-0.03759765625;-33.125;33.75;122.5;
1441975647145038;0.46917724609375;-0.4136962890625;-0.2703857421875;-0.73187255859375;14.92322870774949;5.757889815743167;9.042461104531236;-0.763671875;0.396484375;-0.0927734375;-10.875;44.25;150.6875;
1441975647174040;0.4609375;-0.43536376953125;-0.293212890625;-0.715576171875;15.329758593456688;5.793106507717813;9.11657816158137;-0.88525390625;0.3291015625;-0.25927734375;-27.75;50.75;163.625;
1441975647191041;0.44610595703125;-0.4630126953125;-0.31744384765625;-0.69708251953125;15.82274296058345;5.8925745326047565;9.227780093636456;-1.11767578125;0.2705078125;-0.220703125;-29.125;48.0625;186.875;
1441975647205042;0.4345703125;-0.48968505859375;-0.34375;-0.6732177734375;16.334914653715312;5.993883537769786;9.373287151713125;-1.30712890625;0.640625;-0.2451171875;-2.5;62.625;222.75;
1441975647226043;0.42462158203125;-0.51422119140625;-0.3759765625;-0.64337158203125;16.879968065512074;6.234647262417205;9.701444055455493;-1.69287109375;0.875;-0.31396484375;-36.25;81.875;247.5;
1441975647248044;0.41046142578125;-0.53973388671875;-0.41265869140625;-0.6082763671875;17.444129332645595;7.309784244440682;10.87382590135532;-1.96337890625;0.81494140625;-0.3154296875;-78.125;78.625;272.375;
1441975647265045;0.3812255859375;-0.57159423828125;-0.44549560546875;-0.57403564453125;17.478683898682927;11.600460581336884;15.18199623053327;-2.36279296875;0.22705078125;-0.15283203125;-86.375;71.6875;309.3125;
1441975647286046;0.3465576171875;-0.60400390625;-0.48040771484375;-0.5333251953125;16.771252304346522;13.090733779847076;16.69286774699075;-2.62109375;0.1494140625;-0.08544921875;-5.0625;70.75;361.1875;
1441975647308048;0.30694580078125;-0.6329345703125;-0.51751708984375;-0.4873046875;15.914091606300351;13.415777135571417;17.050973811300626;-2.83837890625;0.19775390625;-0.0283203125;-6.5625;75.25;404.0625;
1441975647325049;0.2630615234375;-0.66156005859375;-0.54632568359375;-0.4412841796875;15.060405152283995;13.579728908680993;17.207256604841287;-2.7919921875;0.1025390625;0.13232421875;-19.0625;65.0;435.8125;
1441975647349050;0.21759033203125;-0.690673828125;-0.56640625;-0.39361572265625;14.219581380674514;13.727474278504218;17.314358880373867;-2.58251953125;0.15234375;0.0634765625;21.875;66.125;427.625;
1441975647368051;0.178466796875;-0.70867919921875;-0.58740234375;-0.347900390625;13.464046979850625;13.774162323871439;17.367836531901286;-2.35595703125;0.65576171875;-0.1796875;58.375;82.0;417.25;
1441975647385052;0.1507568359375;-0.7139892578125;-0.61322021484375;-0.30255126953125;12.808856530627187;13.736592806235473;17.429247739980845;-2.58056640625;0.91943359375;-0.00537109375;6.375;68.4375;373.875;
1441975647406053;0.1318359375;-0.7117919921875;-0.63983154296875;-0.25823974609375;12.243059210287411;13.662841584399674;17.51309262374997;-2.2841796875;0.541015625;0.236328125;-78.125;75.125;322.4375;
1441975647428055;0.11944580078125;-0.7022705078125;-0.66754150390625;-0.21685791015625;11.764643134590612;13.547900778217441;17.60502089562965;-2.1953125;0.24365234375;0.13671875;-122.5625;88.0625;277.75;
1441975647445055;0.10931396484375;-0.6805419921875;-0.7021484375;-0.1790771484375;11.340210273608944;13.343888902946459;17.678821288217485;-1.97509765625;0.11572265625;0.04541015625;-161.0;88.375;236.125;
