1441975212898201;-0.88507080078125;-0.12603759765625;-0.348876953125;-0.28131103515625;5.686575105923523;15.780190806251797;10.502599177744601;1.46728515625;0.1826171875;-0.28515625;-168.0625;-65.875;-40.875;
1441975212920202;-0.8817138671875;-0.12347412109375;-0.34185791015625;-0.30096435546875;5.809852852682706;15.678581109449512;10.496048463001951;1.41552734375;-0.6337890625;-0.15625;-213.5625;-75.3125;-51.0;
1441975212935203;-0.88616943359375;-0.1334228515625;-0.33575439453125;-0.290283203125;5.88311790627024;15.754800180942198;10.513685336277218;0.982421875;-0.94482421875;-0.09716796875;-115.625;-56.3125;-58.75;
1441975212958204;-0.8927001953125;-0.1544189453125;-0.3248291015625;-0.271728515625;6.026588421863402;15.88054257197097;10.569108507335406;0.71337890625;-0.5751953125;-0.24365234375;51.0625;-35.125;-87.5625;
1441975212979205;-0.8983154296875;-0.17388916015625;-0.31591796875;-0.251220703125;6.130419392825958;16.011451770850787;10.624137645238985;0.845703125;0.01611328125;-0.45263671875;149.5625;-24.1875;-92.8125;
1441975212996206;-0.90240478515625;-0.19024658203125;-0.30902099609375;-0.23248291015625;6.201548987328432;16.126846839104296;10.673472457907655;0.8388671875;0.31103515625;-0.41259765625;157.375;-13.75;-76.1875;
1441975213018208;-0.9052734375;-0.20318603515625;-0.30413818359375;-0.21630859375;6.243780679815079;16.223478516816417;10.714355905565533;0.75390625;0.431640625;-0.36279296875;140.625;-7.0;-59.75;
1441975213039209;-0.90594482421875;-0.2117919921875;-0.30535888671875;-0.203125;6.214786156978451;16.288557603219104;10.75243736732034;0.74462890625;0.44580078125;-0.39697265625;117.5;-1.5625;-44.9375;
1441975213055210;-0.905517578125;-0.21759033203125;-0.308837890625;-0.19354248046875;6.163932022763381;16.328315078119978;10.7851327852449;0.78466796875;0.39794921875;-0.416015625;88.5625;4.75;-34.25;
1441975213078211;-0.90478515625;-0.22064208984375;-0.3134765625;-0.18585205078125;6.097557802571731;16.3564621294533;10.807113626427544;0.77197265625;0.40087890625;-0.4453125;60.5;12.25;-22.8125;
1441975213099212;-0.90350341796875;-0.2225341796875;-0.3199462890625;-0.1785888671875;6.009183544024915;16.37767213488985;10.828041178241733;0.73291015625;0.31787109375;-0.455078125;39.8125;16.1875;-11.8125;
1441975213115213;-0.90179443359375;-0.22442626953125;-0.3275146484375;-0.1710205078125;5.907737172327784;16.3968217062924;10.851936064485841;0.7080078125;0.28662109375;-0.4580078125;31.1875;26.875;-4.75;
1441975213145215;-0.8997802734375;-0.22552490234375;-0.33599853515625;-0.16351318359375;5.793741329234886;16.41325288790564;10.874017941403643;0.6962890625;0.38134765625;-0.525390625;34.0;37.0625;1.0625;
1441975213159216;-0.89727783203125;-0.2254638671875;-0.34613037109375;-0.1561279296875;5.658634253780141;16.424726760470676;10.894440074342754;0.72021484375;0.39990234375;-0.533203125;31.4375;41.75;6.1875;
1441975213174217;-0.89434814453125;-0.22406005859375;-0.357666015625;-0.14874267578125;5.503766962581842;16.432853409793886;10.911405784463817;0.73974609375;0.40625;-0.52099609375;26.875;49.9375;13.5625;
1441975213188217;-0.8907470703125;-0.22088623046875;-0.3704833984375;-0.14349365234375;5.337457768187765;16.425248528531835;10.925893880597128;0.74658203125;0.40478515625;-0.55322265625;21.1875;58.875;22.3125;
1441975213211219;-0.8863525390625;-0.2154541015625;-0.38507080078125;-0.14056396484375;5.153784052715389;16.399400737205006;10.9376967893222;0.7744140625;0.46142578125;-0.54443359375;6.8125;62.6875;29.75;
1441975213234220;-0.880615234375;-0.2086181640625;-0.40203857421875;-0.13958740234375;4.947642815026826;16.352075488576148;10.955985754750447;0.8427734375;0.384765625;-0.4765625;-14.5;64.375;32.8125;
1441975213248221;-0.87353515625;-0.20111083984375;-0.4207763671875;-0.139892578125;4.725251389702325;16.286103278787763;10.984692112820033;0.94482421875;0.37353515625;-0.44384765625;-31.8125;72.1875;32.9375;
1441975213280223;-0.8660888671875;-0.1925048828125;-0.43963623046875;-0.14019775390625;4.496996349883129;16.216699503654837;11.012703768025549;1.03125;0.52490234375;-0.59521484375;-41.75;88.75;38.875;
1441975213294223;-0.8582763671875;-0.18212890625;-0.45867919921875;-0.14117431640625;4.26225670093471;16.140291208218507;11.037829392160228;1.005859375;0.47412109375;-0.61669921875;-48.625;95.25;43.25;
1441975213318225;-0.8504638671875;-0.1688232421875;-0.47747802734375;-0.14276123046875;4.019666936999049;16.06248337156605;11.049950132318171;0.9267578125;0.48046875;-0.560546875;-56.0625;98.4375;53.875;
1441975213331226;-0.841796875;-0.155029296875;-0.49652099609375;-0.1446533203125;3.7721063152044634;15.974390941206952;11.070029578539284;0.90185546875;0.373046875;-0.47998046875;-69.25;94.25;62.6875;
1441975213354227;-0.83258056640625;-0.14129638671875;-0.51531982421875;-0.1461181640625;3.523928120358479;15.881040540194217;11.098463411652679;0.970703125;0.27783203125;-0.365234375;-73.75;91.6875;57.9375;
1441975213368228;-0.8231201171875;-0.12884521484375;-0.5335693359375;-0.14605712890625;3.2794983599312495;15.787986278461316;11.139328176062424;1.03857421875;0.212890625;-0.3369140625;-73.4375;92.1875;53.5;
1441975213391229;-0.8135986328125;-0.11907958984375;-0.5504150390625;-0.144775390625;3.0557384395639673;15.692389003594219;11.19968782506176;1.15771484375;0.19970703125;-0.3779296875;-64.0625;95.0;48.1875;
1441975213414230;-0.8046875;-0.1077880859375;-0.56573486328125;-0.14447021484375;2.844490043344533;15.595755499708524;11.250917358463806;1.1572265625;0.392578125;-0.41943359375;-45.5;98.125;51.0625;
1441975213428231;-0.7952880859375;-0.0933837890625;-0.58050537109375;-0.14788818359375;2.640633502694383;15.470355580637099;11.302776096369074;0.9912109375;0.38037109375;-0.37060546875;-52.9375;91.125;58.9375;
1441975213469233;-0.78546142578125;-0.07843017578125;-0.5950927734375;-0.15130615234375;2.435712190499116;15.331240027981414;11.36659045175272;0.96240234375;0.30029296875;-0.22119140625;-78.625;79.1875;57.4375;
1441975213483234;-0.77606201171875;-0.06500244140625;-0.60858154296875;-0.15234375;2.2374314479877135;15.20037088562466;11.438693843385629;1.07177734375;0.232421875;-0.20068359375;-82.375;78.875;53.875;
1441975213491235;-0.7674560546875;-0.0528564453125;-0.62109375;-0.1502685546875;2.0392785367380424;15.08808999528414;11.510615544680466;1.17724609375;0.28759765625;-0.40625;-69.375;89.125;56.6875;
1441975213512236;-0.7601318359375;-0.04205322265625;-0.63189697265625;-0.14544677734375;1.8486124647557165;15.006055373016107;11.56915770837072;1.0771484375;0.31298828125;-0.30517578125;-47.625;82.0625;67.3125;
1441975213534237;-0.75274658203125;-0.02996826171875;-0.64178466796875;-0.14373779296875;1.6760846092256032;14.895303715551613;11.638295144808863;1.044921875;0.30810546875;-0.2451171875;-28.375;70.4375;71.9375;
1441975213548238;-0.74505615234375;-0.01568603515625;-0.65106201171875;-0.14434814453125;1.508150477143295;14.758099724228313;11.715366606278888;1.0458984375;0.28515625;-0.20068359375;-45.75;63.75;66.0;
1441975213571239;-0.73785400390625;-7.32421875E-4;-0.6591796875;-0.145263671875;1.34688176585329;14.620637676499538;11.78870551048341;1.04296875;0.20947265625;-0.16748046875;-64.3125;59.4375;62.625;
1441975213594241;-0.73187255859375;0.01239013671875;-0.666015625;-0.14398193359375;1.1944483294525137;14.510178005727198;11.851547279528047;0.97412109375;0.138671875;-0.17236328125;-68.25;54.8125;60.9375;
1441975213608241;-0.727294921875;0.02313232421875;-0.6712646484375;-0.1416015625;1.0633366882260096;14.429704493202475;11.89851390740898;0.92626953125;0.087890625;-0.17236328125;-51.1875;47.75;59.3125;
1441975213640243;-0.7236328125;0.03179931640625;-0.67529296875;-0.1392822265625;0.9560168145531693;14.36216034006711;11.940603485630376;0.91796875;0.09716796875;-0.173828125;-36.3125;38.4375;54.4375;
1441975213654244;-0.72076416015625;0.0400390625;-0.67828369140625;-0.13751220703125;0.8623361438250761;14.315786621469245;11.960946787131451;0.9033203125;0.1826171875;-0.14404296875;-27.1875;30.25;51.0625;
1441975213670245;-0.71844482421875;0.0472412109375;-0.6806640625;-0.13555908203125;0.7789263122207023;14.285827293119716;11.969792421364776;0.90869140625;0.1474609375;-0.142578125;-27.25;23.9375;45.1875;
1441975213699247;-0.7169189453125;0.05224609375;-0.6826171875;-0.13201904296875;0.704019936035535;14.288341169737462;11.961607685735313;0.90966796875;0.12158203125;-0.13134765625;-22.4375;19.5625;39.6875;
1441975213714247;-0.7164306640625;0.05450439453125;-0.683837890625;-0.12701416015625;0.6444976475195785;14.34087711996418;11.920509468073938;0.90673828125;0.078125;-0.13037109375;-6.4375;16.0;34.375;
1441975213736249;-0.7169189453125;0.054931640625;-0.6844482421875;-0.12103271484375;0.596977952386494;14.450230521210033;11.834073877008112;0.92431640625;0.12451171875;-0.14306640625;10.75;11.5625;31.5625;
1441975213751250;-0.7178955078125;0.053955078125;-0.68463134765625;-0.11456298828125;0.5603875276530922;14.595419967740082;11.719437489908403;0.92919921875;0.142578125;-0.15283203125;22.5;7.0;29.0625;
1441975213774251;-0.71954345703125;0.05145263671875;-0.6842041015625;-0.1072998046875;0.535695034085185;14.7936409736738;11.561131771447728;0.92822265625;0.13232421875;-0.14404296875;30.625;3.0;24.6875;
1441975213788252;-0.72198486328125;0.0478515625;-0.68316650390625;-0.09930419921875;0.5224029721873457;15.052705475241504;11.349438544357785;0.927734375;0.13037109375;-0.14599609375;40.1875;-1.1875;20.9375;
1441975213820254;-0.72491455078125;0.0428466796875;-0.68157958984375;-0.09027099609375;0.5207096075804882;15.350675218653345;11.108659253507446;0.9599609375;0.11474609375;-0.16015625;47.875;-6.0625;18.0625;
1441975213834254;-0.728271484375;0.03594970703125;-0.67974853515625;-0.07989501953125;0.5306125447256873;15.65653496452705;10.873123862896398;1.0322265625;0.1142578125;-0.15234375;57.625;-10.9375;15.75;
1441975213848255;-0.73193359375;0.02740478515625;-0.6773681640625;-0.06927490234375;0.5574930758637072;15.928760167817849;10.678799185904907;1.08642578125;0.10400390625;-0.16943359375;70.8125;-12.875;12.3125;
1441975213871256;-0.7359619140625;0.0177001953125;-0.67431640625;-0.05889892578125;0.6010248350000689;16.156778343881548;10.532325707738082;1.05615234375;0.13232421875;-0.1591796875;78.6875;-16.625;8.5;
1441975213894258;-0.74029541015625;0.008544921875;-0.67034912109375;-0.051025390625;0.6634451861668329;16.315516297819528;10.442672196480721;1.03662109375;0.162109375;-0.1640625;82.6875;-20.9375;4.5625;
1441975213908259;-0.7451171875;0.00177001953125;-0.66534423828125;-0.04705810546875;0.7437741116011145;16.421659199069918;10.380070318028832;1.03955078125;0.2265625;-0.16650390625;70.3125;-27.0625;1.4375;
1441975213931260;-0.75018310546875;-7.9345703125E-4;-0.65960693359375;-0.04705810546875;0.8307481507168788;16.513641910393385;10.298399736372204;1.05908203125;0.33544921875;-0.1689453125;45.6875;-34.3125;3.125;
1441975213954261;-0.7550048828125;-6.103515625E-5;-0.6539306640625;-0.04986572265625;0.9143604990318999;16.584394668713824;10.21315386310937;1.09033203125;0.3193359375;-0.1875;12.9375;-39.875;4.1875;
1441975213968262;-0.759033203125;0.00177001953125;-0.64892578125;-0.0535888671875;0.9872141380175494;16.62728602290461;10.147551339346135;1.08544921875;0.248046875;-0.16796875;-12.375;-41.8125;2.625;
1441975213991263;-0.7626953125;0.00335693359375;-0.64434814453125;-0.05657958984375;1.0528856864173233;16.6673294693287;10.088752337825342;1.02783203125;0.18603515625;-0.13623046875;-20.4375;-38.625;-0.125;
1441975214014265;-0.7662353515625;0.00537109375;-0.6397705078125;-0.060546875;1.1197238217328431;16.687221609630317;10.04435434116529;0.95947265625;0.15185546875;-0.16552734375;-17.125;-33.75;-0.8125;
1441975214028265;-0.769775390625;0.00860595703125;-0.63494873046875;-0.0654296875;1.1876266804860676;16.706483374459797;9.991819751221383;0.9033203125;0.20556640625;-0.18017578125;-22.3125;-32.3125;1.3125;
1441975214051267;-0.77313232421875;0.01312255859375;-0.6302490234375;-0.07073974609375;1.250752864374542;16.73093209935789;9.927090365360213;0.89599609375;0.23876953125;-0.2060546875;-30.625;-32.6875;5.1875;
1441975214074268;-0.77606201171875;0.01873779296875;-0.6258544921875;-0.07574462890625;1.304595469299607;16.76807947073615;9.846357615450696;0.908203125;0.240234375;-0.23291015625;-37.25;-30.875;9.5625;
1441975214088269;-0.77838134765625;0.02459716796875;-0.622314453125;-0.07958984375;1.3438124354661367;16.816765645862404;9.757838398525745;0.89892578125;0.224609375;-0.23876953125;-39.875;-28.5;14.0625;
1441975214111270;-0.78009033203125;0.0299072265625;-0.61968994140625;-0.08154296875;1.368567318759721;16.88017171673375;9.664600877561282;0.92724609375;0.21630859375;-0.22119140625;-35.6875;-24.9375;19.1875;
1441975214134272;-0.7811279296875;0.03460693359375;-0.61810302734375;-0.0819091796875;1.3786896776135849;16.952980160011336;9.571007294238935;0.97265625;0.232421875;-0.2236328125;-25.25;-19.5;25.0625;
1441975214148272;-0.7813720703125;0.03955078125;-0.61749267578125;-0.081787109375;1.3745123148035814;17.02951677407266;9.474738970267122;0.97607421875;0.267578125;-0.26318359375;-15.625;-10.3125;31.1875;
1441975214171274;-0.78070068359375;0.04559326171875;-0.61798095703125;-0.0816650390625;1.3535508063163726;17.11510328569619;9.365025504547985;0.95947265625;0.30224609375;-0.30029296875;-13.8125;-0.5;37.75;
1441975214194275;-0.77911376953125;0.05316162109375;-0.6192626953125;-0.08197021484375;1.3189932037625534;17.21320542968198;9.234831797535852;0.94482421875;0.31640625;-0.29736328125;-17.5;7.5;44.625;
1441975214208276;-0.77679443359375;0.06256103515625;-0.62115478515625;-0.08282470703125;1.2743826588382716;17.33223319431826;9.074029155405508;0.951171875;0.31494140625;-0.3037109375;-25.0625;14.125;51.25;
1441975214231277;-0.7738037109375;0.07318115234375;-0.6236572265625;-0.08380126953125;1.2219076153406754;17.477235686478444;8.881824698826323;0.96826171875;0.2763671875;-0.29345703125;-34.625;18.0;56.0;
1441975214254278;-0.770263671875;0.083984375;-0.62664794921875;-0.08428955078125;1.165619514314751;17.650470843262347;8.662645873707636;0.94970703125;0.2041015625;-0.2705078125;-40.5625;21.8125;57.5;
1441975214268279;-0.76641845703125;0.09393310546875;-0.6298828125;-0.08428955078125;1.1107790882909432;17.838312892415846;8.434301964788865;0.9404296875;0.13623046875;-0.2490234375;-39.4375;24.8125;56.8125;
1441975214292281;-0.76287841796875;0.1026611328125;-0.63287353515625;-0.083740234375;1.0660105330189291;0.03369473265204824;8.205626508379874;0.94970703125;0.09033203125;-0.21044921875;-35.125;25.1875;52.8125;
1441975214314282;-0.75994873046875;0.11004638671875;-0.63531494140625;-0.0830078125;1.0347095487747011;0.21813277478999116;7.994101898201824;0.95068359375;0.05322265625;-0.19091796875;-28.5;22.25;47.3125;
1441975214328283;-0.757568359375;0.11602783203125;-0.63720703125;-0.081787109375;1.0152460941725345;0.390398117337471;7.802384239629944;0.93115234375;0.01416015625;-0.1796875;-23.1875;17.875;40.0;
1441975214359284;-0.755859375;0.1201171875;-0.63873291015625;-0.08001708984375;1.0043567502051785;0.5366420645144909;7.646696991058276;0.9140625;-0.029296875;-0.15283203125;-16.625;12.5;32.1875;
1441975214374285;-0.75494384765625;0.1220703125;-0.6397705078125;-0.077392578125;1.0021969577242953;0.6531629079683687;7.532949298351901;0.90625;-0.044921875;-0.1376953125;-7.125;8.4375;24.9375;
1441975214396287;-0.754638671875;0.12200927734375;-0.6405029296875;-0.07415771484375;1.004044421023881;0.7371101275639682;7.462516842741192;0.88037109375;-0.03857421875;-0.14990234375;4.1875;5.0;19.0;
1441975214411287;-0.75494384765625;0.12017822265625;-0.640869140625;-0.07073974609375;1.0086540136573874;0.7821371137693831;7.439009743798112;0.8662109375;-0.00537109375;-0.15283203125;15.25;2.25;14.5;
1441975214433289;-0.75592041015625;0.11749267578125;-0.64056396484375;-0.06793212890625;1.0185912138229434;0.7843158843596294;7.459336568092166;0.8671875;0.05029296875;-0.1708984375;22.75;0.3125;10.75;
1441975214459290;-0.75738525390625;0.11468505859375;-0.6395263671875;-0.0660400390625;1.0344705616317043;0.7528096664341889;7.510022259972442;0.86083984375;0.1015625;-0.20263671875;24.3125;-2.0625;8.0;
1441975214471291;-0.75921630859375;0.11248779296875;-0.63775634765625;-0.06549072265625;1.0567293034975695;0.6946321048953884;7.579313902419291;0.841796875;0.14892578125;-0.224609375;20.625;-4.875;6.3125;
1441975214493292;-0.76116943359375;0.111083984375;-0.6356201171875;-0.0660400390625;1.0823576447964456;0.6254862581847869;7.651814946449716;0.83251953125;0.16259765625;-0.22998046875;12.875;-8.3125;4.375;
1441975214516293;-0.76318359375;0.11065673828125;-0.63311767578125;-0.06744384765625;1.112248956302743;0.5554772678599852;7.717630467903759;0.81201171875;0.15234375;-0.21240234375;4.375;-11.4375;2.75;
1441975214539295;-0.76513671875;0.11102294921875;-0.63043212890625;-0.0693359375;1.1444572299671532;0.4915906435400539;7.772018563904311;0.79833984375;0.1357421875;-0.21337890625;-3.125;-13.3125;2.1875;
1441975214553295;-0.76715087890625;0.111572265625;-0.62774658203125;-0.0714111328125;1.1775049167166998;0.42989004276129195;7.822768181971027;0.79833984375;0.10888671875;-0.21240234375;-8.375;-14.0625;1.6875;
1441975214568296;-0.769287109375;0.112060546875;-0.624755859375;-0.07330322265625;1.2147319100794085;0.3718550455412393;7.870734677303611;0.8232421875;0.09130859375;-0.2138671875;-10.5;-15.0;0.8125;
1441975214591298;-0.77166748046875;0.1121826171875;-0.62164306640625;-0.07489013671875;1.25506113094064;0.3156175278373758;7.9196743113007635;0.83642578125;0.0673828125;-0.2275390625;-9.5;-16.3125;-0.9375;
1441975214613299;-0.7744140625;0.111572265625;-0.6181640625;-0.07623291015625;1.3007724023573914;0.2531810668187138;7.97875350957096;0.8349609375;0.033203125;-0.21533203125;-7.75;-19.375;-4.625;
1441975214645301;-0.77734375;0.110107421875;-0.61456298828125;-0.07720947265625;1.348742334711817;0.18804953703858296;8.045493080408507;0.841796875;0.0;-0.2138671875;-4.3125;-22.625;-9.4375;
1441975214659302;-0.78082275390625;0.10784912109375;-0.6104736328125;-0.078369140625;1.4042466156020936;0.10973485327328508;8.127919780358445;0.86328125;-0.02490234375;-0.20654296875;-0.5625;-25.25;-14.1875;
1441975214673302;-0.78485107421875;0.1051025390625;-0.6055908203125;-0.0794677734375;1.4712656773354726;0.028846642332166078;8.215017076455785;0.89306640625;-0.0224609375;-0.22314453125;1.625;-28.8125;-19.0625;
1441975214696304;-0.78948974609375;0.10174560546875;-0.5999755859375;-0.080322265625;1.550054340016786;17.949217192386044;8.304263722001815;0.89892578125;-0.0419921875;-0.2373046875;2.625;-33.8125;-23.4375;
1441975214711305;-0.79498291015625;0.09747314453125;-0.5933837890625;-0.08062744140625;1.644776400357766;17.87332724646203;8.395671079977912;0.908203125;-0.09033203125;-0.23779296875;4.9375;-40.5;-29.75;
1441975214742306;-0.8011474609375;0.09228515625;-0.58587646484375;-0.0804443359375;1.7537156640791927;17.802485026549796;8.487651122730819;0.89794921875;-0.11669921875;-0.232421875;9.5;-48.625;-35.5625;
1441975214773308;-0.80767822265625;0.08673095703125;-0.5777587890625;-0.07965087890625;1.8721881491393269;17.745787254473992;8.569407885722125;0.90478515625;-0.10009765625;-0.2373046875;14.5625;-55.875;-37.75;
1441975214775308;-0.8143310546875;0.08087158203125;-0.56939697265625;-0.0784912109375;1.9947675633922917;17.69935224215036;8.643671577904996;0.95947265625;-0.07666015625;-0.26416015625;18.875;-61.125;-37.375;
1441975214793309;-0.8209228515625;0.07476806640625;-0.56097412109375;-0.07720947265625;2.118295131418623;17.65929388316109;8.71310378686264;1.0546875;-0.056640625;-0.29833984375;21.5;-64.25;-36.75;
1441975214825311;-0.82720947265625;0.06842041015625;-0.55255126953125;-0.07611083984375;2.2405649187688272;17.620807924582433;8.781194201697925;1.14453125;-0.03759765625;-0.33642578125;22.8125;-65.4375;-37.1875;
1441975214831311;-0.833251953125;0.0618896484375;-0.54425048828125;-0.07537841796875;2.3609163630250123;17.581849879675957;8.84907658627843;1.16015625;-0.04052734375;-0.36669921875;22.5;-64.375;-39.5625;
1441975214853313;-0.83905029296875;0.0557861328125;-0.5360107421875;-0.0748291015625;2.479601562387196;17.54890491929718;8.90847810249326;1.0771484375;-0.03857421875;-0.3857421875;20.875;-61.25;-41.5625;
1441975214876314;-0.84454345703125;0.05072021484375;-0.52789306640625;-0.07452392578125;2.595067949406605;17.52433883254436;8.954242544381653;0.96533203125;-0.04638671875;-0.4033203125;18.0;-57.25;-40.5625;
1441975214899315;-0.8494873046875;0.0467529296875;-0.5203857421875;-0.07373046875;2.700460339993715;17.51436980633174;8.982994397332893;0.896484375;-0.04345703125;-0.4189453125;13.5625;-54.625;-35.9375;
1441975214913316;-0.853759765625;0.0433349609375;-0.51385498046875;-0.072265625;2.7916124025295597;17.51517433260526;9.001669241710426;0.89990234375;-0.044921875;-0.4345703125;11.875;-50.9375;-29.25;
1441975214938318;-0.857421875;0.03985595703125;-0.50830078125;-0.0701904296875;2.8693421013591807;17.521367863917312;9.017952916393366;0.93701171875;-0.04736328125;-0.4521484375;13.375;-45.8125;-24.1875;
1441975214951318;-0.860595703125;0.03631591796875;-0.5035400390625;-0.06781005859375;2.9362896960110025;17.52971393048318;9.033787534228885;0.94677734375;-0.02294921875;-0.48779296875;17.0;-38.5625;-21.0625;
1441975214982320;-0.86334228515625;0.033447265625;-0.499267578125;-0.06585693359375;2.995585030197392;17.537237531422377;9.045939533348406;0.921875;0.00634765625;-0.5263671875;19.4375;-30.75;-17.6875;
1441975214997321;-0.86566162109375;0.03192138671875;-0.49542236328125;-0.064697265625;3.0474932614076993;17.544029567656004;9.049928590367907;0.85205078125;0.0263671875;-0.54052734375;15.9375;-24.8125;-13.9375;
1441975215011322;-0.86767578125;0.031494140625;-0.4920654296875;-0.06396484375;3.0921415734833744;17.55216975680273;9.04625103704233;0.7763671875;0.025390625;-0.533203125;8.0625;-20.5;-9.25;
1441975215033323;-0.869140625;0.03167724609375;-0.4896240234375;-0.06292724609375;3.123969696605506;17.565499072304387;9.036219691285435;0.71875;0.0185546875;-0.52587890625;3.0;-16.1875;-4.5;
1441975215065325;-0.869873046875;0.03253173828125;-0.48834228515625;-0.0618896484375;3.139688533730778;17.58115809177157;9.021168810720676;0.7060546875;0.025390625;-0.5380859375;2.3125;-9.625;0.375;
1441975215071325;-0.8702392578125;0.03399658203125;-0.48779296875;-0.0609130859375;3.145737511434419;17.59882023376419;9.001403110874758;0.73193359375;0.064453125;-0.564453125;2.5;-1.8125;6.375;
1441975215102327;-0.870361328125;0.036376953125;-0.4874267578125;-0.06060791015625;3.148354243996605;17.614685223772863;8.976753098229649;0.76171875;0.1044921875;-0.59375;1.1875;3.5625;12.375;
1441975215108327;-0.87042236328125;0.03936767578125;-0.4869384765625;-0.06109619140625;3.151844399216639;17.626203132018812;8.950499030334875;0.7705078125;0.10107421875;-0.60107421875;-4.375;4.9375;14.5;
1441975215131329;-0.8704833984375;0.04278564453125;-0.4864501953125;-0.06201171875;3.1553005309395514;17.63588582586656;8.922489684243649;0.75341796875;0.08740234375;-0.5693359375;-10.5625;3.0;15.25;
1441975215153330;-0.87030029296875;0.046142578125;-0.486328125;-0.06298828125;3.153874252144834;17.644439745485872;8.895647836052298;0.759765625;0.0673828125;-0.55517578125;-14.125;1.75;14.75;
1441975215176331;-0.86993408203125;0.04931640625;-0.48663330078125;-0.063720703125;3.14730072496564;17.65423221085785;8.869446288319567;0.7646484375;0.0419921875;-0.54052734375;-15.5;3.5625;13.125;
1441975215191332;-0.86956787109375;0.05206298828125;-0.48699951171875;-0.06378173828125;3.1403594876450667;17.668225888125672;8.843678199868638;0.765625;0.03662109375;-0.54833984375;-13.5;6.5;12.625;
1441975215213333;-0.86920166015625;0.054443359375;-0.4874267578125;-0.0634765625;3.133080270294415;17.683841745143294;8.81938440609235;0.7568359375;0.0244140625;-0.55859375;-9.4375;8.0;12.1875;
1441975215244335;-0.868896484375;0.056396484375;-0.48779296875;-0.0633544921875;3.1270218110151795;17.69548902182048;8.800085326343732;0.7646484375;0.01904296875;-0.568359375;-6.6875;8.1875;10.875;
1441975215251335;-0.86846923828125;0.05816650390625;-0.48822021484375;-0.06365966796875;3.1197664250185158;17.702057132572556;8.784822164408553;0.7734375;0.0283203125;-0.564453125;-6.25;7.875;9.0625;
1441975215275337;-0.867919921875;0.0596923828125;-0.48895263671875;-0.06402587890625;3.1088781947027906;17.706754249860467;8.772269196701982;0.7822265625;0.02685546875;-0.560546875;-7.5625;8.0625;7.0;
1441975215297338;-0.8673095703125;0.06060791015625;-0.489990234375;-0.06414794921875;3.0948212024762856;17.710544573032067;8.76429833737698;0.80908203125;0.01220703125;-0.546875;-7.75;8.5;4.5;
1441975215311339;-0.86663818359375;0.0609130859375;-0.49114990234375;-0.063720703125;3.0794479800193924;17.716350431509223;8.759191080746458;0.82763671875;-0.0029296875;-0.53271484375;-5.1875;8.75;1.875;
1441975215335340;-0.86602783203125;0.0606689453125;-0.49237060546875;-0.06304931640625;3.063993355925875;17.721552923153133;8.758052517628899;0.85205078125;-0.013671875;-0.5234375;-0.875;8.5;-0.5625;
1441975215356341;-0.86541748046875;0.05999755859375;-0.49359130859375;-0.06231689453125;3.0486512212165042;17.72498468414126;8.760723544683898;0.87158203125;-0.01513671875;-0.515625;2.0;7.875;-2.75;
1441975215371342;-0.864990234375;0.05902099609375;-0.49456787109375;-0.06195068359375;3.036800716636528;17.723107130047318;8.76842168062247;0.88232421875;-0.0244140625;-0.50634765625;3.0625;7.0;-4.9375;
1441975215393344;-0.86468505859375;0.05780029296875;-0.49517822265625;-0.0621337890625;3.029298908245899;17.71439394041861;8.781586108494944;0.8818359375;-0.0390625;-0.49169921875;1.5625;4.8125;-8.625;
1441975215416345;-0.8646240234375;0.056396484375;-0.49542236328125;-0.0623779296875;3.0269207948922126;17.704039365740677;8.796856281073232;0.857421875;-0.06005859375;-0.44970703125;-1.0625;1.25;-13.0;
1441975215431346;-0.8646240234375;0.0545654296875;-0.49554443359375;-0.06292724609375;3.0263052044288976;17.688256330907006;8.818042657758475;0.865234375;-0.080078125;-0.43505859375;-1.6875;-1.9375;-15.8125;
1441975215461347;-0.86468505859375;0.05230712890625;-0.49566650390625;-0.063720703125;3.0263463826338786;17.66766647041641;8.844823204817539;0.8876953125;-0.080078125;-0.4326171875;-1.875;-3.5625;-18.5;
1441975215477348;-0.86468505859375;0.04974365234375;-0.4957275390625;-0.064453125;3.026979166557294;17.645932210167523;8.874236164906652;0.8837890625;-0.0498046875;-0.4228515625;-1.0;-4.125;-20.25;
1441975215491349;-0.8648681640625;0.04730224609375;-0.49554443359375;-0.06573486328125;3.0313505641932066;17.619648811041337;8.905369845370984;0.90283203125;-0.0107421875;-0.43359375;1.3125;-3.875;-19.375;
1441975215513350;-0.8651123046875;0.04510498046875;-0.4949951171875;-0.06793212890625;3.040105124002379;17.585992623294416;8.93891994636649;0.89453125;0.0107421875;-0.455078125;-1.1875;-4.0625;-19.5625;
1441975215536352;-0.8653564453125;0.04339599609375;-0.49432373046875;-0.07049560546875;3.05024638514871;17.55172554021806;8.9694625719073;0.83984375;0.02099609375;-0.43603515625;-6.3125;-5.3125;-20.1875;
1441975215554353;-0.8653564453125;0.04193115234375;-0.49407958984375;-0.0731201171875;3.0549626042700773;17.518032894997056;8.99821641839007;0.8076171875;0.0205078125;-0.41064453125;-9.375;-6.3125;-19.625;
1441975215573354;-0.86505126953125;0.04046630859375;-0.49444580078125;-0.07513427734375;3.0519109534630746;17.489779566886174;9.024192817289858;0.79736328125;0.02392578125;-0.3955078125;-10.5;-4.3125;-17.8125;
1441975215596355;-0.86431884765625;0.03887939453125;-0.4957275390625;-0.07611083984375;3.0371233647703444;17.469965894940344;9.04675478473176;0.8056640625;0.05322265625;-0.39697265625;-6.5625;-0.5;-14.6875;
1441975215611356;-0.86309814453125;0.037109375;-0.49798583984375;-0.07635498046875;3.0097756678242544;17.454976968411927;9.068488756400622;0.8349609375;0.09228515625;-0.408203125;0.0625;4.9375;-10.0;
1441975215641358;-0.86114501953125;0.035400390625;-0.50140380859375;-0.07659912109375;2.9668744878616864;17.438384998041823;9.091708535638595;0.880859375;0.13818359375;-0.43017578125;5.6875;11.1875;-5.5;
1441975215666359;-0.8582763671875;0.03424072265625;-0.5062255859375;-0.077392578125;2.9048819276357927;17.41674291956203;9.115547696153806;0.9375;0.2021484375;-0.4599609375;7.375;19.3125;-1.125;
1441975215671359;-0.8544921875;0.03387451171875;-0.512451171875;-0.07879638671875;2.8236264285939843;17.39029589124353;9.138506336483614;0.9931640625;0.2578125;-0.490234375;4.625;29.625;3.5;
1441975215703361;-0.85015869140625;0.034423828125;-0.51934814453125;-0.080322265625;2.731812502320029;17.365574072798395;9.155483684900476;1.0205078125;0.271484375;-0.50390625;-1.125;39.9375;7.5;
1441975215716362;-0.8455810546875;0.0355224609375;-0.52655029296875;-0.0811767578125;2.634387216609865;17.34974011901129;9.164131456298039;0.96728515625;0.2373046875;-0.48388671875;-5.625;46.4375;10.125;
1441975215731363;-0.84088134765625;0.03656005859375;-0.5340576171875;-0.0804443359375;2.53186174784339;17.349814649127772;9.1637822608213;0.88818359375;0.18310546875;-0.42919921875;-5.5;48.375;12.1875;
1441975215755364;-0.8359375;0.03729248046875;-0.54205322265625;-0.0777587890625;2.4216931335331817;17.36936512188692;9.153367616217775;0.859375;0.13720703125;-0.3857421875;1.25;49.1875;14.6875;
1441975215776365;-0.830810546875;0.037109375;-0.55047607421875;-0.07330322265625;2.305867559527767;17.403653430587703;9.139326759878333;0.89013671875;0.12255859375;-0.3857421875;11.125;52.25;18.4375;
1441975215791366;-0.82568359375;0.0355224609375;-0.55908203125;-0.06732177734375;2.1886967008346456;17.44753138192979;9.127722190854461;0.9384765625;0.1435546875;-0.39208984375;23.0;55.5625;21.6875;
1441975215813368;-0.8206787109375;0.0328369140625;-0.56732177734375;-0.060546875;2.076382752410129;17.495463788341233;9.119633911018582;0.98828125;0.17431640625;-0.3828125;35.625;55.9375;22.625;
1441975215836369;-0.81591796875;0.02996826171875;-0.57489013671875;-0.0543212890625;1.9726148435408322;17.538118097071656;9.115066568566283;1.0400390625;0.20947265625;-0.37646484375;44.125;53.75;22.375;
1441975215851370;-0.8115234375;0.02789306640625;-0.58160400390625;-0.049560546875;1.8796100887373408;17.571709183591313;9.110071458063281;1.07861328125;0.24169921875;-0.3623046875;42.9375;49.5;22.1875;
1441975215875371;-0.8076171875;0.02703857421875;-0.58734130859375;-0.04632568359375;1.7989882984966559;17.59927283933253;9.09967209493435;1.0927734375;0.23583984375;-0.34814453125;33.125;44.1875;20.875;
1441975215896372;-0.80426025390625;0.02716064453125;-0.59210205078125;-0.0443115234375;1.7311670533068146;17.62240778049592;9.084582087242456;1.07568359375;0.181640625;-0.32275390625;20.625;37.875;18.0625;
1441975215911373;-0.8016357421875;0.02764892578125;-0.595703125;-0.043212890625;1.6793084294139267;17.638741197992076;9.070949270096685;1.04052734375;0.111328125;-0.2939453125;9.9375;31.0;13.6875;
1441975215941375;-0.79974365234375;0.02777099609375;-0.59820556640625;-0.04278564453125;1.6431488455668377;17.642498201701386;9.068566389515144;1.00537109375;0.05517578125;-0.26611328125;3.875;23.125;8.25;
1441975215956376;-0.79876708984375;0.027587890625;-0.59954833984375;-0.04302978515625;1.6244355111354172;17.633832205395215;9.07705847317553;0.97314453125;0.02392578125;-0.2421875;1.125;14.75;2.4375;
1441975215974377;-0.79864501953125;0.02691650390625;-0.59967041015625;-0.044189453125;1.6236581399520185;17.606377634875642;9.10251744303972;0.95947265625;0.0224609375;-0.2392578125;-0.5;6.9375;-2.375;
1441975216001378;-0.79925537109375;0.02593994140625;-0.5987548828125;-0.04638671875;1.638513036438155;17.56077997471882;9.143061891770312;0.9560546875;0.044921875;-0.25341796875;-3.0;-0.125;-6.5;
1441975216016379;-0.8004150390625;0.02490234375;-0.596923828125;-0.0494384765625;1.666631710833384;17.50396694559755;9.191496802496683;0.95263671875;0.08349609375;-0.2705078125;-5.875;-6.125;-9.6875;
1441975216032380;-0.80224609375;0.02398681640625;-0.59423828125;-0.0531005859375;1.7081067937411216;17.443639390086396;9.240402561062432;0.94970703125;0.10693359375;-0.2822265625;-9.25;-11.6875;-11.75;
1441975216062382;-0.804443359375;0.02349853515625;-0.59088134765625;-0.0572509765625;1.7587482918249002;17.385343363865108;9.283446879171912;0.94580078125;0.12890625;-0.3017578125;-12.25;-16.625;-12.8125;
1441975216076383;-0.8067626953125;0.0234375;-0.5872802734375;-0.0616455078125;1.8126257557866354;17.331608147764342;9.319130189425223;0.9423828125;0.1376953125;-0.31298828125;-15.4375;-20.6875;-12.875;
1441975216091383;-0.8092041015625;0.02386474609375;-0.5833740234375;-0.06610107421875;1.869811086990013;17.285506920184567;9.34485432371445;0.9208984375;0.134765625;-0.30908203125;-18.6875;-23.0625;-12.25;
1441975216121385;-0.81170654296875;0.02459716796875;-0.57940673828125;-0.0703125;1.9273431227622124;17.248188786140652;9.361511618105705;0.8974609375;0.13330078125;-0.31591796875;-20.5625;-24.3125;-11.0;
1441975216136386;-0.814208984375;0.02557373046875;-0.5753173828125;-0.07427978515625;1.9853453165224015;17.2182990239454;9.37067119433513;0.86962890625;0.12109375;-0.31494140625;-20.9375;-25.0;-9.5;
1441975216151387;-0.816650390625;0.02667236328125;-0.57135009765625;-0.07763671875;2.0407470860327583;17.19826459596284;9.371961981419338;0.84228515625;0.1240234375;-0.32275390625;-20.25;-25.0;-7.875;
1441975216173388;-0.819091796875;0.02801513671875;-0.5673828125;-0.08056640625;2.095072983669604;17.18646658052141;9.36573640104414;0.81591796875;0.111328125;-0.3271484375;-18.5625;-24.5625;-6.0;
1441975216196389;-0.82135009765625;0.02960205078125;-0.56365966796875;-0.08282470703125;2.1445235706019226;17.1844812850985;9.35144356944843;0.78857421875;0.10791015625;-0.32177734375;-17.25;-24.5625;-4.125;
1441975216214390;-0.82305908203125;0.031494140625;-0.5609130859375;-0.083740234375;2.1789528384041517;17.198444266469814;9.325588888358253;0.7919921875;0.11328125;-0.3203125;-14.875;-23.6875;-0.25;
1441975216233392;-0.82373046875;0.03369140625;-0.559814453125;-0.08343505859375;2.1893986869292386;17.22435065742757;9.291755478955391;0.9052734375;0.15234375;-0.36328125;-8.8125;-18.375;7.8125;
1441975216256393;-0.82354736328125;0.03643798828125;-0.56005859375;-0.08294677734375;2.1810457549458344;17.25290917603177;9.253934295044026;1.123046875;0.2294921875;-0.45068359375;-2.8125;-7.3125;17.75;
1441975216280394;-0.82293701171875;0.03961181640625;-0.56060791015625;-0.0836181640625;2.1681537116074425;17.26936766899016;9.221651725885215;1.32666015625;0.26513671875;-0.521484375;-3.5625;0.875;23.4375;
1441975216296395;-0.822509765625;0.043701171875;-0.56060791015625;-0.08575439453125;2.1620662504301396;17.27654139659872;9.188745504593044;1.2353515625;0.21630859375;-0.48291015625;-11.375;3.6875;19.0625;
1441975216324397;-0.822021484375;0.04901123046875;-0.5604248046875;-0.0888671875;2.1567474103712145;17.282083396659395;9.148360070548748;1.01318359375;0.083984375;-0.3994140625;-23.8125;0.5625;11.5;
1441975216332397;-0.821533203125;0.05419921875;-0.56024169921875;-0.0914306640625;2.151111241538317;17.293706310917262;9.104655344947977;0.85888671875;-0.05810546875;-0.3271484375;-35.625;-1.5625;5.5625;
1441975216353398;-0.821533203125;0.05755615234375;-0.5599365234375;-0.09112548828125;2.1495772276558798;17.327232158326414;9.058482560513891;0.763671875;-0.14501953125;-0.27734375;-34.1875;-2.125;2.0625;
1441975216376400;-0.8221435546875;0.05804443359375;-0.55950927734375;-0.087890625;2.154382655103827;17.37436002258678;9.022697268128356;0.75390625;-0.17626953125;-0.27587890625;-15.6875;-4.125;0.75;
1441975216393401;-0.8232421875;0.055908203125;-0.55889892578125;-0.0830078125;2.165912092207805;17.420363563633067;9.005696377057312;0.798828125;-0.1123046875;-0.27685546875;9.5625;-7.375;0.5;
1441975216415402;-0.82470703125;0.05279541015625;-0.55767822265625;-0.0782470703125;2.1866849478094705;17.457010006246684;9.001475821559456;0.85498046875;9.765625E-4;-0.275390625;28.6875;-10.75;0.5;
1441975216437403;-0.82623291015625;0.05023193359375;-0.55615234375;-0.07501220703125;2.211182232057997;17.479042168786325;9.003271283177126;0.91162109375;0.08984375;-0.3154296875;33.5625;-13.375;0.9375;
1441975216453404;-0.8275146484375;0.0491943359375;-0.554443359375;-0.07403564453125;2.235851679657774;17.48532435612442;9.00511364728953;0.98046875;0.16455078125;-0.37158203125;26.0625;-13.25;2.9375;
1441975216476405;-0.82861328125;0.050048828125;-0.5526123046875;-0.0750732421875;2.2600547112449494;17.48215572763422;9.000227687356027;1.03662109375;0.201171875;-0.416015625;11.3125;-12.1875;5.1875;
1441975216504407;-0.82952880859375;0.05291748046875;-0.55059814453125;-0.0771484375;2.28369901334577;17.482568049660827;8.979055207894152;1.01806640625;0.18115234375;-0.4384765625;-5.125;-11.0625;6.625;
1441975216512408;-0.83026123046875;0.0572509765625;-0.548828125;-0.07928466796875;2.3027286293823432;17.49346437990224;8.94112585965822;0.947265625;0.11962890625;-0.4404296875;-17.8125;-9.9375;9.0625;
1441975216535409;-0.83050537109375;0.0618896484375;-0.5477294921875;-0.08050537109375;2.311833035359604;17.51674193411224;8.893388451284954;0.89892578125;0.05029296875;-0.43505859375;-25.0625;-8.1875;11.6875;
1441975216557410;-0.83062744140625;0.065673828125;-0.5472412109375;-0.0799560546875;2.3147197625244416;17.554075423585402;8.84259315389026;0.8779296875;9.765625E-4;-0.41650390625;-22.4375;-4.875;13.625;
1441975216589412;-0.83062744140625;0.06805419921875;-0.54730224609375;-0.07763671875;2.3125571778931002;17.601367150235703;8.79507696858568;0.87841796875;-0.0224609375;-0.41455078125;-11.75;-1.625;14.375;
1441975216593412;-0.83062744140625;0.0689697265625;-0.547607421875;-0.07427978515625;2.309164568708905;17.649564682466956;8.757051161584284;0.87744140625;-0.013671875;-0.4033203125;1.6875;0.1875;14.0;
1441975216616413;-0.8306884765625;0.06915283203125;-0.5479736328125;-0.07061767578125;2.30626354832409;17.695709695461005;8.725396362193473;0.888671875;0.013671875;-0.38818359375;12.3125;0.4375;13.125;
1441975216640415;-0.83087158203125;0.06939697265625;-0.54803466796875;-0.06756591796875;2.3073102150289024;17.73492489512709;8.697832763650439;0.896484375;0.05029296875;-0.37451171875;17.1875;-0.3125;13.0;
1441975216653416;-0.83099365234375;0.0703125;-0.5479736328125;-0.06585693359375;2.3090234896534176;17.763120156368892;8.672927220896222;0.90185546875;0.0703125;-0.37890625;14.6875;-1.75;12.875;
1441975216676417;-0.831298828125;0.0718994140625;-0.54736328125;-0.065185546875;2.3169891978079873;17.78380520255827;8.648350311904265;0.9091796875;0.0751953125;-0.35107421875;6.6875;-3.9375;12.5625;
1441975216692418;-0.831787109375;0.07403564453125;-0.54632568359375;-0.0654296875;2.3300028763691634;17.7974065481598;8.624726224491289;0.90478515625;0.0615234375;-0.3564453125;-1.0625;-6.8125;11.5625;
1441975216713419;-0.83245849609375;0.07611083984375;-0.54486083984375;-0.06610107421875;2.348142881794574;17.804915403395682;8.605579317300572;0.89794921875;0.029296875;-0.35546875;-7.875;-9.125;8.8125;
1441975216736420;-0.83355712890625;0.07769775390625;-0.54296875;-0.06683349609375;2.373001856701902;17.80735981884033;8.59324721939709;0.8994140625;0.00927734375;-0.35693359375;-10.8125;-11.6875;5.875;
1441975216752421;-0.83489990234375;0.0784912109375;-0.5406494140625;-0.06744384765625;2.403446856690259;17.804706259321335;8.589695523263453;0.88525390625;0.00830078125;-0.375;-9.3125;-13.625;2.9375;
1441975216789423;-0.83673095703125;0.07830810546875;-0.53778076171875;-0.06817626953125;2.4420513454132764;17.792896440709235;8.59878740964196;0.85546875;-0.005859375;-0.3837890625;-6.75;-15.375;-1.625;
1441975216796424;-0.8387451171875;0.0771484375;-0.53466796875;-0.06884765625;2.4841519683259268;17.774791906486175;8.618423152956627;0.8125;-0.00634765625;-0.3837890625;-4.4375;-17.6875;-7.375;
1441975216814425;-0.84088134765625;0.0751953125;-0.531494140625;-0.0697021484375;2.5276593507839085;17.749506677669693;8.647788816117156;0.8056640625;-0.0087890625;-0.392578125;-1.4375;-19.375;-12.1875;
1441975216860427;-0.8428955078125;0.07275390625;-0.528564453125;-0.07061767578125;2.568314096209842;17.72106972761026;8.682131447805506;0.818359375;0.01318359375;-0.4072265625;0.5625;-19.0625;-15.3125;
1441975216865428;-0.8447265625;0.06982421875;-0.52593994140625;-0.07135009765625;2.605312552799864;17.69226031461017;8.719684851253545;0.84765625;0.05419921875;-0.42919921875;3.0625;-17.5625;-15.875;
1441975216887429;-0.84637451171875;0.066650390625;-0.52349853515625;-0.07232666015625;2.6398088348912707;17.659992242777424;8.76070979738604;0.89111328125;0.08984375;-0.46533203125;6.0;-14.625;-15.5;
1441975216903430;-0.84808349609375;0.06329345703125;-0.52093505859375;-0.0738525390625;2.6763751324647957;17.621532342148484;8.806396708036313;0.923828125;0.09375;-0.49560546875;5.8125;-12.8125;-17.5;
1441975216916431;-0.849609375;0.0601806640625;-0.51849365234375;-0.075927734375;2.7111565132006454;17.57978571911174;8.852065566165251;0.90380859375;0.083984375;-0.48681640625;3.0;-13.25;-20.8125;
1441975216938432;-0.85089111328125;0.0574951171875;-0.51641845703125;-0.07830810546875;2.7413023540875505;17.538359417990776;8.894430616167805;0.8720703125;0.0771484375;-0.4677734375;-1.0;-13.0625;-22.1875;
1441975216961433;-0.85174560546875;0.05438232421875;-0.51495361328125;-0.08026123046875;2.7636678933631194;17.498979388093552;8.938373504240728;0.87255859375;0.07373046875;-0.466796875;-3.8125;-10.5625;-21.6875;
1441975216976434;-0.8524169921875;0.05059814453125;-0.5140380859375;-0.08154296875;2.780393023388358;17.46256450385923;8.98508225199788;0.88427734375;0.0869140625;-0.47412109375;-0.3125;-6.4375;-21.3125;
1441975216998435;-0.85308837890625;0.0460205078125;-0.51324462890625;-0.08209228515625;2.796803664522333;17.429228245770467;9.035109964178023;0.88818359375;0.08837890625;-0.47607421875;4.9375;-3.4375;-22.5625;
1441975217013436;-0.85357666015625;0.041015625;-0.5128173828125;-0.08251953125;2.809494954819095;17.394481540195766;9.088914038468033;0.8720703125;0.0986328125;-0.478515625;10.75;-2.125;-24.25;
1441975217036438;-0.853759765625;0.035888671875;-0.51275634765625;-0.08319091796875;2.817820537574123;17.35611938611067;9.1458574691917;0.85302734375;0.1025390625;-0.46435546875;12.9375;0.0;-25.875;
1441975217059439;-0.85357666015625;0.0308837890625;-0.513427734375;-0.0836181640625;2.817188777221198;17.31997109654937;9.201230129645733;0.84326171875;0.10498046875;-0.4580078125;11.875;3.0625;-26.5625;
1441975217081440;-0.85296630859375;0.0257568359375;-0.51470947265625;-0.08343505859375;2.8082879841024297;17.2879273274489;9.25560536375686;0.841796875;0.099609375;-0.4560546875;12.25;7.25;-26.0;
1441975217096441;-0.85198974609375;0.02020263671875;-0.51666259765625;-0.0823974609375;2.7909218921202417;17.260267251325587;9.311020681739926;0.84765625;0.08251953125;-0.45166015625;14.8125;11.3125;-25.625;
1441975217118442;-0.8507080078125;0.01422119140625;-0.51934814453125;-0.08056640625;2.7648309349494045;17.23600889344601;9.36821981820671;0.85205078125;0.0859375;-0.44580078125;20.3125;15.5;-24.6875;
1441975217133443;-0.84906005859375;0.00787353515625;-0.52239990234375;-0.0784912109375;2.733843557153257;17.209907278486746;9.429760659109599;0.8740234375;0.09912109375;-0.447265625;25.625;19.75;-23.5625;
1441975217156444;-0.84735107421875;0.00146484375;-0.525634765625;-0.076171875;2.7009859384180475;17.184520971998722;9.491839536869943;0.88671875;0.12744140625;-0.44287109375;28.75;22.6875;-23.25;
1441975217180446;-0.84539794921875;-0.00439453125;-0.52899169921875;-0.07421875;2.6656384818415573;17.156933100947082;9.55223260368681;0.8876953125;0.1318359375;-0.4296875;29.6875;23.4375;-22.5;
1441975217195447;-0.84326171875;-0.009765625;-0.5325927734375;-0.07232666015625;2.626549628831298;17.129739496993725;9.609912046684572;0.8818359375;0.1220703125;-0.400390625;26.375;23.1875;-21.3125;
1441975217216448;-0.84112548828125;-0.014892578125;-0.5361328125;-0.0704345703125;2.588001164415699;17.10303592423683;9.666027131277707;0.87060546875;0.10107421875;-0.3681640625;24.1875;23.1875;-20.5625;
1441975217247450;-0.8389892578125;-0.01983642578125;-0.53955078125;-0.06829833984375;2.5501198031226298;17.079285131875714;9.719377215661742;0.84423828125;0.07763671875;-0.34033203125;22.6875;22.8125;-20.6875;
1441975217256450;-0.83697509765625;-0.0244140625;-0.542724609375;-0.06622314453125;2.5148805952464226;17.057201512070645;9.769228029036517;0.84716796875;0.064453125;-0.33203125;22.8125;21.9375;-20.0625;
1441975217277451;-0.8349609375;-0.02886962890625;-0.54583740234375;-0.064208984375;2.480389257925093;17.03444038100131;9.818952113893062;0.88037109375;0.06884765625;-0.3212890625;21.9375;19.3125;-18.875;
1441975217298453;-0.8330078125;-0.032958984375;-0.548828125;-0.06256103515625;2.447693698284463;17.009698835855314;9.867579417661446;0.89990234375;0.07373046875;-0.3291015625;21.125;18.9375;-18.1875;
1441975217315453;-0.83099365234375;-0.03668212890625;-0.55169677734375;-0.06134033203125;2.4162627228032316;16.98196064883539;9.91587178032459;0.8994140625;0.0732421875;-0.33349609375;18.0;18.8125;-17.9375;
1441975217336455;-0.8291015625;-0.039794921875;-0.554443359375;-0.06103515625;2.3878356625875687;16.948085748664607;9.963960461605991;0.9033203125;0.07421875;-0.33154296875;14.8125;18.5625;-17.625;
1441975217359456;-0.8271484375;-0.04193115234375;-0.55718994140625;-0.06134033203125;2.358457978599755;16.913129681638203;10.006543771241413;0.8974609375;0.09716796875;-0.34375;9.1875;18.5;-16.1875;
1441975217389458;-0.8250732421875;-0.04302978515625;-0.56005859375;-0.06195068359375;2.325532231874905;16.880367192758957;10.041371650010763;0.91259765625;0.1181640625;-0.36669921875;3.4375;19.5625;-12.5;
1441975217395458;-0.82305908203125;-0.04376220703125;-0.5628662109375;-0.062255859375;2.291806883241146;16.85332943672539;10.070220169592943;0.931640625;0.10546875;-0.3701171875;-2.0625;20.4375;-9.6875;
1441975217435460;-0.821044921875;-0.04437255859375;-0.5657958984375;-0.061767578125;2.2544201008722107;16.835119378559668;10.09301880950157;0.91552734375;0.08154296875;-0.3671875;-2.6875;20.5625;-8.5;
1441975217438461;-0.81915283203125;-0.044677734375;-0.568603515625;-0.0614013671875;2.2183592880453715;16.818122321084502;10.112834780996774;0.92431640625;0.06884765625;-0.3369140625;0.9375;19.5625;-6.1875;
1441975217464462;-0.8172607421875;-0.0440673828125;-0.57135009765625;-0.06201171875;2.1830891475411973;16.79627973560791;10.12968386327889;0.9443359375;0.09033203125;-0.337890625;-0.0625;18.75;-3.875;
1441975217480463;-0.815673828125;-0.04180908203125;-0.57354736328125;-0.06390380859375;2.153283497096978;16.775132284710605;10.133749910131788;0.9228515625;0.10595703125;-0.3232421875;-7.25;17.4375;-1.375;
1441975217494464;-0.8143310546875;-0.0379638671875;-0.575439453125;-0.066650390625;2.1251749311383867;16.75840868519895;10.12334277330183;0.90478515625;0.1103515625;-0.32568359375;-18.25;14.3125;2.125;
1441975217525465;-0.81317138671875;-0.03326416015625;-0.57696533203125;-0.06964111328125;2.0993131009945207;16.748012679800155;10.102090528205235;0.90380859375;0.0810546875;-0.32861328125;-28.0625;11.6875;5.125;
1441975217538466;-0.8121337890625;-0.02899169921875;-0.578369140625;-0.07196044921875;2.0744591186644876;16.743637420836585;10.079365840525789;0.90673828125;0.04296875;-0.32275390625;-32.75;9.125;5.4375;
1441975217555467;-0.81121826171875;-0.02520751953125;-0.57965087890625;-0.073486328125;2.0504811096025604;16.746416142676363;10.054782853410913;0.90673828125;0.0234375;-0.31591796875;-28.3125;8.125;4.5625;
1441975217576468;-0.81036376953125;-0.0213623046875;-0.580810546875;-0.07489013671875;2.0273931927990065;16.752403212958107;10.027250085210744;0.90380859375;0.0234375;-0.3173828125;-23.125;7.5625;5.0625;
1441975217598470;-0.8094482421875;-0.0172119140625;-0.58197021484375;-0.07666015625;2.004128206567466;16.756466821927965;9.998886207445713;0.9091796875;0.046875;-0.31982421875;-22.1875;7.5625;7.25;
1441975217614471;-0.80841064453125;-0.01318359375;-0.58319091796875;-0.07940673828125;1.9828840821152331;16.74636857901843;9.981179413809373;0.9169921875;0.0546875;-0.33056640625;-24.8125;8.125;8.125;
1441975217636472;-0.8074951171875;-0.009033203125;-0.5841064453125;-0.08233642578125;1.9651711781358823;16.736967013163852;9.96150363390768;0.92626953125;0.099609375;-0.32373046875;-27.75;8.25;7.1875;
1441975217658473;-0.806396484375;-0.0048828125;-0.58526611328125;-0.0850830078125;1.943634490762907;16.72815175143821;9.942022912215434;0.923828125;0.07861328125;-0.337890625;-29.75;7.9375;5.75;
1441975217675474;-0.80523681640625;-0.00152587890625;-0.58660888671875;-0.08721923828125;1.9207530639750146;16.71918548215115;9.928499743032976;0.91357421875;0.0556640625;-0.31298828125;-29.0;8.125;4.875;
1441975217695475;-0.80401611328125;0.0010986328125;-0.5880126953125;-0.08892822265625;1.897959145519493;16.708620262975206;9.921345345832387;0.8896484375;0.04248046875;-0.29443359375;-23.75;9.375;2.875;
1441975217735478;-0.80255126953125;0.00390625;-0.58978271484375;-0.09002685546875;1.8681180120902443;16.705209543242415;9.908832237256956;0.85205078125;0.06689453125;-0.287109375;-19.0;10.875;3.0625;
1441975217738478;-0.8009033203125;0.00628662109375;-0.5919189453125;-0.0909423828125;1.8347426257119595;16.69774241028184;9.90293966253045;0.87890625;0.0791015625;-0.2978515625;-16.5;13.5;6.75;
1441975217758479;-0.79913330078125;0.00811767578125;-0.59405517578125;-0.09210205078125;1.8030340895258379;16.680760910996057;9.907787703001588;0.9208984375;0.1083984375;-0.31396484375;-14.25;16.875;7.3125;
1441975217778480;-0.79742431640625;0.0098876953125;-0.59613037109375;-0.0933837890625;1.7728012267977704;16.661661843132855;9.91451380654305;0.92431640625;0.1328125;-0.318359375;-12.75;17.9375;5.5;
1441975217795481;-0.7955322265625;0.01165771484375;-0.598388671875;-0.0948486328125;1.7404465695920246;16.637590364721717;9.925474501216092;0.91552734375;0.134765625;-0.29052734375;-13.0;16.625;5.0;
1441975217817482;-0.79339599609375;0.01312255859375;-0.60107421875;-0.095703125;1.7021082989322704;16.614977539299964;9.938785602258934;0.9111328125;0.11328125;-0.26220703125;-13.9375;16.1875;3.3125;
1441975217846484;-0.79083251953125;0.01416015625;-0.6043701171875;-0.0960693359375;1.655891521582992;16.5883875594726;9.959879283037933;0.9189453125;0.09814453125;-0.2509765625;-10.6875;19.25;3.3125;
1441975217854484;-0.7882080078125;0.01434326171875;-0.60772705078125;-0.09637451171875;1.6116068932546688;16.551130862393904;9.995380352768983;0.939453125;0.08984375;-0.25048828125;-7.0;23.1875;2.5;
1441975217876486;-0.78570556640625;0.013671875;-0.61090087890625;-0.09698486328125;1.5739071030677065;16.49935078338274;10.0476263612465;0.9326171875;0.09033203125;-0.24951171875;-4.125;25.125;-0.875;
1441975217898487;-0.78289794921875;0.0125732421875;-0.61419677734375;-0.09857177734375;1.5389155456972556;16.422019827073377;10.123125054365183;0.91845703125;0.09326171875;-0.23095703125;-2.3125;24.1875;-5.5;
1441975217915488;-0.78009033203125;0.011474609375;-0.6175537109375;-0.1005859375;1.5061687799274546;16.334100483402278;10.207493036727584;0.92236328125;0.1416015625;-0.20556640625;-4.125;24.5;-7.875;
1441975217936489;-0.77703857421875;0.01080322265625;-0.6209716796875;-0.10296630859375;1.472592829885024;16.239208661133414;10.295545755452238;0.96337890625;0.17626953125;-0.2236328125;-6.25;26.125;-7.75;
1441975217958490;-0.77386474609375;0.01031494140625;-0.62445068359375;-0.1055908203125;1.4396151307630112;16.136872146395145;10.389288830800384;0.99267578125;0.17041015625;-0.232421875;-9.875;28.0;-7.75;
1441975217974491;-0.77056884765625;0.00994873046875;-0.62799072265625;-0.108642578125;1.4085759884029743;16.023092663593893;10.492225373102311;1.0029296875;0.173828125;-0.2109375;-11.4375;27.6875;-8.125;
1441975217996492;-0.7674560546875;0.0101318359375;-0.6312255859375;-0.1119384765625;1.3813363900254854;15.912046855588413;10.589166555945859;0.970703125;0.18798828125;-0.17138671875;-13.25;26.4375;-7.9375;
1441975218018494;-0.7646484375;0.0101318359375;-0.63409423828125;-0.1148681640625;1.3593520619152086;15.807757571194998;10.681569695949053;0.92529296875;0.14990234375;-0.15185546875;-16.75;24.25;-8.9375;
1441975218035495;-0.76214599609375;0.01031494140625;-0.63665771484375;-0.117431640625;1.3398654248613886;15.714892901333942;10.763297461427642;0.85205078125;0.1171875;-0.12060546875;-14.8125;21.25;-10.3125;
1441975218064496;-0.75994873046875;0.00970458984375;-0.638916015625;-0.1192626953125;1.325742957664739;15.629066951376029;10.84418794855656;0.8369140625;0.11181640625;-0.09326171875;-13.0;17.25;-8.5625;
1441975218080497;-0.7584228515625;0.00787353515625;-0.6405029296875;-0.120849609375;1.3261212169206449;15.548464915630303;10.925804352293031;0.87060546875;0.162109375;-0.09375;-6.625;15.0625;-7.1875;
1441975218094498;-0.75738525390625;0.00555419921875;-0.641357421875;-0.1229248046875;1.3402747506703916;15.47111490843785;11.004077597835277;0.94677734375;0.22802734375;-0.10498046875;-0.0625;11.0;-8.5625;
1441975218115499;-0.75567626953125;0.00555419921875;-0.642822265625;-0.1258544921875;1.3395136042663207;15.390138508674575;11.07306285329894;1.01904296875;0.3349609375;-0.1171875;1.0;6.625;-6.8125;
1441975218138501;-0.75360107421875;0.00750732421875;-0.6446533203125;-0.12860107421875;1.322754739387713;15.32089439979855;11.12313060648726;1.04638671875;0.31787109375;-0.05712890625;-11.4375;6.3125;-1.625;
1441975218155502;-0.7515869140625;0.00946044921875;-0.6466064453125;-0.130615234375;1.3016809332498451;15.259394730416435;11.168505902797138;1.03466796875;0.22119140625;0.01220703125;-18.3125;3.125;1.5;
1441975218177503;-0.74945068359375;0.010986328125;-0.64862060546875;-0.13275146484375;1.2836050687248424;15.187855097223952;11.225140906635376;1.025390625;0.19677734375;0.03271484375;-15.25;3.0;2.75;
1441975218198504;-0.7470703125;0.01239013671875;-0.65069580078125;-0.13555908203125;1.2697910882973;15.099979974057145;11.295811653387526;1.015625;0.20751953125;0.05078125;-13.875;3.375;1.3125;
1441975218214505;-0.744384765625;0.01446533203125;-0.653076171875;-0.138916015625;1.2531273424726697;15.00018423886419;11.373460668850166;1.03466796875;0.22607421875;0.05908203125;-16.4375;4.1875;-0.4375;
1441975218237506;-0.7418212890625;0.01617431640625;-0.6552734375;-0.1419677734375;1.2395864971058483;14.903527589488494;11.450670044680662;1.03271484375;0.208984375;0.05322265625;-21.5625;7.125;-1.0;
1441975218258507;-0.739501953125;0.0164794921875;-0.65740966796875;-0.14404296875;1.2314927459061786;14.810384315111534;11.534091434060652;1.02294921875;0.18701171875;0.05517578125;-19.3125;6.8125;-2.625;
1441975218275508;-0.73760986328125;0.0155029296875;-0.65924072265625;-0.1455078125;1.23233059632075;14.7253495077148;11.617121207055634;1.0107421875;0.19873046875;0.06591796875;-9.375;6.5625;-4.5;
1441975218297510;-0.73590087890625;0.01458740234375;-0.66082763671875;-0.147216796875;1.2372175661644882;14.645175814260156;11.69402595855112;1.013671875;0.2373046875;0.0537109375;-1.9375;5.8125;-5.625;
1441975218318511;-0.73394775390625;0.01416015625;-0.66253662109375;-0.1494140625;1.241645871633187;14.557615358404906;11.774307015526228;1.033203125;0.279296875;0.033203125;-2.75;5.5;-4.1875;
1441975218335512;-0.73199462890625;0.01416015625;-0.6641845703125;-0.15142822265625;1.2429565002929532;14.476275117345166;11.847350211765884;1.03564453125;0.30322265625;0.06640625;-6.6875;4.875;-1.9375;
1441975218357513;-0.7303466796875;0.01446533203125;-0.66552734375;-0.1533203125;1.244085681743421;14.408482647129592;11.906103968738531;1.02734375;0.2978515625;0.03759765625;-7.75;6.8125;-0.375;
1441975218378514;-0.7283935546875;0.015625;-0.6671142578125;-0.1556396484375;1.2407996832983041;14.332028104374613;11.968304237201819;0.99658203125;0.28759765625;0.03759765625;-8.8125;4.5;0.8125;
1441975218395515;-0.72625732421875;0.017578125;-0.66888427734375;-0.15814208984375;1.2324575622336293;14.251239437977972;12.030891584772231;1.0029296875;0.30419921875;0.05517578125;-13.75;5.0;3.9375;
1441975218417517;-0.7236328125;0.0203857421875;-0.67095947265625;-0.16082763671875;1.217605737277761;14.157762008684294;12.101884610698564;1.0107421875;0.2939453125;0.04931640625;-17.5625;6.625;5.9375;
1441975218438518;-0.72119140625;0.0228271484375;-0.6728515625;-0.16351318359375;1.2075440629455634;14.067461339689043;12.171184761928599;1.00439453125;0.2578125;0.05810546875;-22.375;9.0;6.9375;
1441975218454519;-0.71923828125;0.0252685546875;-0.67413330078125;-0.166259765625;1.2016440936304065;13.995676377556553;12.221659214889037;0.9755859375;0.26953125;0.04345703125;-21.0625;9.375;6.1875;
1441975218479520;-0.7174072265625;0.02862548828125;-0.67523193359375;-0.16937255859375;1.192635009917246;13.929461365209228;12.261360704276044;0.93505859375;0.2666015625;0.013671875;-21.5625;7.625;5.875;
1441975218498521;-0.71533203125;0.03326416015625;-0.67633056640625;-0.17266845703125;1.174978220092509;13.8606417086304;12.297626757292782;0.9326171875;0.25390625;0.0107421875;-26.875;5.9375;7.1875;
1441975218515522;-0.71356201171875;0.03778076171875;-0.67724609375;-0.17578125;1.1581459494175412;13.800691970640788;12.326335686993716;0.9384765625;0.2158203125;0.01171875;-32.875;6.3125;9.25;
1441975218537523;-0.71209716796875;0.0421142578125;-0.677734375;-0.17864990234375;1.1426655761126907;13.755050563496543;12.342389985181073;0.94091796875;0.23779296875;-0.0048828125;-31.375;5.5625;10.625;
1441975218562525;-0.7110595703125;0.04681396484375;-0.677734375;-0.18157958984375;1.1266389026196137;13.727532595576914;12.338571244159596;0.92431640625;0.22998046875;-0.001953125;-29.75;2.75;10.4375;
1441975218598527;-0.7100830078125;0.05230712890625;-0.67755126953125;-0.1845703125;1.105310353844491;13.706547100570917;12.324717587063946;0.8916015625;0.19677734375;-0.001953125;-31.125;-0.6875;9.5;
1441975218600527;-0.70928955078125;0.058349609375;-0.677001953125;-0.18792724609375;1.0835876767012125;13.695909794917558;12.296731411722002;0.859375;0.1591796875;0.0068359375;-34.5;-3.3125;10.375;
1441975218627529;-0.7086181640625;0.0645751953125;-0.676025390625;-0.1917724609375;1.0654405778360378;13.694168494753283;12.256955124249338;0.82177734375;0.1279296875;-0.00341796875;-37.9375;-5.1875;9.1875;
1441975218636529;-0.70806884765625;0.07073974609375;-0.67462158203125;-0.1964111328125;1.0552050167936715;13.698413915966789;12.208043708267942;0.7978515625;0.1494140625;-9.765625E-4;-40.625;-7.25;9.375;
1441975218657530;-0.7080078125;0.076416015625;-0.67279052734375;-0.2008056640625;1.048947403508764;13.722780845205422;12.141989243267908;0.80419921875;0.16845703125;-0.0087890625;-43.875;-8.8125;7.4375;
1441975218678531;-0.7080078125;0.08154296875;-0.67108154296875;-0.20458984375;1.0423264467751028;13.749153114223178;12.078707227530483;0.83251953125;0.138671875;-0.0302734375;-40.9375;-10.5;2.75;
1441975218702533;-0.70806884765625;0.08526611328125;-0.66973876953125;-0.2071533203125;1.0366817130698853;13.773724906726846;12.028036251856726;0.8740234375;0.10498046875;-0.0107421875;-35.75;-11.625;0.5625;
1441975218717534;-0.7083740234375;0.0872802734375;-0.66864013671875;-0.208984375;1.0387113932945642;13.79693495841183;11.988855379039803;0.88818359375;0.10595703125;-0.0234375;-25.625;-8.375;-0.3125;
1441975218738535;-0.70904541015625;0.0880126953125;-0.6673583984375;-0.21044921875;1.0494007565059293;13.828394995631724;11.94813418730628;0.9189453125;0.16845703125;-0.03662109375;-15.3125;-5.6875;-0.3125;
1441975218754536;-0.7093505859375;0.0892333984375;-0.66632080078125;-0.21197509765625;1.0553633674011704;13.848449951403248;11.916526931046024;0.96484375;0.24169921875;-0.06005859375;-9.3125;-5.25;0.0625;
1441975218793538;-0.70941162109375;0.09027099609375;-0.66583251953125;-0.212890625;1.0559085140650386;13.856683726642949;11.900158876868607;1.01953125;0.2275390625;-0.05078125;-11.25;-4.125;0.375;
1441975218806539;-0.70928955078125;0.09130859375;-0.66558837890625;-0.21356201171875;1.0534475298612105;13.858372485491614;11.891359373210747;1.03662109375;0.21337890625;-0.02880859375;-7.8125;-2.8125;1.75;
1441975218814539;-0.70892333984375;0.093017578125;-0.66558837890625;-0.21417236328125;1.0439972449500035;13.854161265603027;11.8860365604133;1.009765625;0.2099609375;0.00927734375;-6.5625;-3.75;2.75;
1441975218837541;-0.70831298828125;0.0953369140625;-0.6656494140625;-0.215087890625;1.0313807570104196;13.843905238378753;11.882963934640157;0.9619140625;0.17138671875;0.013671875;-8.875;-2.875;4.625;
1441975218858542;-0.7073974609375;0.0980224609375;-0.6656494140625;-0.216796875;1.0214268990110202;13.822610778262963;11.886003078506665;0.91162109375;0.134765625;-0.00390625;-13.375;-0.8125;4.25;
1441975218875543;-0.705810546875;0.1025390625;-0.66583251953125;-0.21923828125;1.000774054278483;13.785382853697936;11.894374175381557;0.8955078125;0.15966796875;-0.02783203125;-18.375;1.8125;5.0;
1441975218897544;-0.7034912109375;0.10748291015625;-0.6669921875;-0.220703125;0.9650186405388521;13.720049643074193;11.933262994194902;0.921875;0.1533203125;-0.04736328125;-29.5625;4.6875;9.3125;
1441975218921545;-0.700927734375;0.11077880859375;-0.66925048828125;-0.2203369140625;0.925092036105426;13.62704709561121;12.014395983700199;0.94287109375;0.07666015625;-0.04345703125;-27.4375;10.1875;11.5625;
1441975218934546;-0.69866943359375;0.11309814453125;-0.67132568359375;-0.22021484375;0.8966517243482526;13.532300179064555;12.100289028625738;0.9462890625;0.0654296875;-0.03466796875;-13.5625;16.375;13.0625;
1441975218957547;-0.69622802734375;0.117431640625;-0.67266845703125;-0.22161865234375;0.8662985982946841;13.441536027161817;12.167349207749567;0.96142578125;0.15478515625;-0.064453125;-10.4375;18.25;14.0625;
1441975218978549;-0.69317626953125;0.124267578125;-0.6739501953125;-0.22344970703125;0.8192849687335403;13.335018726432027;12.237968079294728;1.025390625;0.17529296875;-0.04931640625;-25.1875;13.9375;16.625;
1441975219003550;-0.6905517578125;0.1302490234375;-0.67529296875;-0.2242431640625;0.7721237035682678;13.233563225779703;12.311480821715907;1.0771484375;0.04833984375;-0.02392578125;-37.0625;11.5625;16.1875;
1441975219025551;-0.68914794921875;0.1343994140625;-0.6759033203125;-0.22406005859375;0.7348805562915377;13.184469538847551;12.344175805125143;1.08740234375;-0.005859375;-0.001953125;-28.625;9.375;13.5;
1441975219038552;-0.68829345703125;0.13970947265625;-0.67535400390625;-0.2252197265625;0.7011689646722229;13.181137064499715;12.320662601969785;1.12744140625;0.0458984375;-0.03857421875;-17.125;6.125;12.3125;
1441975219056553;-0.68670654296875;0.14691162109375;-0.67431640625;-0.22857666015625;0.6696399142091332;13.160179289423;12.297472842879348;1.21435546875;0.06005859375;-0.04833984375;-27.3125;-0.25;10.0;
1441975219078554;-0.684814453125;0.154541015625;-0.6732177734375;-0.2325439453125;0.639275366541357;13.127343750896816;12.281722434463953;1.26220703125;0.04052734375;0.0166015625;-43.75;-4.6875;7.75;
1441975219099556;-0.682373046875;0.16131591796875;-0.6728515625;-0.23583984375;0.6090496267950032;13.047369829376493;12.319279901158051;1.2216796875;-4.8828125E-4;0.0244140625;-48.375;-4.0625;5.3125;
1441975219120557;-0.68060302734375;0.16552734375;-0.67315673828125;-0.23724365234375;0.5844706455802073;12.96794791223841;12.375171131083198;1.1279296875;-0.01708984375;0.0439453125;-42.3125;-0.125;6.25;
1441975219137558;-0.67864990234375;0.16766357421875;-0.67449951171875;-0.237548828125;0.5674833493289405;12.836396934100064;12.496524258900186;1.00634765625;0.0478515625;-0.0029296875;-23.875;5.0;9.4375;
1441975219159559;-0.67657470703125;0.168701171875;-0.6766357421875;-0.23675537109375;0.5516177432965116;12.663452490971217;12.668591124527357;0.9619140625;0.12255859375;-0.02734375;-11.4375;13.75;12.875;
1441975219177560;-0.6737060546875;0.169189453125;-0.67962646484375;-0.23602294921875;0.5438381177700646;12.413451992784864;12.919682241632785;0.9921875;0.1640625;-0.03857421875;-2.125;18.5625;17.0625;
1441975219197561;-0.67041015625;0.170654296875;-0.68292236328125;-0.23486328125;0.5302201050025331;12.11463113487082;13.217317457106796;1.0322265625;0.21484375;0.04052734375;-0.1875;21.125;20.125;
1441975219219562;-0.66644287109375;0.17437744140625;-0.68585205078125;-0.23492431640625;0.5153319100062265;11.769320046626353;13.546720725966054;1.0791015625;0.1943359375;0.08740234375;-2.8125;19.6875;25.125;
1441975219236563;-0.66241455078125;0.18011474609375;-0.68768310546875;-0.236572265625;0.5013283514419693;11.43681082876744;13.847984953134317;1.10302734375;0.16064453125;0.12109375;-17.1875;17.0625;27.4375;
1441975219266565;-0.65802001953125;0.18743896484375;-0.68878173828125;-0.23980712890625;0.49226297894380355;11.098444600180216;14.141495834873188;1.1337890625;0.1298828125;0.09765625;-32.375;14.4375;25.875;
1441975219287566;-0.6541748046875;0.1947021484375;-0.689208984375;-0.24334716796875;0.48587339322208883;10.808923773716185;14.385069954018958;1.14990234375;0.06005859375;0.130859375;-45.9375;11.0;20.8125;
1441975219302567;-0.6512451171875;0.19964599609375;-0.689453125;-0.2464599609375;0.4897619017070915;10.618769509457156;14.54078796006075;1.18017578125;-0.0185546875;0.1005859375;-46.25;8.9375;12.5;
1441975219318568;-0.65045166015625;0.20159912109375;-0.68841552734375;-0.2498779296875;0.4977914138568642;10.659292845837191;14.477254120538497;1.21484375;0.00830078125;0.10009765625;-34.9375;8.0625;6.625;
1441975219340569;-0.648681640625;0.20428466796875;-0.6868896484375;-0.2564697265625;0.5242218498527897;10.737800417630478;14.35882400403392;1.21484375;0.14013671875;0.02294921875;-23.25;4.9375;-0.9375;
1441975219363571;-0.646240234375;0.21002197265625;-0.6845703125;-0.2640380859375;0.5368561833570082;10.75167243735494;14.28764083507754;1.2861328125;0.25048828125;0.08154296875;-40.5625;6.375;-3.3125;
1441975219376571;-0.64404296875;0.21533203125;-0.68194580078125;-0.2718505859375;0.5515908951241189;10.798963761736795;14.183648424823733;1.27978515625;0.1611328125;-4.8828125E-4;-57.6875;8.375;-2.4375;
1441975219399573;-0.64361572265625;0.22125244140625;-0.6781005859375;-0.277587890625;0.5353868051353694;10.892516409922987;14.039739597503825;1.22265625;0.22705078125;0.0234375;-57.875;5.4375;-1.3125;
1441975219421574;-0.6380615234375;0.2247314453125;-0.6787109375;-0.2860107421875;0.5960957934741489;10.762091789952134;14.117908929680915;1.25732421875;0.076171875;-0.04443359375;-50.1875;-5.0;-5.8125;
1441975219444575;-0.644287109375;0.2257080078125;-0.668212890625;-0.2958984375;0.6011174951263989;11.475186587281756;13.357454700368196;1.44775390625;0.40234375;0.42138671875;-53.125;7.9375;10.6875;
1441975219459576;-0.6392822265625;0.24725341796875;-0.6639404296875;-0.29913330078125;0.46554292758837884;11.091613458717116;13.633760060340755;1.2041015625;0.59375;-0.2080078125;-47.625;-30.6875;-25.25;
1441975219481577;-0.64324951171875;0.23773193359375;-0.6640625;-0.29803466796875;0.5170604599748639;11.433668066205875;13.337836997584459;1.435546875;-0.80908203125;-0.046875;-107.625;-26.9375;51.0625;
1441975219496578;-0.65521240234375;0.22930908203125;-0.65594482421875;-0.29644775390625;0.5442429439215726;12.376242125712288;12.438744133114035;1.330078125;0.30517578125;0.048828125;46.3125;2.25;-20.8125;
1441975219519580;-0.66290283203125;0.22552490234375;-0.6461181640625;-0.3038330078125;0.6492502979733851;13.003989089170151;11.794208405797152;1.0556640625;0.33740234375;-0.4111328125;43.9375;-31.8125;-37.875;
1441975219541581;-0.67120361328125;0.214599609375;-0.64105224609375;-0.3043212890625;0.7674793021741918;13.34996169267928;11.4924466639377;1.2802734375;0.29443359375;0.001953125;-13.9375;-48.0625;-58.3125;
1441975219565582;-0.68292236328125;0.19964599609375;-0.6339111328125;-0.30340576171875;0.9307819648042223;13.718808897265605;11.190424302153005;1.2646484375;0.24072265625;-0.08642578125;45.5625;-23.6875;-57.875;
1441975219579583;-0.6925048828125;0.18670654296875;-0.6256103515625;-0.30712890625;1.1179020674845102;13.925677001291234;11.020463162711478;1.244140625;0.47412109375;-0.18505859375;68.375;-34.0;-61.75;
1441975219609585;-0.70184326171875;0.1746826171875;-0.61602783203125;-0.312255859375;1.3166629911301255;14.08381929994587;10.888310533145644;1.26806640625;0.42578125;-0.08251953125;39.3125;-37.3125;-77.1875;
1441975219632586;-0.71148681640625;0.16046142578125;-0.60650634765625;-0.31671142578125;1.529744172035089;14.199681518992499;10.810064862656109;1.2333984375;0.373046875;-0.13623046875;27.875;-39.6875;-86.625;
1441975219639586;-0.72137451171875;0.146728515625;-0.59637451171875;-0.3203125;1.7397855714918458;14.312130895773018;10.73631761563031;1.22021484375;0.3955078125;-0.09521484375;40.1875;-41.625;-94.75;
1441975219669588;-0.7296142578125;0.135986328125;-0.58648681640625;-0.32440185546875;1.926269471642319;14.397059814647765;10.674894318238488;1.2060546875;0.47802734375;-0.10986328125;42.3125;-47.125;-88.1875;
1441975219677589;-0.73590087890625;0.12884521484375;-0.57781982421875;-0.3287353515625;2.0762093281637926;14.456733326212564;10.622898664064156;1.20947265625;0.5556640625;-0.10791015625;27.9375;-47.375;-73.0625;
1441975219723591;-0.7413330078125;0.122802734375;-0.5701904296875;-0.33209228515625;2.20414956077655;14.507255021780365;10.579861517212562;1.21728515625;0.443359375;-0.11865234375;11.5625;-42.875;-64.9375;
1441975219725591;-0.74676513671875;0.1168212890625;-0.56329345703125;-0.33392333984375;2.3188599747868874;14.560721874442452;10.540626075087179;1.20458984375;0.39892578125;-0.20068359375;9.125;-34.25;-58.875;
1441975219736592;-0.75152587890625;0.11102294921875;-0.55755615234375;-0.33477783203125;2.417275178874168;14.605776272068287;10.513624013624295;1.20849609375;0.37060546875;-0.2177734375;15.125;-32.5;-55.8125;
1441975219760593;-0.7562255859375;0.10504150390625;-0.55267333984375;-0.33428955078125;2.5038719424374687;14.652399283217608;10.492171400311724;1.20703125;0.3408203125;-0.2177734375;18.625;-27.25;-51.9375;
1441975219789595;-0.76123046875;0.0989990234375;-0.54803466796875;-0.3323974609375;2.5831023053657303;14.708653502334265;10.467666517320001;1.1689453125;0.30859375;-0.20654296875;24.6875;-25.375;-49.25;
1441975219796595;-0.76641845703125;0.09326171875;-0.54364013671875;-0.32928466796875;2.6533907153691736;14.773492984097647;10.43884794120309;1.1103515625;0.3115234375;-0.2255859375;32.0;-24.9375;-43.1875;
1441975219819597;-0.77105712890625;0.08868408203125;-0.5396728515625;-0.3262939453125;2.712489315507989;14.833582886582391;10.409634764295479;1.083984375;0.2939453125;-0.20263671875;37.0625;-28.375;-38.9375;
1441975219849598;-0.775390625;0.08514404296875;-0.535888671875;-0.32318115234375;2.762654061496531;14.893972536442242;10.376397199078252;1.06982421875;0.30322265625;-0.17822265625;33.25;-29.0;-32.75;
1441975219856599;-0.780029296875;0.081298828125;-0.53192138671875;-0.31951904296875;2.815139567819161;14.95880750810042;10.34233364181915;1.05029296875;0.2587890625;-0.17529296875;29.75;-29.9375;-29.3125;
1441975219878600;-0.78466796875;0.0770263671875;-0.5279541015625;-0.3157958984375;2.870558777698586;15.02067444424153;10.31326374662028;1.0029296875;0.23291015625;-0.18359375;33.4375;-31.375;-30.0;
1441975219901601;-0.78961181640625;0.0723876953125;-0.52362060546875;-0.311767578125;2.9312871600833024;15.085432201690057;10.284008174313632;0.93505859375;0.201171875;-0.1689453125;34.8125;-31.3125;-32.375;
1441975219916602;-0.794677734375;0.06744384765625;-0.5191650390625;-0.3074951171875;2.99469749691066;15.150362256788204;10.25689119510308;0.84228515625;0.16455078125;-0.18603515625;36.875;-31.75;-33.0625;
1441975219940604;-0.80126953125;0.06060791015625;-0.5140380859375;-0.30023193359375;3.067334480954372;15.241114237979236;10.224783556541881;0.7822265625;0.138671875;-0.18603515625;38.4375;-31.6875;-34.375;
1441975219961605;-0.808837890625;0.05242919921875;-0.50830078125;-0.2911376953125;3.1492320060464545;15.346068268978001;10.191984838754307;0.72314453125;0.14453125;-0.18701171875;60.75;-37.25;-33.625;
1441975219978606;-0.8184814453125;0.04241943359375;-0.4993896484375;-0.2811279296875;3.273082731334563;15.470328665006619;10.150297966936508;0.7138671875;0.23486328125;-0.173828125;76.75;-42.8125;-30.0625;
1441975219999607;-0.8253173828125;0.0377197265625;-0.49224853515625;-0.27423095703125;3.3577199219823237;15.565065816499608;10.102910955056494;0.62841796875;0.31591796875;-0.25732421875;88.9375;-55.6875;-35.125;
1441975220029609;-0.83154296875;0.03515625;-0.486572265625;-0.265869140625;3.4127551123203155;15.668072917457703;10.045493141176262;0.6142578125;0.24853515625;-0.1474609375;57.3125;-54.25;-18.5;
1441975220036609;-0.83819580078125;0.03216552734375;-0.48077392578125;-0.255615234375;3.4680701618866694;15.783966783330683;9.985208626975743;0.634765625;0.17041015625;-0.1533203125;55.375;-50.3125;-7.1875;
1441975220059610;-0.84515380859375;0.0283203125;-0.474609375;-0.24444580078125;3.531323956153772;15.903456611712265;9.928806921847066;0.61669921875;0.1533203125;-0.1787109375;65.875;-51.125;-4.375;
1441975220081612;-0.85101318359375;0.02471923828125;-0.4698486328125;-0.23333740234375;3.5786725039661262;16.012635004421522;9.881902504760355;0.63232421875;0.23046875;-0.20751953125;74.4375;-52.25;-2.125;
1441975220096613;-0.85626220703125;0.021240234375;-0.46539306640625;-0.2232666015625;3.625227345777776;16.109296038991783;9.842579588189317;0.66845703125;0.283203125;-0.23876953125;73.75;-43.0625;3.5625;
1441975220119614;-0.8599853515625;0.02069091796875;-0.462890625;-0.21417236328125;3.6398618131879403;16.197765001425093;9.79549638416076;0.6279296875;0.36572265625;-0.2451171875;70.4375;-39.5;8.375;
1441975220141615;-0.862060546875;0.02294921875;-0.46246337890625;-0.2061767578125;3.621936524622017;16.277638638441616;9.740929205487728;0.64794921875;0.3203125;-0.20849609375;56.1875;-32.8125;19.875;
1441975220165616;-0.8634033203125;0.02630615234375;-0.4632568359375;-0.19842529296875;3.5876336594816634;16.355554033253412;9.683003042139367;0.68994140625;0.3076171875;-0.2099609375;41.75;-22.9375;32.625;
1441975220189618;-0.86395263671875;0.0302734375;-0.46490478515625;-0.19122314453125;3.5426262598868794;16.428545549642084;9.625136879707656;0.71923828125;0.298828125;-0.22216796875;36.4375;-16.875;38.875;
1441975220202619;-0.86407470703125;0.03485107421875;-0.4669189453125;-0.18499755859375;3.4941501736347287;16.49557305568909;9.566505000776477;0.72216796875;0.318359375;-0.26123046875;31.5625;-9.0;43.375;
1441975220225620;-0.86309814453125;0.04083251953125;-0.4703369140625;-0.179443359375;3.4256128792391283;16.559056989407097;9.502920750276022;0.70849609375;0.32177734375;-0.2587890625;25.0;-6.0;45.6875;
1441975220239621;-0.8616943359375;0.048095703125;-0.47412109375;-0.17462158203125;3.3509208638711496;16.62273317537166;9.430694985231646;0.72021484375;0.31787109375;-0.26611328125;17.3125;2.5;52.9375;
1441975220261622;-0.8597412109375;0.05615234375;-0.4779052734375;-0.17144775390625;3.2762229271139116;16.677096162300494;9.357265910351979;0.74560546875;0.2958984375;-0.31103515625;8.4375;6.6875;57.0;
1441975220278623;-0.85809326171875;0.06329345703125;-0.4814453125;-0.1673583984375;3.207794259216626;16.739255728113328;9.283762512995494;0.73095703125;0.30126953125;-0.2978515625;-1.8125;7.4375;58.125;
1441975220299624;-0.856201171875;0.07061767578125;-0.48504638671875;-0.16357421875;3.13927253747339;16.80174741692601;9.2078101648352;0.7080078125;0.30615234375;-0.33935546875;4.75;10.125;57.3125;
1441975220322625;-0.853759765625;0.08056640625;-0.48907470703125;-0.15966796875;3.059802960872967;16.880946723158697;9.104756490965485;0.68115234375;0.28564453125;-0.349609375;2.5;12.8125;57.625;
1441975220337626;-0.85040283203125;0.093505859375;-0.4931640625;-0.15802001953125;2.974607498387551;16.957987719004763;8.981665495718754;0.6748046875;0.26318359375;-0.39013671875;-5.875;16.9375;71.0625;
1441975220359628;-0.8465576171875;0.10614013671875;-0.4979248046875;-0.1556396484375;2.883470973522474;17.04505167786501;8.853146232949861;0.712890625;0.19287109375;-0.39404296875;-27.875;17.5;76.0;
1441975220382629;-0.84295654296875;0.1171875;-0.5028076171875;-0.15167236328125;2.7978397349164865;17.145654972975272;8.724551167924695;0.732421875;0.11767578125;-0.36279296875;-25.3125;20.0;74.0;
1441975220397630;-0.83929443359375;0.12664794921875;-0.5078125;-0.1474609375;2.7165102986212224;17.245286983275335;8.604562378257116;0.7587890625;0.13330078125;-0.3876953125;-12.1875;22.0;72.0625;
1441975220419631;-0.83526611328125;0.1358642578125;-0.5130615234375;-0.14373779296875;2.634677505897589;17.344241004104468;8.484223669370916;0.79443359375;0.17626953125;-0.388671875;-4.4375;23.25;69.25;
1441975220443632;-0.8306884765625;0.14599609375;-0.51849365234375;-0.14080810546875;2.5510083609700436;17.447547870684023;8.35234370578087;0.80078125;0.22412109375;-0.3623046875;-4.1875;25.0625;71.0;
1441975220458633;-0.82550048828125;0.1575927734375;-0.52386474609375;-0.1390380859375;2.4676925750314433;17.55609541616101;8.204092231336558;0.82421875;0.21875;-0.34716796875;-10.75;26.5;74.25;
1441975220480635;-0.82037353515625;0.169189453125;-0.52874755859375;-0.13726806640625;2.394436287960126;17.672448023517198;8.047775194100627;0.85205078125;0.162109375;-0.35107421875;-22.625;27.625;75.5;
1441975220501636;-0.8160400390625;0.1790771484375;-0.53302001953125;-0.134033203125;2.3382473704179922;17.798815845728825;7.8945115106629125;0.85693359375;0.07958984375;-0.34423828125;-24.9375;25.5625;71.125;
1441975220517637;-0.811767578125;0.188232421875;-0.53717041015625;-0.13055419921875;2.2887660994856778;17.92829565069198;7.742061597207919;0.8076171875;0.025390625;-0.35107421875;-13.9375;22.3125;63.875;
1441975220541638;-0.807373046875;0.197265625;-0.54144287109375;-0.126953125;2.243088201654973;0.06471409349867303;7.5836927288989875;0.802734375;0.05517578125;-0.34228515625;-9.5;22.375;63.9375;
1441975220561639;-0.8031005859375;0.20709228515625;-0.54486083984375;-0.12384033203125;2.212166313945343;0.2037380654149678;7.416897190336004;0.91650390625;0.11083984375;-0.380859375;-6.5;22.9375;68.75;
1441975220585641;-0.79852294921875;0.21710205078125;-0.5482177734375;-0.12158203125;2.183940272016617;0.3385656105166444;7.249808952990069;1.0703125;0.09033203125;-0.435546875;-12.125;18.6875;70.25;
1441975220600641;-0.79339599609375;0.2264404296875;-0.55230712890625;-0.119384765625;2.1499837413755065;0.47656839973367726;7.082203966130248;1.07177734375;0.076171875;-0.42431640625;-16.625;19.75;69.4375;
1441975220621643;-0.78802490234375;0.2349853515625;-0.5567626953125;-0.1177978515625;2.1126159341334096;0.6086653756665104;6.921395289835009;0.986328125;0.0380859375;-0.38916015625;-15.4375;25.9375;65.5;
1441975220645644;-0.78302001953125;0.2427978515625;-0.5606689453125;-0.11676025390625;2.082380842319007;0.7282754911962993;6.77364334730395;0.92138671875;0.05078125;-0.37353515625;-14.25;31.0625;62.25;
1441975220658645;-0.77789306640625;0.25201416015625;-0.5638427734375;-0.11651611328125;2.063723716305384;0.8488057413614605;6.615344219758621;0.88623046875;0.12744140625;-0.42041015625;-12.5;32.9375;61.75;
1441975220681646;-0.7725830078125;0.26220703125;-0.5662841796875;-0.1171875;2.0542336229808202;0.9642250903893261;6.453662088533526;0.888671875;0.083984375;-0.41650390625;-22.625;30.9375;63.25;
1441975220697647;-0.76708984375;0.2725830078125;-0.56878662109375;-0.1173095703125;2.051728368625105;1.0895373354355873;6.283406856222321;0.857421875;0.05712890625;-0.39013671875;-31.625;28.0;63.4375;
1441975220726649;-0.7615966796875;0.28216552734375;-0.57159423828125;-0.116943359375;2.051124989250087;1.2171877195175995;6.116233462130431;0.8349609375;0.02880859375;-0.37744140625;-29.9375;27.8125;64.875;
1441975220741649;-0.75616455078125;0.29010009765625;-0.57489013671875;-0.11669921875;2.0433911890069445;1.3366994924775857;5.9638710942000195;0.83056640625;-0.0205078125;-0.353515625;-25.875;27.8125;60.6875;
1441975220764651;-0.751220703125;0.29656982421875;-0.577880859375;-0.117431640625;2.0304081312880364;1.4320584360709396;5.837814139127989;0.86376953125;0.0048828125;-0.3291015625;-19.5625;29.1875;56.5;
1441975220786652;-0.74688720703125;0.30291748046875;-0.57958984375;-0.1204833984375;2.0160332595039883;1.4887801477468403;5.7409530839721405;0.9208984375;0.04296875;-0.3818359375;-17.4375;31.9375;49.25;
1441975220809653;-0.7427978515625;0.310302734375;-0.57989501953125;-0.12542724609375;2.006791437081776;1.5190948585246289;5.657580272320153;0.96044921875;0.087890625;-0.4140625;-27.1875;29.75;43.125;
1441975220817654;-0.73858642578125;0.31805419921875;-0.5799560546875;-0.13067626953125;1.9993475202900677;1.5477398168382581;5.572797607548591;0.99951171875;0.05126953125;-0.416015625;-41.8125;25.125;38.125;
1441975220838655;-0.734375;0.32489013671875;-0.580322265625;-0.13568115234375;1.9869310984509663;1.5770554494097402;5.492281317419668;0.96728515625;-0.072265625;-0.3828125;-47.8125;23.4375;30.0;
1441975220868657;-0.73126220703125;0.33050537109375;-0.58001708984375;-0.14019775390625;1.9794871779414862;1.5889034959339245;5.436461304605428;0.87548828125;-0.12646484375;-0.36181640625;-44.6875;25.75;23.0;
1441975220878657;-0.7296142578125;0.335205078125;-0.57830810546875;-0.14471435546875;1.9809501809564827;1.5695131701241036;5.415513180889784;0.78955078125;-0.13232421875;-0.412109375;-37.9375;24.0;15.25;
1441975220906659;-0.7286376953125;0.33905029296875;-0.576171875;-0.1492919921875;1.9821486929195373;1.535000351065734;5.413096802751172;0.7431640625;-0.08935546875;-0.466796875;-35.1875;18.9375;9.625;
1441975220921660;-0.7279052734375;0.341552734375;-0.574462890625;-0.15350341796875;1.976333835763176;1.4986914577223547;5.420028801719602;0.79052734375;-0.09716796875;-0.4873046875;-32.9375;15.9375;4.0625;
1441975220937661;-0.7276611328125;0.34246826171875;-0.57342529296875;-0.156494140625;1.9672925394224168;1.4674028612486325;5.434431542323257;0.859375;-0.10546875;-0.51123046875;-26.125;17.375;-0.375;
1441975220966662;-0.728271484375;0.34210205078125;-0.57232666015625;-0.15838623046875;1.962124077264209;1.4313371784070186;5.463920807293941;0.88525390625;-0.12646484375;-0.5166015625;-14.25;17.5;-4.625;
1441975220981663;-0.72918701171875;0.3408203125;-0.571533203125;-0.159912109375;1.9537480597186765;1.393712461529777;5.5007890807058155;0.8671875;-0.12841796875;-0.51904296875;-5.0;14.0;-8.8125;
1441975220997664;-0.73052978515625;0.3385009765625;-0.57080078125;-0.1612548828125;1.9425515568576528;1.348361709683447;5.550786981154078;0.86279296875;-0.1533203125;-0.47607421875;-1.0;11.3125;-13.375;
1441975221019665;-0.73291015625;0.33502197265625;-0.56951904296875;-0.162353515625;1.9352962759044412;1.2840158140102902;5.62588382859331;0.84033203125;-0.16259765625;-0.4599609375;3.6875;10.125;-19.25;
1441975221041667;-0.7359619140625;0.33062744140625;-0.5677490234375;-0.16363525390625;1.9296357920980045;1.2014318386318927;5.722296924660822;0.8310546875;-0.1435546875;-0.474609375;8.1875;6.5;-24.9375;
1441975221057668;-0.73956298828125;0.3255615234375;-0.56561279296875;-0.16497802734375;1.9272632617410648;1.1056789264377462;5.834489446398563;0.82470703125;-0.134765625;-0.4580078125;10.0;2.0;-31.4375;
1441975221080669;-0.74359130859375;0.3194580078125;-0.56341552734375;-0.16632080078125;1.924979170165868;0.9986777501391182;5.962449460473107;0.794921875;-0.13134765625;-0.44287109375;11.1875;-1.4375;-36.1875;
1441975221101670;-0.7479248046875;0.3121337890625;-0.56134033203125;-0.16778564453125;1.920390294350783;0.879801694548132;6.107125205389626;0.80712890625;-0.087890625;-0.439453125;15.3125;-2.1875;-39.1875;
1441975221117671;-0.75213623046875;0.30438232421875;-0.5594482421875;-0.169677734375;1.9137732085893953;0.7542380831765847;6.258569905799688;0.82421875;-0.0322265625;-0.45068359375;20.1875;-1.6875;-42.3125;
1441975221141672;-0.7559814453125;0.296142578125;-0.55816650390625;-0.17144775390625;1.9033371603222;0.6319767676957309;6.409403546385456;0.8388671875;-0.02197265625;-0.4169921875;19.5;-1.875;-44.875;
1441975221178674;-0.759765625;0.287109375;-0.55731201171875;-0.17266845703125;1.8929139590832813;0.5117306396742947;6.563914072493055;0.87841796875;-0.06201171875;-0.39404296875;21.125;-0.25;-48.875;
1441975221183675;-0.7637939453125;0.2767333984375;-0.5567626953125;-0.1737060546875;1.8821209404869212;0.38112145311865453;6.735437055220873;0.90283203125;-0.09228515625;-0.3955078125;25.1875;1.0625;-52.8125;
1441975221207676;-0.76800537109375;0.265625;-0.55584716796875;-0.17523193359375;1.8769398770898036;0.23294121660997721;6.925228254957713;0.94091796875;-0.0546875;-0.39990234375;31.875;2.3125;-56.375;
1441975221222677;-0.7718505859375;0.2557373046875;-0.55450439453125;-0.17730712890625;1.8806452347948017;0.08803569700448063;7.103819123869895;1.0537109375;0.06640625;-0.4228515625;33.75;0.3125;-54.625;
1441975221237678;-0.77490234375;0.246826171875;-0.5533447265625;-0.18017578125;1.883137422226398;17.94606154106831;7.271793896888268;1.20263671875;0.06103515625;-0.43798828125;25.875;-3.25;-52.25;
1441975221260679;-0.77764892578125;0.238037109375;-0.552490234375;-0.18280029296875;1.8869840527221773;17.81135833016152;7.432977474883867;1.220703125;0.02685546875;-0.35400390625;17.5625;-5.75;-53.1875;
1441975221281680;-0.78076171875;0.229736328125;-0.55072021484375;-0.1854248046875;1.9070065187286287;17.679266383588367;7.58896589304238;1.13427734375;0.001953125;-0.29736328125;17.125;-5.8125;-53.4375;
1441975221297681;-0.78448486328125;0.22149658203125;-0.54791259765625;-0.1881103515625;1.9451627844561494;17.547214277029646;7.743933074631646;1.0791015625;-0.00830078125;-0.2998046875;14.4375;-10.25;-55.0625;
1441975221320683;-0.78851318359375;0.21307373046875;-0.54449462890625;-0.1907958984375;1.9955075996032972;17.418041780818662;7.896402312898837;1.00732421875;-0.02001953125;-0.29638671875;12.75;-15.75;-57.9375;
1441975221342684;-0.7928466796875;0.20458984375;-0.5404052734375;-0.19366455078125;2.058454611412067;17.292338520526812;8.044525452713694;0.91796875;-0.0380859375;-0.2568359375;12.1875;-20.0625;-62.125;
1441975221365685;-0.79754638671875;0.1954345703125;-0.53619384765625;-0.1956787109375;2.129869557026819;17.18014707541571;8.185499318558842;0.85791015625;-0.0244140625;-0.24853515625;11.0625;-23.3125;-64.1875;
1441975221380686;-0.8026123046875;0.185302734375;-0.531982421875;-0.19635009765625;2.208250628762486;17.085176939352518;8.31893385265821;0.8994140625;-0.01416015625;-0.24267578125;17.4375;-27.375;-65.3125;
1441975221401687;-0.80767822265625;0.17486572265625;-0.52777099609375;-0.19647216796875;2.289928205283603;17.00233860908959;8.443737745353594;0.984375;0.02490234375;-0.259765625;27.1875;-30.25;-65.375;
1441975221417688;-0.81280517578125;0.1646728515625;-0.5233154296875;-0.19622802734375;2.37642463974585;16.93318301685381;8.555266693117817;1.05859375;0.07470703125;-0.259765625;32.0625;-33.875;-63.375;
1441975221447690;-0.81744384765625;0.1556396484375;-0.51873779296875;-0.19635009765625;2.4615335224329353;16.874044716209216;8.650143363811909;1.1025390625;0.10400390625;-0.26806640625;32.875;-36.625;-61.5625;
1441975221461691;-0.8214111328125;0.147705078125;-0.5145263671875;-0.19696044921875;2.5391112614077342;16.820757634693603;8.732585055168448;1.1220703125;0.0927734375;-0.2568359375;26.9375;-39.125;-58.5625;
1441975221477692;-0.8250732421875;0.14044189453125;-0.5103759765625;-0.19781494140625;2.614489531860158;16.772710902873914;8.805933418724953;1.11572265625;0.08544921875;-0.23974609375;20.75;-37.625;-55.4375;
1441975221500693;-0.82861328125;0.1334228515625;-0.50628662109375;-0.19842529296875;2.6888153351536515;16.731894672159406;8.872065248074758;1.06103515625;0.0771484375;-0.2509765625;17.125;-35.4375;-53.375;
1441975221521694;-0.83184814453125;0.12677001953125;-0.5025634765625;-0.19873046875;2.7575040108633724;16.69821417310868;8.93095096846607;1.0009765625;0.0751953125;-0.27001953125;16.625;-33.0625;-51.5625;
1441975221537695;-0.83489990234375;0.12017822265625;-0.4991455078125;-0.19866943359375;2.8221997920347666;16.669997979950363;8.985803556905124;0.98779296875;0.0810546875;-0.27294921875;17.125;-31.25;-48.375;
1441975221567697;-0.8375244140625;0.1138916015625;-0.49615478515625;-0.19866943359375;2.8802386151828787;16.643159040032543;9.03786144697201;0.96875;0.0810546875;-0.2685546875;18.6875;-29.8125;-46.6875;
1441975221581697;-0.8397216796875;0.10821533203125;-0.4937744140625;-0.19866943359375;2.9290005627865088;16.619344836196404;9.084641483016323;0.9248046875;0.10400390625;-0.24609375;17.9375;-27.375;-43.1875;
1441975221597698;-0.841552734375;0.1031494140625;-0.49163818359375;-0.19879150390625;2.9724158939226335;16.597584428057225;9.12630927190836;0.900390625;0.11572265625;-0.232421875;16.75;-24.375;-38.8125;
1441975221620700;-0.84320068359375;0.09881591796875;-0.48968505859375;-0.19891357421875;3.0114780740972593;16.579949937604617;9.160892526320184;0.87841796875;0.1435546875;-0.2421875;15.125;-22.0625;-33.875;
1441975221641701;-0.84442138671875;0.0955810546875;-0.4881591796875;-0.19903564453125;3.041424349804603;16.567023017870117;9.18629407290243;0.87255859375;0.17529296875;-0.267578125;13.1875;-19.75;-28.3125;
1441975221657702;-0.845458984375;0.09307861328125;-0.486572265625;-0.19964599609375;3.069977087166254;16.5533804091472;9.207199999241906;0.8916015625;0.1845703125;-0.28173828125;9.875;-17.9375;-22.625;
1441975221681703;-0.84600830078125;0.09197998046875;-0.4854736328125;-0.2005615234375;3.0880574313153284;16.542386962111685;9.218449549490039;0.875;0.216796875;-0.27294921875;6.4375;-18.25;-18.25;
1441975221709705;-0.8460693359375;0.09259033203125;-0.48480224609375;-0.20166015625;3.0951272926126663;16.53665751641206;9.216611864168133;0.86279296875;0.244140625;-0.27197265625;1.625;-15.9375;-9.8125;
1441975221725706;-0.845703125;0.0947265625;-0.484619140625;-0.20257568359375;3.0907439900645404;16.538627361239005;9.20161880404414;0.890625;0.24462890625;-0.30615234375;-5.125;-13.3125;-1.8125;
1441975221740707;-0.84503173828125;0.09765625;-0.48504638671875;-0.20294189453125;3.0757952446320713;16.54811759018322;9.178389734005233;0.88818359375;0.23291015625;-0.314453125;-9.1875;-10.6875;5.9375;
1441975221762708;-0.8441162109375;0.10113525390625;-0.48590087890625;-0.2030029296875;3.0535501860214493;16.562252312420693;9.149697811288338;0.90478515625;0.2197265625;-0.34130859375;-9.375;-7.375;11.875;
1441975221777709;-0.84271240234375;0.10565185546875;-0.4874267578125;-0.20281982421875;3.0192925556864383;16.582372881415854;9.11196499460614;0.9169921875;0.2451171875;-0.37744140625;-9.375;-3.1875;17.1875;
1441975221800710;-0.8406982421875;0.111083984375;-0.4898681640625;-0.202392578125;2.970513092917258;16.60773334208526;9.066574061623841;0.92431640625;0.23486328125;-0.39453125;-11.5625;1.0625;23.5;
1441975221821711;-0.83819580078125;0.11737060546875;-0.49310302734375;-0.201416015625;2.9090151372520046;16.64230902050292;9.011068696095554;0.9248046875;0.212890625;-0.38671875;-13.8125;5.875;29.5;
1441975221843712;-0.83538818359375;0.1240234375;-0.49700927734375;-0.199462890625;2.83798626113805;16.689264018893585;8.946083545800086;0.9296875;0.19677734375;-0.37841796875;-13.8125;9.5;36.0;
1441975221860713;-0.832275390625;0.13134765625;-0.50152587890625;-0.19647216796875;2.757930813389663;16.75262937369347;8.866532814951483;0.96875;0.20947265625;-0.39501953125;-9.5625;13.1875;42.5625;
1441975221882715;-0.8284912109375;0.1395263671875;-0.50689697265625;-0.19305419921875;2.6655461470051502;16.828246627631763;8.773244443674898;1.05419921875;0.24462890625;-0.44873046875;-5.875;16.6875;51.6875;
1441975221920717;-0.82391357421875;0.149169921875;-0.5125732421875;-0.1904296875;2.566090362899156;16.90969608516965;8.664598364187723;1.16162109375;0.25830078125;-0.46826171875;-5.5;20.4375;59.25;
1441975221922717;-0.81878662109375;0.1602783203125;-0.5179443359375;-0.18890380859375;2.46765373602362;16.99624413339755;8.539783629628259;1.13427734375;0.216796875;-0.43017578125;-15.0625;22.75;64.375;
1441975221942718;-0.8133544921875;0.1727294921875;-0.52264404296875;-0.18853759765625;2.3759501600023127;17.087800376501942;8.39905392089233;1.0390625;0.13330078125;-0.38427734375;-26.5625;22.875;65.3125;
1441975221964719;-0.80792236328125;0.18560791015625;-0.526611328125;-0.18865966796875;2.2947459962832526;17.185620165056115;8.247774137745933;0.91748046875;0.037109375;-0.3447265625;-38.6875;21.6875;63.6875;
1441975221987721;-0.80303955078125;0.19732666015625;-0.53009033203125;-0.18780517578125;2.2269164703137596;17.294212320590262;8.094424334942595;0.82421875;-0.03466796875;-0.32568359375;-44.4375;20.1875;60.6875;
1441975222001722;-0.7989501953125;0.20721435546875;-0.53338623046875;-0.1851806640625;2.172146504625735;17.41661826642248;7.942324779569543;0.82861328125;-0.05419921875;-0.33935546875;-36.875;17.9375;57.0625;
1441975222023723;-0.79559326171875;0.2152099609375;-0.5364990234375;-0.181396484375;2.1294170745439387;17.54277482861039;7.799230121550314;0.900390625;-0.04833984375;-0.365234375;-21.75;14.9375;53.6875;
1441975222039724;-0.7926025390625;0.2222900390625;-0.53924560546875;-0.177978515625;2.095638430325629;17.65965645583944;7.6676011062404745;0.97021484375;-0.0087890625;-0.3798828125;-8.8125;11.8125;50.9375;
1441975222062725;-0.78955078125;0.22967529296875;-0.54132080078125;-0.17584228515625;2.069259880441746;17.764504655201574;7.540893504259938;1.00341796875;0.048828125;-0.3798828125;-5.9375;10.0;49.375;
1441975222083726;-0.78643798828125;0.23773193359375;-0.5426025390625;-0.17510986328125;2.05072354500418;17.85735188789787;7.417004299618129;1.0283203125;0.064453125;-0.37890625;-12.6875;8.1875;48.375;
1441975222099727;-0.783203125;0.24652099609375;-0.5433349609375;-0.175048828125;2.0387639221799985;17.948104072609212;7.288885876351685;1.02880859375;0.07373046875;-0.38330078125;-21.875;6.375;47.6875;
1441975222122728;-0.780029296875;0.2554931640625;-0.5439453125;-0.17474365234375;2.032256465956566;0.04402930671059878;7.155769544843317;0.9921875;0.02197265625;-0.3828125;-28.875;5.125;46.25;
1441975222145730;-0.77716064453125;0.26385498046875;-0.5443115234375;-0.17388916015625;2.033211450411042;0.13986552967735516;7.0273639155192535;0.93359375;-0.03466796875;-0.3720703125;-29.875;4.875;44.25;
1441975222166731;-0.77484130859375;0.27130126953125;-0.54437255859375;-0.17254638671875;2.0423698056408606;0.22997435102250638;6.910481570701831;0.8779296875;-0.06884765625;-0.3837890625;-25.5625;4.75;41.1875;
1441975222184732;-0.77276611328125;0.27777099609375;-0.54449462890625;-0.1710205078125;2.0528246972338677;0.31244982204163413;6.806149515987308;0.85302734375;-0.064453125;-0.39794921875;-20.3125;3.5;38.1875;
1441975222205733;-0.77099609375;0.2833251953125;-0.54473876953125;-0.169189453125;2.064459914005634;0.3894656478357587;6.712594817492657;0.837890625;-0.0693359375;-0.3798828125;-16.125;2.5625;34.4375;
1441975222220734;-0.76959228515625;0.2877197265625;-0.54498291015625;-0.16717529296875;2.0768584073452065;0.45670670920716905;6.634528867422301;0.8427734375;-0.0849609375;-0.39404296875;-11.3125;3.3125;30.5625;
1441975222242735;-0.7684326171875;0.29132080078125;-0.54541015625;-0.1651611328125;2.0876334798034075;0.5168374105173035;6.567233836251067;0.845703125;-0.078125;-0.40283203125;-6.375;3.625;26.4375;
1441975222265737;-0.767333984375;0.29443359375;-0.54583740234375;-0.16314697265625;2.0979871175757583;0.5722584526807614;6.506629080874995;0.8544921875;-0.06591796875;-0.4150390625;-2.375;4.8125;24.125;
1441975222279737;-0.76641845703125;0.29718017578125;-0.54608154296875;-0.16180419921875;2.1071640575609085;0.6145948322724377;6.457919823983572;0.87353515625;-0.06640625;-0.4345703125;-0.8125;5.9375;22.1875;
1441975222309739;-0.7655029296875;0.2996826171875;-0.54620361328125;-0.160888671875;2.1148902599325994;0.6491112381585354;6.41615031396743;0.8857421875;-0.05322265625;-0.4501953125;-1.9375;6.8125;19.3125;
1441975222324740;-0.76470947265625;0.30206298828125;-0.5462646484375;-0.16021728515625;2.1224631348277843;0.6786782561494686;6.378936994759671;0.9169921875;-0.0751953125;-0.45166015625;-3.75;6.5;15.75;
1441975222339741;-0.76422119140625;0.30377197265625;-0.54620361328125;-0.15948486328125;2.130565164123115;0.7013904807474618;6.351675163502787;0.91162109375;-0.126953125;-0.43212890625;-5.8125;5.3125;11.125;
1441975222370743;-0.76409912109375;0.304443359375;-0.54620361328125;-0.15863037109375;2.1367515040640916;0.7163023386539497;6.337307308165106;0.87548828125;-0.15234375;-0.42041015625;-3.875;4.1875;5.9375;
1441975222383743;-0.7645263671875;0.30419921875;-0.54595947265625;-0.1578369140625;2.143886331685417;0.7193504683323381;6.3385446144240865;0.84033203125;-0.1640625;-0.3994140625;-0.125;3.5;0.5625;
1441975222399744;-0.76580810546875;0.30316162109375;-0.54486083984375;-0.15753173828125;2.156856010738144;0.701160268990598;6.3622086010080166;0.81689453125;-0.16064453125;-0.39111328125;2.75;1.5625;-4.875;
1441975222430746;-0.76763916015625;0.301513671875;-0.5430908203125;-0.15777587890625;2.1733070988130962;0.6656631499055649;6.403252742309529;0.80517578125;-0.14111328125;-0.3994140625;2.625;-2.375;-11.0625;
1441975222437746;-0.7698974609375;0.29901123046875;-0.5411376953125;-0.158203125;2.1899020840761545;0.6193805726337271;6.4580333392932365;0.802734375;-0.1435546875;-0.39794921875;1.75;-6.0625;-17.375;
1441975222459748;-0.7725830078125;0.2958984375;-0.53875732421875;-0.15924072265625;2.208083358287425;0.5581503335168377;6.527766436957097;0.8115234375;-0.14599609375;-0.384765625;2.6875;-8.375;-23.0;
1441975222482749;-0.775634765625;0.2921142578125;-0.5360107421875;-0.16070556640625;2.228370534094915;0.48469649803307635;6.61068077603672;0.82568359375;-0.1318359375;-0.39013671875;2.0;-10.1875;-28.125;
1441975222511751;-0.77886962890625;0.28790283203125;-0.5330810546875;-0.1624755859375;2.250238965961831;0.404433925449007;6.700887133560765;0.84423828125;-0.12060546875;-0.38720703125;2.0625;-12.75;-33.1875;
1441975222519751;-0.78228759765625;0.28350830078125;-0.52978515625;-0.1646728515625;2.276027926345026;0.31719265072118097;6.796880196145773;0.86962890625;-0.115234375;-0.38818359375;1.5;-14.125;-36.25;
1441975222544753;-0.78558349609375;0.27874755859375;-0.52655029296875;-0.16705322265625;2.3011492234077298;0.22801184861259202;6.895455872745092;0.8984375;-0.08837890625;-0.39501953125;0.25;-16.125;-38.25;
1441975222565754;-0.78900146484375;0.273681640625;-0.5233154296875;-0.16943359375;2.3286058240320244;0.13830017590568672;6.995929616154273;0.92529296875;-0.06982421875;-0.38134765625;0.4375;-16.6875;-39.375;
1441975222579755;-0.7921142578125;0.26873779296875;-0.52044677734375;-0.17205810546875;2.3528596212391024;0.051291954878271;7.092354240636306;0.93212890625;-0.0517578125;-0.38427734375;1.625;-17.375;-40.625;
1441975222602756;-0.7950439453125;0.2637939453125;-0.51763916015625;-0.17449951171875;2.3782895808805633;17.968962289826422;7.184666132825237;0.93896484375;-0.0361328125;-0.36376953125;0.6875;-16.375;-39.875;
1441975222631758;-0.79766845703125;0.25872802734375;-0.5155029296875;-0.17657470703125;2.3985934067286045;17.894662439524346;7.271355062208485;0.92431640625;-0.02783203125;-0.36767578125;1.25;-15.375;-38.8125;
1441975222647758;-0.79998779296875;0.2535400390625;-0.5137939453125;-0.17828369140625;2.415631532991878;17.8268842166624;7.353610619690139;0.9111328125;-0.00830078125;-0.361328125;4.4375;-12.25;-36.9375;
1441975222662759;-0.80206298828125;0.24853515625;-0.5125732421875;-0.1795654296875;2.4294430117094077;17.768162270055427;7.42809595103132;0.90576171875;0.0263671875;-0.3662109375;7.4375;-9.3125;-34.0;
1441975222692761;-0.80352783203125;0.24407958984375;-0.5120849609375;-0.18060302734375;2.435068015827031;17.719849939345213;7.49113104519405;0.90771484375;0.0498046875;-0.36865234375;9.5625;-7.3125;-29.9375;
1441975222707762;-0.804443359375;0.23968505859375;-0.512451171875;-0.1812744140625;2.4309821963527596;17.679259932047565;7.548036368371549;0.921875;0.044921875;-0.3525390625;9.375;-4.625;-25.5;
1441975222722763;-0.80487060546875;0.2352294921875;-0.51361083984375;-0.18194580078125;2.4170230616512245;17.640474734107052;7.603757464976854;0.9345703125;0.05126953125;-0.3486328125;11.6875;-0.0625;-23.0625;
1441975222760765;-0.80487060546875;0.23114013671875;-0.5152587890625;-0.1826171875;2.3967265785961827;17.605456986665796;7.654330201915206;0.9501953125;0.0888671875;-0.359375;13.1875;5.3125;-19.625;
1441975222762765;-0.804443359375;0.2274169921875;-0.51751708984375;-0.18292236328125;2.369399969917429;17.578519220238757;7.697035305428615;0.9853515625;0.1103515625;-0.36962890625;12.75;8.875;-16.0;
1441975222782766;-0.8038330078125;0.22412109375;-0.51983642578125;-0.18292236328125;2.3414479997282545;17.558046290120238;7.732627675725066;1.04150390625;0.1318359375;-0.376953125;14.3125;10.875;-10.9375;
1441975222803767;-0.80279541015625;0.2215576171875;-0.5225830078125;-0.18280029296875;2.3076102651553354;17.54542486892937;7.757939863794716;1.07861328125;0.1484375;-0.39404296875;14.4375;11.4375;-6.75;
1441975222819768;-0.80157470703125;0.21966552734375;-0.5252685546875;-0.1827392578125;2.27357326736164;17.53702802318074;7.775822803253161;1.0615234375;0.1376953125;-0.3681640625;12.5625;13.0;-3.0625;
1441975222842770;-0.8001708984375;0.2183837890625;-0.52789306640625;-0.18280029296875;2.239150601809511;17.531853368919446;7.787285009094711;0.99658203125;0.12548828125;-0.36376953125;10.25;14.75;-0.375;
1441975222863771;-0.79876708984375;0.21759033203125;-0.5302734375;-0.18304443359375;2.20704048231772;17.52782298793497;7.7946515071558515;0.98046875;0.13037109375;-0.3623046875;7.125;15.4375;2.5625;
1441975222879772;-0.79742431640625;0.2171630859375;-0.5323486328125;-0.1832275390625;2.178482217479232;17.526927632983313;7.797383394392672;0.94921875;0.130859375;-0.365234375;4.4375;15.375;4.375;
1441975222908773;-0.796142578125;0.21728515625;-0.5341796875;-0.18359375;2.1526487533161918;17.527950933338456;7.795085142454505;0.91748046875;0.1328125;-0.3642578125;3.5;14.3125;6.0625;
1441975222923774;-0.79486083984375;0.21795654296875;-0.53558349609375;-0.18402099609375;2.1310418944437286;17.53226127681372;7.786583533540787;0.89013671875;0.14111328125;-0.36083984375;1.1875;13.3125;8.375;
1441975222939775;-0.7935791015625;0.219482421875;-0.5367431640625;-0.1845703125;2.1120742383277467;17.542299459700857;7.768213425714605;0.87255859375;0.1435546875;-0.353515625;-1.6875;11.375;10.6875;
1441975222968777;-0.79217529296875;0.22161865234375;-0.5377197265625;-0.18499755859375;2.0946797714838103;17.559434761695858;7.740460827111353;0.85791015625;0.13037109375;-0.34033203125;-5.0625;9.0625;13.1875;
1441975222983778;-0.79071044921875;0.22393798828125;-0.53875732421875;-0.18560791015625;2.07628564653092;17.576430088455485;7.711411835223575;0.8515625;0.1220703125;-0.33154296875;-7.0625;7.625;15.6875;
1441975223000779;-0.789306640625;0.22650146484375;-0.53961181640625;-0.18597412109375;2.0607277410661604;17.5987805926157;7.676866545533114;0.86669921875;0.12890625;-0.32275390625;-8.3125;7.5625;17.1875;
1441975223037781;-0.787841796875;0.22930908203125;-0.5404052734375;-0.1865234375;2.04542951719696;17.621331288902432;7.640298463145964;0.888671875;0.1181640625;-0.33837890625;-8.1875;6.375;17.8125;
1441975223045781;-0.78619384765625;0.23223876953125;-0.54150390625;-0.18658447265625;2.027384375504851;17.65304084934595;7.596167281273269;0.93212890625;0.13037109375;-0.3427734375;-9.4375;5.6875;19.5;
1441975223059782;-0.78448486328125;0.23504638671875;-0.542724609375;-0.186767578125;2.0077866914734264;17.683096695632486;7.553772581398814;1.0068359375;0.111328125;-0.3564453125;-8.125;6.125;20.625;
1441975223082783;-0.78277587890625;0.23779296875;-0.5438232421875;-0.1871337890625;1.9891594800244161;17.710441793957397;7.513465145729174;1.05517578125;0.11962890625;-0.3583984375;-7.8125;6.1875;20.875;
1441975223105785;-0.78094482421875;0.2413330078125;-0.54443359375;-0.1884765625;1.9733813667460807;17.73151062966136;7.4717431619818155;1.064453125;0.12548828125;-0.36376953125;-8.3125;6.5;20.375;
1441975223119785;-0.77880859375;0.2454833984375;-0.544921875;-0.1905517578125;1.9561494844360117;17.749268235011858;7.427549947871193;1.044921875;0.09765625;-0.35595703125;-16.9375;5.5;18.9375;
1441975223142787;-0.77691650390625;0.249267578125;-0.54522705078125;-0.19256591796875;1.9419438782446532;17.763659794989987;7.388482197395441;1.00244140625;0.0341796875;-0.326171875;-23.5;5.0;15.875;
1441975223165788;-0.775634765625;0.25201416015625;-0.54522705078125;-0.19427490234375;1.9337207544455166;17.769972130088792;7.363134135274561;0.94677734375;-0.02197265625;-0.31103515625;-23.75;4.5;10.25;
1441975223179789;-0.77508544921875;0.25347900390625;-0.54486083984375;-0.1953125;1.9332219364392298;17.770035165426957;7.352123514661559;0.90625;-0.04443359375;-0.3017578125;-19.0625;2.5;4.0625;
1441975223202790;-0.775390625;0.2537841796875;-0.5440673828125;-0.196044921875;1.9410756844188002;17.759482465067716;7.3579925691702295;0.88818359375;-0.048828125;-0.30224609375;-12.3125;-0.8125;-1.3125;
1441975223225792;-0.77618408203125;0.25341796875;-0.542724609375;-0.197021484375;1.9555280377629845;17.736219879024723;7.378151497490728;0.896484375;-0.0126953125;-0.31005859375;-5.6875;-3.8125;-4.875;
1441975223246793;-0.77728271484375;0.25299072265625;-0.5408935546875;-0.198486328125;1.9753155692653337;17.703870732214344;7.40548953463305;0.92236328125;0.04736328125;-0.32421875;-4.0;-6.9375;-6.375;
1441975223262794;-0.77813720703125;0.252685546875;-0.5390625;-0.20025634765625;1.993218619150392;17.669638313657085;7.4327199187166695;0.93701171875;0.07275390625;-0.33740234375;-5.75;-8.8125;-7.375;
1441975223285795;-0.77899169921875;0.252685546875;-0.5372314453125;-0.20196533203125;2.011826236063646;17.63962893424252;7.454773243610424;0.95849609375;0.09765625;-0.337890625;-7.1875;-8.3125;-6.4375;
1441975223300796;-0.7796630859375;0.25311279296875;-0.5352783203125;-0.2041015625;2.030122805321523;17.60836388535829;7.474343919827194;0.955078125;0.0888671875;-0.35986328125;-8.0625;-7.6875;-5.625;
1441975223328797;-0.77996826171875;0.254150390625;-0.5335693359375;-0.2060546875;2.0449494522855147;17.58683767117978;7.482343498711667;0.9443359375;0.1005859375;-0.36328125;-12.0625;-7.0625;-4.3125;
1441975223345798;-0.78009033203125;0.25537109375;-0.53216552734375;-0.20770263671875;2.05661695259131;17.572316345987186;7.483972907683443;0.9326171875;0.0712890625;-0.36767578125;-13.375;-5.4375;-2.5;
1441975223359799;-0.780029296875;0.2564697265625;-0.53125;-0.20880126953125;2.063578701222294;17.565556322200006;7.4808622338226005;0.91650390625;0.06103515625;-0.365234375;-13.0625;-3.9375;-0.625;
1441975223382801;-0.77984619140625;0.25732421875;-0.5308837890625;-0.20947265625;2.0652966845154594;17.56385999725067;7.47588038503642;0.9072265625;0.05126953125;-0.36279296875;-9.5625;-2.1875;0.625;
1441975223405802;-0.77960205078125;0.25799560546875;-0.53070068359375;-0.20989990234375;2.0652357313419714;17.564273416750034;7.470614694164772;0.91162109375;0.0556640625;-0.345703125;-6.4375;-0.4375;1.5;
1441975223419803;-0.77935791015625;0.25860595703125;-0.53070068359375;-0.210205078125;2.0636746933889056;17.566241481010508;7.464758155377565;0.9091796875;0.0625;-0.34765625;-4.25;0.0;2.5625;
1441975223442804;-0.77886962890625;0.25927734375;-0.531005859375;-0.21044921875;2.0579242334038033;17.57081473481074;7.456381699765703;0.92138671875;0.06201171875;-0.3369140625;-3.375;0.0625;3.0;
1441975223465805;-0.77838134765625;0.25994873046875;-0.5311279296875;-0.2109375;2.053365182408079;17.571695619006924;7.450497442613719;0.94482421875;0.06103515625;-0.3330078125;-2.875;1.125;3.6875;
1441975223479806;-0.77789306640625;0.2608642578125;-0.53118896484375;-0.2115478515625;2.049378562137642;17.573067280506116;7.442619239872961;0.9541015625;0.07373046875;-0.3388671875;-4.125;1.0;4.0625;
1441975223502807;-0.77728271484375;0.26190185546875;-0.53118896484375;-0.21240234375;2.044793700226931;17.572392035074277;7.43511486034203;0.95556640625;0.06005859375;-0.3388671875;-6.0625;0.8125;3.3125;
1441975223525809;-0.7767333984375;0.2628173828125;-0.53125;-0.21319580078125;2.0400362035351733;17.57148832964803;7.428719930258079;0.9501953125;0.0478515625;-0.32275390625;-7.6875;-0.25;2.5625;
1441975223546810;-0.7763671875;0.2635498046875;-0.5311279296875;-0.2139892578125;2.0379397889688047;17.56806248727934;7.425556372683577;0.95751953125;0.0390625;-0.32568359375;-6.9375;0.125;1.75;
1441975223562811;-0.77606201171875;0.26397705078125;-0.53106689453125;-0.21453857421875;2.0358508785094056;17.56509889297372;7.424227072685539;0.95556640625;0.04248046875;-0.32763671875;-6.5625;-0.5625;0.375;
1441975223585812;-0.77587890625;0.26434326171875;-0.53094482421875;-0.2152099609375;2.034792637581556;17.559585700742993;7.425298015016168;0.94873046875;0.04833984375;-0.3291015625;-4.375;-0.25;0.125;
1441975223606813;-0.77557373046875;0.2647705078125;-0.53082275390625;-0.216064453125;2.0326342052151856;17.552411062177335;7.426914338368618;0.94677734375;0.056640625;-0.3388671875;-4.625;-0.1875;0.0625;
1441975223622814;-0.7752685546875;0.26531982421875;-0.5306396484375;-0.216796875;2.0314158987640165;17.547799374063857;7.425881044554065;0.94140625;0.06005859375;-0.3359375;-5.25;0.4375;0.1875;
1441975223645816;-0.77490234375;0.26593017578125;-0.53057861328125;-0.217529296875;2.0287462227326585;17.544208384395436;7.423678599128542;0.93701171875;0.064453125;-0.34033203125;-5.4375;0.5625;0.8125;
1441975223666817;-0.7745361328125;0.26654052734375;-0.5306396484375;-0.21820068359375;2.0250813541643877;17.541783896448806;7.420720583561143;0.93603515625;0.06640625;-0.34033203125;-5.25;1.0;1.75;
1441975223681818;-0.7740478515625;0.26739501953125;-0.5306396484375;-0.21868896484375;2.021817177769467;17.544085323003515;7.412539507568555;0.93017578125;0.06591796875;-0.34130859375;-5.0625;1.6875;2.3125;
1441975223705819;-0.7735595703125;0.26824951171875;-0.53070068359375;-0.21923828125;2.017872143027097;17.545778311815816;7.404819628224172;0.927734375;0.05810546875;-0.34521484375;-5.3125;1.9375;3.0;
1441975223726820;-0.77313232421875;0.26910400390625;-0.53076171875;-0.21966552734375;2.014581590387347;17.549013495766197;7.3961168148700445;0.93017578125;0.0576171875;-0.3447265625;-5.4375;1.625;3.3125;
1441975223741821;-0.7725830078125;0.27001953125;-0.5308837890625;-0.22015380859375;2.009887353202664;17.55241802424186;7.38668701341969;0.93701171875;0.060546875;-0.341796875;-4.8125;1.625;3.625;
1441975223765822;-0.77203369140625;0.27093505859375;-0.531005859375;-0.22064208984375;2.0052008183674515;17.555852735029546;7.377227844914836;0.94482421875;0.0546875;-0.3486328125;-5.5625;2.125;3.8125;
1441975223786824;-0.771484375;0.27178955078125;-0.5311279296875;-0.22113037109375;2.0004519765607496;17.558738698120315;7.368553086611009;0.94140625;0.0576171875;-0.34228515625;-5.375;2.125;3.6875;
1441975223802825;-0.77093505859375;0.2725830078125;-0.53131103515625;-0.22161865234375;1.995081492733557;17.561264840534665;7.360562601410216;0.94189453125;0.05859375;-0.3447265625;-5.0625;2.125;3.8125;
1441975223839827;-0.7705078125;0.27325439453125;-0.53143310546875;-0.221923828125;1.9913189283511283;17.564699783875046;7.352926691438255;0.94873046875;0.06298828125;-0.3408203125;-4.875;2.3125;3.625;
1441975223846827;-0.7701416015625;0.27392578125;-0.531494140625;-0.22222900390625;1.9885146974513408;17.56785243559027;7.345573446572957;0.94140625;0.05322265625;-0.34423828125;-3.5625;1.8125;3.0;
1441975223862828;-0.76983642578125;0.27447509765625;-0.53167724609375;-0.222412109375;1.9851228322091523;17.571776419878333;7.338655955144065;0.9443359375;0.05615234375;-0.34375;-3.8125;1.5;3.0;
1441975223884829;-0.76947021484375;0.27490234375;-0.5318603515625;-0.22259521484375;1.981192634819898;17.57465932779027;7.333159434684143;0.947265625;0.0517578125;-0.345703125;-2.6875;1.6875;2.6875;
1441975223906830;-0.769287109375;0.27520751953125;-0.53192138671875;-0.22265625;1.9796864352370758;17.577294443931148;7.328938295896704;0.94189453125;0.06103515625;-0.33984375;-2.0625;2.0625;2.6875;
1441975223922831;-0.76922607421875;0.27545166015625;-0.5318603515625;-0.22283935546875;1.979737845165836;17.577086431712303;7.327325920775309;0.9345703125;0.0615234375;-0.359375;-1.1875;2.0;2.375;
1441975223944833;-0.76898193359375;0.27569580078125;-0.53204345703125;-0.222900390625;1.976653239140063;17.579656384537188;7.3234942477492675;0.93505859375;0.0673828125;-0.3505859375;-1.5;1.25;1.75;
1441975223967834;-0.76885986328125;0.27581787109375;-0.5321044921875;-0.22296142578125;1.9753208585444235;17.580433756051203;7.321923949852805;0.93603515625;0.052734375;-0.33740234375;-0.75;1.5;1.625;
1441975223982835;-0.768798828125;0.27569580078125;-0.5323486328125;-0.2227783203125;1.9729639233010494;17.58264488230639;7.321154096360762;0.9267578125;0.0546875;-0.33984375;-0.6875;1.375;1.125;
1441975224004836;-0.76885986328125;0.2755126953125;-0.53240966796875;-0.22259521484375;1.972987476043297;17.583437787166535;7.321947001220907;0.92626953125;0.060546875;-0.34033203125;1.625;2.0;1.375;
1441975224027837;-0.76885986328125;0.27532958984375;-0.5325927734375;-0.22247314453125;1.9713686955018173;17.583926742437892;7.3228991378928106;0.92822265625;0.0595703125;-0.34521484375;1.625;1.0;0.5;
1441975224041838;-0.7689208984375;0.2750244140625;-0.5328369140625;-0.2220458984375;1.9701226796440112;17.587441101840724;7.322645936248577;0.93603515625;0.0546875;-0.33642578125;1.5625;1.0;0.25;
1441975224064840;-0.76910400390625;0.274658203125;-0.53289794921875;-0.2218017578125;1.970845919510339;17.587066354244488;7.325723327861859;0.9375;0.048828125;-0.3466796875;3.1875;1.4375;0.0625;
1441975224088841;-0.769287109375;0.27410888671875;-0.53302001953125;-0.221435546875;1.9710592532843232;17.58677624071528;7.329978078128775;0.931640625;0.06640625;-0.3486328125;2.9375;1.0625;0.1875;
1441975224102842;-0.76953125;0.27349853515625;-0.53314208984375;-0.22113037109375;1.9714583908059582;17.58496458719609;7.335843689714698;0.939453125;0.06591796875;-0.34521484375;4.125;0.75;-0.3125;
1441975224124843;-0.76971435546875;0.27301025390625;-0.533203125;-0.220947265625;1.9718983368728784;17.582596266268176;7.341149262478988;0.93994140625;0.07373046875;-0.33544921875;4.25;0.4375;-0.4375;
1441975224147844;-0.7698974609375;0.2725830078125;-0.533203125;-0.22076416015625;1.9729705894706278;17.580618651394516;7.345740593486103;0.93896484375;0.064453125;-0.333984375;3.0;0.0;-0.625;
1441975224162845;-0.7701416015625;0.27197265625;-0.533203125;-0.22052001953125;1.9743546618281722;17.57759575785944;7.352405228365504;0.94482421875;0.0576171875;-0.3388671875;2.375;-0.0625;-1.125;
1441975224184846;-0.77044677734375;0.27130126953125;-0.53314208984375;-0.220458984375;1.976227063040567;17.57122391826955;7.361949492047635;0.9384765625;0.05126953125;-0.33740234375;3.4375;-0.3125;-2.125;
1441975224207848;-0.770751953125;0.2706298828125;-0.53314208984375;-0.22027587890625;1.977819246269228;17.56670389047735;7.370200334571;0.93896484375;0.06005859375;-0.33251953125;2.875;-0.4375;-2.625;
1441975224222849;-0.77117919921875;0.2698974609375;-0.532958984375;-0.2200927734375;1.9818140851004808;17.560827512712198;7.379954294964542;0.94091796875;0.05322265625;-0.33740234375;3.25;-0.375;-2.8125;
1441975224244850;-0.77154541015625;0.26910400390625;-0.53289794921875;-0.21990966796875;1.9842428817173725;17.554876098748682;7.390106992150769;0.9443359375;0.05126953125;-0.34326171875;3.125;-0.9375;-3.5;
1441975224267851;-0.77197265625;0.26837158203125;-0.53271484375;-0.2198486328125;1.9880114432214282;17.547417888405178;7.400973499869762;0.94140625;0.0576171875;-0.3359375;3.8125;-0.6875;-3.375;
1441975224281852;-0.7723388671875;0.26776123046875;-0.53253173828125;-0.2198486328125;1.9914070315150012;17.540439005476816;7.410567555016176;0.93994140625;0.0576171875;-0.3447265625;2.75;-0.6875;-3.5;
1441975224304853;-0.772705078125;0.2672119140625;-0.53228759765625;-0.2197265625;1.9956890379688077;17.535524730220196;7.418244606617304;0.93212890625;0.060546875;-0.33251953125;2.375;-1.375;-3.25;
1441975224327855;-0.77301025390625;0.26678466796875;-0.531982421875;-0.21990966796875;1.9996516893543295;17.527629274803502;7.427081019303584;0.93798828125;0.0458984375;-0.33447265625;1.875;-1.75;-3.5;
1441975224342855;-0.7733154296875;0.266357421875;-0.53173828125;-0.219970703125;2.0033155382552126;17.52157575796733;7.434633872065225;0.94091796875;0.05322265625;-0.3310546875;0.5;-1.75;-3.25;
1441975224364857;-0.77362060546875;0.26611328125;-0.53131103515625;-0.2200927734375;2.008729093595275;17.51594185147206;7.440563028539211;0.94189453125;0.05078125;-0.33447265625;0.5625;-1.8125;-3.4375;
1441975224395858;-0.77386474609375;0.265869140625;-0.5311279296875;-0.2200927734375;2.0117557367414296;17.512750062401096;7.4447837950677345;0.94091796875;0.044921875;-0.34375;-0.125;-2.125;-3.1875;
1441975224402859;-0.77410888671875;0.2655029296875;-0.53094482421875;-0.21990966796875;2.0150259516494535;17.510852648482704;7.448887120867188;0.947265625;0.0419921875;-0.3330078125;0.1875;-1.9375;-3.0625;
1441975224424860;-0.7742919921875;0.26507568359375;-0.53094482421875;-0.219970703125;2.0156856781729724;17.505744356789066;7.455670405356301;0.9443359375;0.0400390625;-0.341796875;1.5625;-1.25;-2.875;
1441975224447861;-0.7744140625;0.2647705078125;-0.53094482421875;-0.21990966796875;2.0163078971982347;17.503502836051087;7.4594993970705525;0.9453125;0.06103515625;-0.3349609375;1.1875;-0.5;-2.1875;
1441975224468863;-0.7745361328125;0.2646484375;-0.53076171875;-0.22003173828125;2.0184317620711214;17.500044378846738;7.462870431295043;0.931640625;0.05126953125;-0.3330078125;1.4375;-0.4375;-1.875;
1441975224484864;-0.7745361328125;0.2646484375;-0.53076171875;-0.219970703125;2.0185496425222293;17.50085609934701;7.462294163912289;0.9326171875;0.06298828125;-0.33935546875;-0.1875;-0.75;-1.125;
1441975224507865;-0.7745361328125;0.2646484375;-0.53082275390625;-0.219970703125;2.0179894968389087;17.501027023517356;7.462210654380152;0.94384765625;0.0517578125;-0.3330078125;0.4375;-0.25;-0.25;
1441975224528866;-0.7744140625;0.26483154296875;-0.531005859375;-0.21978759765625;2.016043314118581;17.50587625603824;7.45744882931342;0.9462890625;0.05029296875;-0.341796875;0.1875;0.375;0.5625;
1441975224544867;-0.774169921875;0.26495361328125;-0.53131103515625;-0.21966552734375;2.0120094582464403;17.50986291429834;7.453549571324274;0.95263671875;0.05078125;-0.34619140625;0.125;0.8125;1.125;
1441975224567868;-0.77398681640625;0.26519775390625;-0.53155517578125;-0.21942138671875;2.0092968459860185;17.516389767435545;7.447110111275659;0.95068359375;0.05517578125;-0.333984375;0.3125;1.125;1.375;
1441975224588869;-0.7738037109375;0.2655029296875;-0.53173828125;-0.21929931640625;2.0069720980470596;17.521706994266477;7.441086646730034;0.94189453125;0.0439453125;-0.34228515625;0.0625;1.125;1.75;
1441975224604870;-0.77362060546875;0.265625;-0.53204345703125;-0.218994140625;2.0037171402635283;17.528099979313335;7.435574664031345;0.93603515625;0.0498046875;-0.3388671875;-0.375;0.875;1.5;
1441975224627872;-0.77349853515625;0.2657470703125;-0.5322265625;-0.2188720703125;2.0016162764674177;17.531611893740564;7.432150121150693;0.94091796875;0.0419921875;-0.3359375;0.875;1.1875;1.4375;
1441975224650873;-0.77337646484375;0.26580810546875;-0.53240966796875;-0.21875;1.999454793924125;17.534549709304645;7.429535063529684;0.935546875;0.0537109375;-0.3388671875;0.0625;1.0;1.125;
1441975224672874;-0.77337646484375;0.26580810546875;-0.53240966796875;-0.21868896484375;1.9995780688962477;17.53536634957508;7.4289538240124005;0.939453125;0.05419921875;-0.33984375;0.625;0.8125;1.0;
1441975224687875;-0.773193359375;0.26605224609375;-0.53253173828125;-0.21875;1.9974005881434334;17.537517232332156;7.425538619890714;0.9365234375;0.05078125;-0.33349609375;-0.125;0.1875;0.5625;
1441975224708876;-0.77313232421875;0.26629638671875;-0.532470703125;-0.21881103515625;1.997694400638679;17.53893966990469;7.422764504500247;0.94287109375;0.05078125;-0.328125;-1.125;0.0625;1.125;
1441975224724877;-0.77313232421875;0.26654052734375;-0.5323486328125;-0.2188720703125;1.998944682949244;17.540084674608316;7.420267806186597;0.9384765625;0.04833984375;-0.333984375;-1.1875;-0.375;0.5625;
1441975224747879;-0.77313232421875;0.266845703125;-0.5321044921875;-0.21905517578125;2.0011273432382413;17.53981158177453;7.418308078731997;0.93896484375;0.0546875;-0.3349609375;-1.375;-1.0625;0.5625;
