1441975374992472;-0.90093994140625;-0.0804443359375;-0.29412841796875;-0.30889892578125;6.1298887371855475;15.824627675817347;10.093137626685952;1.6923828125;0.18017578125;-0.47900390625;313.8125;0.0625;-275.875;
1441975375015473;-0.918701171875;-0.145263671875;-0.27752685546875;-0.24078369140625;6.390088642977172;16.219132853855267;10.324323235417907;1.5927734375;0.271484375;-0.5966796875;423.3125;15.375;-267.625;
1441975375029474;-0.92950439453125;-0.20599365234375;-0.2574462890625;-0.1656494140625;6.577656525605227;16.650223032081012;10.54444933670648;1.31494140625;0.52880859375;-0.67333984375;502.1875;19.75;-251.125;
1441975375052476;-0.93194580078125;-0.255859375;-0.2359619140625;-0.10198974609375;6.71952864772429;17.01474181755517;10.73579663634261;1.048828125;0.84716796875;-0.77001953125;532.375;14.375;-222.25;
1441975375075477;-0.93115234375;-0.28887939453125;-0.21453857421875;-0.05975341796875;6.859370405992766;17.26832050463476;10.862614043487978;0.9267578125;1.365234375;-0.47314453125;459.3125;-7.3125;-186.8125;
1441975375098478;-0.92901611328125;-0.30633544921875;-0.19940185546875;-0.0587158203125;7.045901123618603;17.289820194354867;10.947858873657763;0.900390625;2.12646484375;-0.25341796875;301.75;-32.4375;-132.8125;
1441975375112479;-0.92498779296875;-0.3109130859375;-0.20025634765625;-0.0877685546875;7.158673027388334;17.120052900712782;11.001613857990133;0.876953125;1.4833984375;-0.18701171875;51.125;-70.5;-100.875;
1441975375134480;-0.9205322265625;-0.30963134765625;-0.20697021484375;-0.118408203125;7.208014305199195;16.93338580375727;11.029184852145951;0.94189453125;0.6259765625;-0.1689453125;-143.375;-54.1875;-65.0625;
1441975375150481;-0.91607666015625;-0.31024169921875;-0.212646484375;-0.1392822265625;7.235255349331214;16.80161401075384;11.059657112114973;0.86279296875;0.06201171875;-0.2373046875;-178.9375;-26.5625;-37.3125;
1441975375172482;-0.91217041015625;-0.31451416015625;-0.220703125;-0.1429443359375;7.177887752706118;16.756206167644326;11.104974586674345;0.724609375;-0.08544921875;-0.27880859375;-125.5625;-11.0625;-37.375;
1441975375195484;-0.90802001953125;-0.3231201171875;-0.22869873046875;-0.13763427734375;7.095375350169704;16.75601461731765;11.170750201498329;0.75;-0.05126953125;-0.29443359375;-43.125;5.375;-48.9375;
1441975375210485;-0.90325927734375;-0.3341064453125;-0.23699951171875;-0.12811279296875;6.997025680262136;16.774463125030984;11.2495699051277;0.75146484375;0.00927734375;-0.30859375;12.3125;25.8125;-59.8125;
1441975375232486;-0.8973388671875;-0.3466796875;-0.2471923828125;-0.1165771484375;6.8729886155688;16.7948013370442;11.341949097379803;0.71630859375;0.07275390625;-0.32373046875;39.75;41.125;-65.0625;
1441975375255487;-0.89013671875;-0.36016845703125;-0.25933837890625;-0.10369873046875;6.72341308237827;16.81241449667095;11.445361669079967;0.7822265625;0.15625;-0.33935546875;52.625;54.3125;-70.5;
1441975375278488;-0.88153076171875;-0.3740234375;-0.2740478515625;-0.0897216796875;6.541844660013178;16.8232018978181;11.558969595334528;0.80810546875;0.2255859375;-0.3759765625;59.5625;69.8125;-72.4375;
1441975375292489;-0.87237548828125;-0.389404296875;-0.28607177734375;-0.0745849609375;6.383206313099976;16.842305393994753;11.678045478366093;0.828125;0.267578125;-0.36083984375;62.0625;87.25;-72.8125;
1441975375314491;-0.86175537109375;-0.40509033203125;-0.30035400390625;-0.05682373046875;6.1865075494348725;16.861777760593892;11.806490061125142;0.85009765625;0.2861328125;-0.40380859375;71.4375;106.375;-70.6875;
1441975375338492;-0.84954833984375;-0.42034912109375;-0.316650390625;-0.0372314453125;5.955712975125796;16.876739191869163;11.941890858397947;0.875;0.353515625;-0.427734375;80.375;126.25;-69.1875;
1441975375352493;-0.8358154296875;-0.4349365234375;-0.33465576171875;-0.01800537109375;5.706295135798061;16.87497098548171;12.085659381596766;0.884765625;0.4033203125;-0.44580078125;84.3125;143.6875;-66.375;
1441975375375494;-0.82098388671875;-0.44781494140625;-0.35430908203125;-0.001220703125;5.45059072247072;16.84548022357578;12.235126076445672;0.85595703125;0.345703125;-0.41455078125;75.8125;154.3125;-67.1875;
1441975375398495;-0.80511474609375;-0.45880126953125;-0.37579345703125;0.01446533203125;5.180778554251843;16.792729762982436;12.39118843519815;0.82275390625;0.296875;-0.31982421875;56.625;158.5625;-66.1875;
1441975375412496;-0.7884521484375;-0.466064453125;-0.400390625;0.0289306640625;4.882736745783347;16.710100815002917;12.550423445316376;0.9072265625;0.2919921875;-0.30224609375;42.5;165.6875;-62.375;
1441975375435497;-0.77227783203125;-0.4678955078125;-0.42791748046875;0.04034423828125;4.568200304071389;16.589987267432136;12.705104563991942;0.99658203125;0.34619140625;-0.3779296875;21.125;179.3125;-50.125;
1441975375458499;-0.75726318359375;-0.46319580078125;-0.4580078125;0.04815673828125;4.24206841632838;16.430636442083376;12.85136519792553;1.099609375;0.443359375;-0.32421875;-12.5;183.5625;-31.125;
1441975375472500;-0.743408203125;-0.4503173828125;-0.4921875;0.04901123046875;3.911673352026421;16.202574254033003;12.997886335269946;1.28857421875;0.45458984375;-0.296875;-51.5625;182.8125;-9.1875;
1441975375494501;-0.730712890625;-0.42767333984375;-0.5303955078125;0.04345703125;3.568258461136736;15.901045683187764;13.147444489030494;1.49609375;0.484375;-0.26806640625;-114.375;181.0625;9.0625;
1441975375518502;-0.71929931640625;-0.3939208984375;-0.57135009765625;0.03338623046875;3.1989616311109867;15.531497266606074;13.300365870183747;1.73193359375;0.47607421875;-0.33544921875;-181.75;182.3125;32.25;
1441975375533503;-0.708251953125;-0.35211181640625;-0.611572265625;0.02264404296875;2.8100814783569312;15.110273498167476;13.474882992111636;1.79541015625;0.35205078125;-0.37255859375;-243.0625;184.4375;65.75;
1441975375555504;-0.69805908203125;-0.30340576171875;-0.6485595703125;0.01092529296875;2.421497738297043;14.637230320319986;13.676656257252507;1.67578125;0.26513671875;-0.3447265625;-271.625;183.6875;97.0;
1441975375578506;-0.68878173828125;-0.2476806640625;-0.681396484375;-0.00274658203125;2.040750199908574;14.091219075843435;13.922299247383242;1.5673828125;0.43603515625;-0.41357421875;-294.0;170.9375;127.8125;
1441975375594507;-0.6800537109375;-0.1888427734375;-0.70831298828125;-0.01605224609375;1.6818978871271673;13.462079379709458;14.247352954976067;1.50732421875;0.26708984375;-0.45849609375;-321.5;151.0625;149.5625;
1441975375623508;-0.672119140625;-0.1348876953125;-0.727783203125;-0.02154541015625;1.3484714547608556;12.75207928290159;14.710803015978668;1.44775390625;0.07421875;-0.35693359375;-323.5625;126.1875;162.3125;
1441975375638509;-0.6651611328125;-0.089599609375;-0.74114990234375;-0.01788330078125;1.068088083851317;11.882980226294405;15.408952728949933;1.36376953125;-0.08154296875;-0.2158203125;-263.75;102.125;174.625;
1441975375652510;-0.6590576171875;-0.05523681640625;-0.7501220703125;-0.005126953125;0.8861023198329284;10.778785305829665;16.424870372244698;1.36376953125;-0.19482421875;-0.19482421875;-186.4375;83.3125;178.9375;
1441975375675511;-0.65252685546875;-0.03399658203125;-0.75689697265625;0.01641845703125;0.858361006504242;9.580434550441739;17.624424902353113;1.40869140625;-0.21875;-0.06494140625;-102.5;67.1875;176.8125;
1441975375698512;-0.64453125;-0.02490234375;-0.762939453125;0.0445556640625;0.9736910987717211;8.670061184684434;0.6124615532234421;1.40087890625;-0.2939453125;0.04443359375;-11.8125;62.625;165.25;
1441975375712513;-0.6341552734375;-0.0252685546875;-0.7689208984375;0.07769775390625;1.1737234115504234;8.146958609014405;1.2727604648288224;1.34765625;-0.3173828125;0.14794921875;66.0;65.125;149.0;
1441975375735515;-0.6219482421875;-0.02838134765625;-0.77471923828125;0.11083984375;1.410173275803813;7.866721919614594;1.7025276179822018;1.31298828125;-0.21044921875;0.13916015625;126.5;74.0625;138.4375;
1441975375757516;-0.60906982421875;-0.029052734375;-0.78021240234375;0.13995361328125;1.6581141016487735;7.69963026307078;1.993965522331161;1.22900390625;-0.0048828125;0.12548828125;138.6875;80.9375;132.4375;
1441975375772517;-0.597412109375;-0.02410888671875;-0.7847900390625;0.16363525390625;1.9015524297374304;7.553141272517791;2.2203718853797385;1.12255859375;0.30322265625;0.16943359375;112.3125;83.0625;128.8125;
1441975375795518;-0.5888671875;-0.01055908203125;-0.78790283203125;0.18011474609375;2.130759165510067;7.372886569511758;2.415607571208416;1.01708984375;0.45361328125;0.1728515625;66.25;77.9375;127.6875;
1441975375817519;-0.5843505859375;0.010986328125;-0.78887939453125;0.190185546875;2.340715145850978;7.145443040680162;2.598035248321308;0.90966796875;0.49169921875;0.15185546875;0.1875;66.3125;127.625;
1441975375832520;-0.58447265625;0.03790283203125;-0.78680419921875;0.19482421875;2.5189376244232093;6.876586141275938;2.776235530515522;0.822265625;0.44921875;0.1396484375;-61.625;48.8125;127.25;
1441975375855521;-0.588623046875;0.06805419921875;-0.78143310546875;0.19586181640625;2.6723865449148745;6.574018464282315;2.9589308821400104;0.78076171875;0.38037109375;0.17822265625;-109.5625;23.1875;123.1875;
1441975375877523;-0.59423828125;0.09912109375;-0.77398681640625;0.19512939453125;2.8222713201759495;6.271666631149276;3.12971970385884;0.7333984375;0.26708984375;0.18505859375;-140.625;-2.1875;119.0625;
1441975375892524;-0.6004638671875;0.12835693359375;-0.76519775390625;0.1937255859375;2.964145550494362;5.991428562971247;3.282613804439299;0.65087890625;0.10400390625;0.16064453125;-152.5625;-14.625;113.5;
1441975375915525;-0.60687255859375;0.15325927734375;-0.7557373046875;0.192626953125;3.088427767104072;5.747064124661077;3.418425239098854;0.59130859375;-0.01611328125;0.1630859375;-147.625;-23.6875;103.9375;
1441975375937526;-0.61468505859375;0.1739501953125;-0.745361328125;0.19091796875;3.1808838748960566;5.520979364837181;3.5504984450867543;0.55859375;-0.0625;0.1298828125;-127.9375;-32.1875;90.1875;
1441975375952527;-0.62457275390625;0.19207763671875;-0.733642578125;0.1866455078125;3.236225054104604;5.291845423605558;3.6852394764624736;0.5322265625;-0.0322265625;0.0732421875;-113.875;-44.875;73.0625;
1441975375975528;-0.63641357421875;0.20880126953125;-0.72039794921875;0.18017578125;3.268497100366162;5.048756457809044;3.830381037898018;0.490234375;0.0087890625;0.00634765625;-115.1875;-58.25;53.25;
1441975375999530;-0.6497802734375;0.2239990234375;-0.70599365234375;0.17120361328125;3.2788504203597713;4.793268739868581;3.983727521514639;0.435546875;-0.0078125;-0.04296875;-120.375;-70.625;37.5;
1441975376012530;-0.6639404296875;0.23590087890625;-0.69122314453125;0.1607666015625;3.2655873416288945;4.5380598888240264;4.144600253726952;0.43701171875;-0.10107421875;-0.0498046875;-126.0625;-80.0;19.75;
1441975376034532;-0.67889404296875;0.24456787109375;-0.67608642578125;0.14910888671875;3.232630229503517;4.278076533429005;4.318937946988936;0.4853515625;-0.12255859375;-0.02392578125;-119.6875;-86.8125;1.25;
1441975376066534;-0.6947021484375;0.2509765625;-0.66033935546875;0.13568115234375;3.1861811462399996;4.002900978626983;4.510762059798217;0.51318359375;-0.06689453125;-0.04541015625;-112.6875;-92.8125;-15.8125;
1441975376072534;-0.71124267578125;0.2545166015625;-0.6441650390625;0.12005615234375;3.1218511828394533;3.709092211066203;4.724370352925808;0.5390625;-0.052734375;-0.08740234375;-112.125;-97.4375;-31.625;
1441975376096535;-0.72808837890625;0.25433349609375;-0.6282958984375;0.102783203125;3.0398672613705617;3.4006131908542936;4.961858979425313;0.59423828125;-0.14208984375;-0.0908203125;-111.25;-102.0625;-53.4375;
1441975376129537;-0.744873046875;0.250244140625;-0.61273193359375;0.08465576171875;2.9496100584292098;3.0756636962140593;5.228929126084655;0.6494140625;-0.1572265625;-0.08349609375;-104.625;-102.5;-75.375;
1441975376133537;-0.76123046875;0.24371337890625;-0.597412109375;0.06549072265625;2.8650166926621154;2.730592277614191;5.522085876693393;0.70654296875;-0.138671875;-0.1064453125;-93.3125;-102.625;-94.1875;
1441975376154539;-0.77642822265625;0.23590087890625;-0.58258056640625;0.046142578125;2.80086348103474;2.377527879428378;5.827590777167169;0.77734375;-0.04736328125;-0.1787109375;-87.8125;-99.625;-106.8125;
1441975376177540;-0.790283203125;0.22662353515625;-0.56866455078125;0.0267333984375;2.7539112691849477;2.0227566270121424;6.140469549533527;0.8779296875;-0.00732421875;-0.265625;-82.875;-93.375;-110.9375;
1441975376193541;-0.80255126953125;0.21478271484375;-0.5565185546875;0.00872802734375;2.7188027140968742;1.6816330544890608;6.456245702727162;1.02880859375;-0.091796875;-0.3193359375;-76.9375;-85.8125;-117.125;
1441975376214542;-0.81304931640625;0.19952392578125;-0.5469970703125;-0.00537109375;2.693372882428816;1.3776458568517225;6.765619049033645;1.193359375;-0.14501953125;-0.34716796875;-59.9375;-75.9375;-123.5;
1441975376238543;-0.82171630859375;0.18182373046875;-0.53997802734375;-0.01580810546875;2.673796789772378;1.1125431269951838;7.061651003997117;1.337890625;-0.177734375;-0.3994140625;-28.25;-63.875;-125.3125;
1441975376252544;-0.82843017578125;0.1640625;-0.5350341796875;-0.02410888671875;2.657651689407866;0.882199736656396;7.332026302348635;1.4072265625;-0.17431640625;-0.4609375;-1.0;-50.3125;-123.9375;
1441975376275545;-0.83331298828125;0.1480712890625;-0.53173828125;-0.0313720703125;2.643489049779455;0.6832926991336733;7.567817380702319;1.31494140625;-0.1376953125;-0.4814453125;11.25;-36.3125;-116.0;
1441975376300547;-0.835693359375;0.13458251953125;-0.5311279296875;-0.03826904296875;2.610756853472921;0.517057054247038;7.76219251763865;1.22802734375;-0.13232421875;-0.44921875;11.75;-23.6875;-102.75;
1441975376320548;-0.83642578125;0.12359619140625;-0.5321044921875;-0.04534912109375;2.567403708319381;0.3690986700197414;7.927144542209097;1.22705078125;-0.134765625;-0.44921875;6.25;-10.875;-89.3125;
1441975376334549;-0.8359375;0.11480712890625;-0.5341796875;-0.05218505859375;2.5173373789981457;0.23874113057841842;8.066355707341067;1.20703125;-0.11376953125;-0.4560546875;-1.125;2.3125;-77.0625;
1441975376357550;-0.834228515625;0.108154296875;-0.53765869140625;-0.05780029296875;2.4561510672410227;0.13693963982859597;8.173315578330566;1.1201171875;-0.0927734375;-0.4287109375;-6.5625;12.6875;-65.1875;
1441975376372551;-0.8314208984375;0.1033935546875;-0.54241943359375;-0.06231689453125;2.382331329570392;0.060586997099528056;8.251642934956918;1.05615234375;-0.09375;-0.390625;-7.0625;21.5;-51.4375;
1441975376394552;-0.82769775390625;0.09967041015625;-0.54852294921875;-0.06494140625;2.294724425068538;0.013513373299612377;8.30440375423792;1.0068359375;-0.1044921875;-0.34033203125;-7.5625;29.25;-39.375;
1441975376417554;-0.82330322265625;0.09619140625;-0.5555419921875;-0.06585693359375;2.19689062655256;17.98802592883699;8.341682018282548;0.97314453125;-0.13037109375;-0.314453125;-2.4375;37.125;-30.0;
1441975376432554;-0.81866455078125;0.09295654296875;-0.56298828125;-0.0654296875;2.0952399733735443;17.98026936239741;8.36577320759588;0.91748046875;-0.1455078125;-0.296875;5.0625;43.875;-23.5625;
1441975376455556;-0.81396484375;0.090087890625;-0.57037353515625;-0.06402587890625;1.9950317768412367;17.98772475545896;8.377036149570827;0.85498046875;-0.12451171875;-0.27490234375;11.5;47.4375;-16.875;
1441975376477557;-0.809326171875;0.088134765625;-0.57733154296875;-0.06280517578125;1.899645983933863;9.34764540751954E-4;8.37783725373134;0.83984375;-0.080078125;-0.2646484375;16.0;47.625;-9.0625;
1441975376492558;-0.80487060546875;0.08709716796875;-0.583740234375;-0.06207275390625;1.8107409205824305;0.016251971866463894;8.370606023316245;0.8671875;-0.0322265625;-0.2548828125;13.1875;44.6875;-2.5;
1441975376516559;-0.80084228515625;0.0867919921875;-0.58935546875;-0.0621337890625;1.731767791192082;0.026791004238217758;8.361756341353535;0.87548828125;-0.03271484375;-0.2275390625;7.625;40.5625;0.3125;
1441975376538561;-0.7969970703125;0.0877685546875;-0.59429931640625;-0.06280517578125;1.6606075024214593;0.042206194448368275;8.340111536274206;0.857421875;-0.00830078125;-0.2119140625;1.875;35.875;2.0;
1441975376553561;-0.79345703125;0.09051513671875;-0.5985107421875;-0.0640869140625;1.5991838591157295;0.06913114812681898;8.297097845846775;0.8193359375;0.00439453125;-0.205078125;-5.0;32.875;6.5625;
1441975376575563;-0.79034423828125;0.0946044921875;-0.601806640625;-0.06585693359375;1.549990933190813;0.10472514528607019;8.237776419437022;0.8173828125;0.0107421875;-0.1865234375;-14.125;27.8125;12.4375;
1441975376598564;-0.78778076171875;0.0997314453125;-0.60400390625;-0.06817626953125;1.515309496075979;0.14319304579121778;8.1689035992472;0.8623046875;0.02685546875;-0.18896484375;-20.875;21.6875;17.5625;
1441975376613565;-0.78582763671875;0.105712890625;-0.60516357421875;-0.0714111328125;1.494259438494046;0.17468504357988193;8.099635643373235;0.9169921875;0.03857421875;-0.20947265625;-27.0625;15.375;20.9375;
1441975376634566;-0.784423828125;0.1124267578125;-0.60528564453125;-0.07562255859375;1.4859714491638596;0.19518716005850945;8.03419246960741;0.96240234375;0.0546875;-0.2216796875;-34.25;9.125;22.125;
1441975376657567;-0.783447265625;0.11993408203125;-0.6044921875;-0.0804443359375;1.4890763789206152;0.2114425453390092;7.967047885406795;0.98193359375;0.06005859375;-0.2294921875;-41.3125;3.1875;22.1875;
1441975376673568;-0.78289794921875;0.12786865234375;-0.60284423828125;-0.08575439453125;1.5025858950037665;0.22005548712098466;7.903583730389443;0.97412109375;0.0458984375;-0.23291015625;-47.5;-2.1875;21.6875;
1441975376694569;-0.7828369140625;0.13568115234375;-0.6004638671875;-0.09124755859375;1.525373705740256;0.2188258816225072;7.849542442560156;0.9619140625;0.0234375;-0.2412109375;-52.0;-6.75;19.75;
1441975376717571;-0.78302001953125;0.14276123046875;-0.5977783203125;-0.0963134765625;1.5521016989267857;0.21266361954788254;7.805042203288027;0.9306640625;-0.00341796875;-0.2490234375;-53.1875;-10.4375;15.8125;
1441975376733572;-0.78363037109375;0.14892578125;-0.5947265625;-0.1004638671875;1.585239004420675;0.20664002366284978;7.767787958181616;0.916015625;-0.02978515625;-0.2646484375;-49.1875;-11.875;12.3125;
1441975376755573;-0.78472900390625;0.15411376953125;-0.59149169921875;-0.10333251953125;1.6242960171924685;0.20641220301780575;7.734015845825505;0.89892578125;-0.03271484375;-0.2783203125;-42.375;-14.1875;10.1875;
1441975376777574;-0.7860107421875;0.157470703125;-0.58868408203125;-0.1043701171875;1.661561338889351;0.21387163817010452;7.707721954283177;0.8994140625;-0.03125;-0.31005859375;-32.75;-15.5625;9.75;
1441975376794575;-0.78778076171875;0.15960693359375;-0.58575439453125;-0.10406494140625;1.7039903901661178;0.22527942261062475;7.6880566274760485;0.92041015625;-0.0244140625;-0.31103515625;-17.625;-15.5625;8.75;
1441975376815576;-0.79022216796875;0.1610107421875;-0.58221435546875;-0.1036376953125;1.755169205459319;0.22527814320113368;7.683277506210244;0.93798828125;-0.0302734375;-0.32177734375;-7.625;-18.25;6.5;
1441975376837578;-0.7928466796875;0.16253662109375;-0.57818603515625;-0.10394287109375;1.8104029790344947;0.21342105417179896;7.6866686276373795;0.955078125;-0.0107421875;-0.32470703125;-4.1875;-24.125;4.5;
1441975376853579;-0.79534912109375;0.1641845703125;-0.5740966796875;-0.104736328125;1.8644899150923129;0.19648264745325794;7.692525037926592;0.99755859375;0.01806640625;-0.3173828125;-7.75;-27.9375;3.875;
1441975376883580;-0.79791259765625;0.16583251953125;-0.570068359375;-0.10467529296875;1.920418445427133;0.19197469007428905;7.6894751378195725;1.0546875;0.02001953125;-0.32958984375;-10.625;-28.875;3.0;
1441975376914582;-0.800537109375;0.16680908203125;-0.5662841796875;-0.1036376953125;1.9755930864069233;0.19498757606635264;7.68578339854027;1.107421875;-0.044921875;-0.34326171875;-7.875;-30.75;1.5625;
1441975376916582;-0.8033447265625;0.16619873046875;-0.56280517578125;-0.101806640625;2.028156339600947;0.19437563194510427;7.695715572819906;1.1123046875;-0.11279296875;-0.37060546875;-2.5625;-29.1875;-2.5;
1441975376967585;-0.80645751953125;0.16455078125;-0.55926513671875;-0.09930419921875;2.082918718226229;0.19256590516258398;7.7139626540081245;1.0673828125;-0.10888671875;-0.38720703125;6.75;-27.125;-7.25;
1441975376970585;-0.80926513671875;0.163330078125;-0.55584716796875;-0.0972900390625;2.1342851009326145;0.1898860974985837;7.729259351099501;0.9921875;-0.09521484375;-0.43310546875;13.8125;-23.6875;-8.9375;
1441975376988586;-0.8114013671875;0.162841796875;-0.55322265625;-0.095947265625;2.1739166570159942;0.189393200721389;7.736793858650653;0.9658203125;-0.04931640625;-0.47509765625;11.0;-19.6875;-5.5;
1441975376997587;-0.8123779296875;0.163330078125;-0.55169677734375;-0.09515380859375;2.1966678440451433;0.19631926436307912;7.7306827873162485;1.02197265625;-0.00341796875;-0.5107421875;7.1875;-13.1875;0.0;
1441975377020588;-0.81243896484375;0.16473388671875;-0.55108642578125;-0.095947265625;2.203264076891974;0.19611181968068572;7.721557948482348;1.10693359375;0.03173828125;-0.5576171875;3.1875;-3.875;7.1875;
1441975377050590;-0.81195068359375;0.1668701171875;-0.55072021484375;-0.0980224609375;2.2025135910070675;0.18819954924826954;7.711734865346298;1.10986328125;0.06103515625;-0.55517578125;-6.0;3.875;9.8125;
1441975377054590;-0.8115234375;0.169189453125;-0.55029296875;-0.1002197265625;2.2027137384428577;0.17996518906343126;7.700997310958684;0.9658203125;0.0185546875;-0.46630859375;-15.875;5.6875;6.5625;
1441975377077591;-0.8114013671875;0.17169189453125;-0.54962158203125;-0.10076904296875;2.2112305442171074;0.19193428845236318;7.676034846231852;0.794921875;-0.0517578125;-0.361328125;-19.0625;2.75;2.0625;
1441975377093592;-0.8111572265625;0.175048828125;-0.54901123046875;-0.10052490234375;2.2220427566999357;0.2208179896956956;7.633857435140607;0.685546875;-0.1171875;-0.30615234375;-13.75;-1.9375;3.125;
1441975377123594;-0.81085205078125;0.17803955078125;-0.54852294921875;-0.10040283203125;2.2306561681561496;0.24551804975104918;7.5968976260340435;0.6669921875;-0.1142578125;-0.29638671875;-12.4375;-2.625;10.0625;
1441975377138595;-0.8106689453125;0.1800537109375;-0.5482177734375;-0.09979248046875;2.2379035376991356;0.2683839750911111;7.567947655913551;0.6826171875;-0.04443359375;-0.29296875;-10.1875;-2.375;13.0625;
1441975377155596;-0.81072998046875;0.181640625;-0.54766845703125;-0.09918212890625;2.248145403044727;0.2861854313385081;7.545788553804859;0.7119140625;-0.00634765625;-0.29833984375;-3.125;-2.4375;12.625;
1441975377191598;-0.81103515625;0.18328857421875;-0.54656982421875;-0.09954833984375;2.2624278883180127;0.29007324363911646;7.5330875767003285;0.77490234375;0.029296875;-0.33154296875;-1.125;-3.625;13.125;
1441975377197598;-0.8111572265625;0.18548583984375;-0.54547119140625;-0.10101318359375;2.2737561666239245;0.28564292866977203;7.521880153828981;0.83447265625;0.07421875;-0.3701171875;-4.9375;-4.75;12.3125;
1441975377215599;-0.810791015625;0.18829345703125;-0.54461669921875;-0.10308837890625;2.279501290210533;0.2808878604846574;7.505848660213143;0.8994140625;0.0625;-0.40087890625;-11.9375;-3.75;11.5;
1441975377251601;-0.8099365234375;0.191162109375;-0.5443115234375;-0.106201171875;2.2745358368090223;0.26763329982299733;7.493930488693681;0.97021484375;0.02197265625;-0.42578125;-17.9375;-0.9375;10.5625;
1441975377265602;-0.80908203125;0.19390869140625;-0.5439453125;-0.109375;2.269663764260079;0.25248728973488216;7.4841001416567146;1.005859375;0.021484375;-0.4248046875;-22.5;3.1875;8.1875;
1441975377273603;-0.80865478515625;0.19757080078125;-0.54266357421875;-0.1126708984375;2.2772176298916635;0.23860273777962407;7.468382251137024;0.96337890625;-0.015625;-0.45947265625;-23.6875;6.8125;4.8125;
1441975377311605;-0.80816650390625;0.20074462890625;-0.5416259765625;-0.1153564453125;2.282815330775341;0.22914740857288352;7.452823810895745;0.9052734375;-0.08837890625;-0.4833984375;-29.5;3.3125;2.75;
1441975377318605;-0.8077392578125;0.20233154296875;-0.541259765625;-0.1171875;2.281744744850949;0.21970623926169844;7.447763119743086;0.86572265625;-0.1396484375;-0.458984375;-26.6875;3.75;-1.125;
1441975377333606;-0.80743408203125;0.20196533203125;-0.54180908203125;-0.117431640625;2.2734703767703963;0.21676559811918011;7.4514271348352725;0.84130859375;-0.16455078125;-0.404296875;-17.75;3.9375;-6.6875;
1441975377354607;-0.80718994140625;0.20068359375;-0.54266357421875;-0.1171875;2.262272009143625;0.21335297259543085;7.461555405216886;0.8349609375;-0.1328125;-0.3798828125;-2.625;6.0625;-8.75;
1441975377385609;-0.80731201171875;0.1981201171875;-0.5435791015625;-0.116455078125;2.2515024725493826;0.20482991949429052;7.484313172071401;0.85009765625;-0.083984375;-0.36376953125;4.5625;5.8125;-7.9375;
1441975377393609;-0.80816650390625;0.1943359375;-0.54388427734375;-0.11553955078125;2.248936856817156;0.18467199377177365;7.524464268413259;0.8984375;-0.05859375;-0.34912109375;11.6875;3.4375;-11.375;
1441975377414611;-0.80963134765625;0.19000244140625;-0.54327392578125;-0.11529541015625;2.2560354478677813;0.1475572471475128;7.580800578837042;0.908203125;-0.0380859375;-0.36376953125;16.25;-0.625;-16.1875;
1441975377438612;-0.8114013671875;0.185791015625;-0.5419921875;-0.11614990234375;2.269386561939911;0.09583883132371353;7.646493441262617;0.91943359375;-0.01904296875;-0.3642578125;15.0625;-5.6875;-21.5;
1441975377455613;-0.8131103515625;0.1822509765625;-0.54022216796875;-0.11767578125;2.2873375161991225;0.04086916493675285;7.709533724767918;0.91845703125;-0.0283203125;-0.36767578125;8.3125;-9.0;-25.6875;
1441975377474614;-0.81488037109375;0.178955078125;-0.53826904296875;-0.1195068359375;2.3080099282397266;17.984540672678133;7.771611852270822;0.91259765625;-0.0595703125;-0.373046875;1.6875;-10.1875;-27.8125;
1441975377521617;-0.81695556640625;0.17510986328125;-0.53607177734375;-0.12103271484375;2.3337358105486845;17.92758312654248;7.837829851900145;0.90234375;-0.08935546875;-0.3740234375;-1.6875;-11.3125;-30.3125;
1441975377524617;-0.8192138671875;0.1700439453125;-0.5340576171875;-0.12188720703125;2.359821065672523;17.870606696278898;7.912048973758465;0.8818359375;-0.1083984375;-0.37353515625;0.8125;-13.0;-33.75;
1441975377546618;-0.82159423828125;0.16363525390625;-0.5323486328125;-0.1221923828125;2.384680847984832;17.811662582830454;7.996282795047342;0.86474609375;-0.10107421875;-0.3603515625;7.75;-13.25;-37.625;
1441975377565619;-0.82379150390625;0.15606689453125;-0.53118896484375;-0.12213134765625;2.4043280338046804;17.75065243318884;8.089101289604905;0.87744140625;-0.06396484375;-0.3720703125;15.5625;-11.3125;-40.5;
1441975377573620;-0.82574462890625;0.14801025390625;-0.53057861328125;-0.1217041015625;2.4189862661806805;17.692299101356312;8.183006122679194;0.88818359375;-0.02001953125;-0.3701171875;22.3125;-8.375;-41.5625;
1441975377596621;-0.82733154296875;0.13970947265625;-0.5303955078125;-0.121337890625;2.4287242331606973;17.632853800286167;8.278813217789764;0.8955078125;0.00732421875;-0.36865234375;26.25;-5.625;-41.4375;
1441975377618622;-0.82861328125;0.13134765625;-0.5306396484375;-0.1209716796875;2.434082762354832;17.573908525166853;8.374474922233475;0.900390625;0.03955078125;-0.359375;27.8125;-3.1875;-40.25;
1441975377648624;-0.829345703125;0.12322998046875;-0.53155517578125;-0.1204833984375;2.4311702553448296;17.518769763773637;8.465926210345966;0.89599609375;0.07763671875;-0.35498046875;29.0;-0.25;-38.375;
1441975377656624;-0.8294677734375;0.1153564453125;-0.53338623046875;-0.119384765625;2.417116702738504;17.472382245076908;8.550330877188758;0.8798828125;0.0927734375;-0.34814453125;29.1875;4.625;-35.3125;
1441975377677626;-0.82904052734375;0.10791015625;-0.53607177734375;-0.117431640625;2.3923372168231727;17.438257111786875;8.624402874833546;0.85986328125;0.10986328125;-0.330078125;31.625;9.6875;-30.4375;
1441975377700627;-0.8277587890625;0.10107421875;-0.53985595703125;-0.11505126953125;2.351963056291006;17.412017776044973;8.689957992739705;0.87744140625;0.14013671875;-0.3251953125;35.6875;14.3125;-23.4375;
1441975377716628;-0.82550048828125;0.0955810546875;-0.54486083984375;-0.112548828125;2.2932644801698623;17.395199493693223;8.741194717739434;0.97021484375;0.2138671875;-0.3515625;37.6875;20.875;-13.5625;
1441975377745630;-0.8223876953125;0.09222412109375;-0.550537109375;-0.11016845703125;2.221383190311245;17.391875813253964;8.76952642088233;1.0859375;0.28076171875;-0.39599609375;35.5;29.25;-1.4375;
1441975377759630;-0.8187255859375;0.09075927734375;-0.55645751953125;-0.109130859375;2.1426792849165532;17.386135852242667;8.786831791951315;1.16357421875;0.30029296875;-0.4375;28.4375;35.6875;9.75;
1441975377776631;-0.81451416015625;0.090576171875;-0.5628662109375;-0.1080322265625;2.054829628928851;17.39134170137985;8.788149503709347;1.17333984375;0.2822265625;-0.3984375;15.25;36.5;14.1875;
1441975377797633;-0.8099365234375;0.0911865234375;-0.5697021484375;-0.10601806640625;1.959717549399485;17.41662263753666;8.769905805515924;1.15087890625;0.21240234375;-0.32177734375;10.0625;36.1875;17.125;
1441975377828634;-0.80523681640625;0.0919189453125;-0.57659912109375;-0.103515625;1.8631612187984572;17.452319409441706;8.742679185894758;1.1259765625;0.14208984375;-0.2744140625;10.1875;37.5;20.0;
1441975377836635;-0.80084228515625;0.09197998046875;-0.583251953125;-0.1002197265625;1.7713797682941301;17.49628167889079;8.713146647230639;1.08349609375;0.0888671875;-0.234375;10.875;37.1875;19.25;
1441975377857636;-0.797119140625;0.09088134765625;-0.589111328125;-0.09649658203125;1.6921944159596511;17.537779901750675;8.69241405127413;1.0390625;0.0234375;-0.19921875;15.5625;34.625;15.125;
1441975377881637;-0.7940673828125;0.0888671875;-0.59405517578125;-0.09332275390625;1.6264847257226405;17.562328967118336;8.689942645855194;1.00244140625;-0.01025390625;-0.20458984375;20.8125;31.5;8.8125;
1441975377897638;-0.79168701171875;0.08648681640625;-0.59796142578125;-0.0911865234375;1.5750501895986613;17.566214184979874;8.705184249336263;0.97216796875;4.8828125E-4;-0.22265625;21.5;28.4375;2.875;
1441975377917639;-0.7899169921875;0.084228515625;-0.60076904296875;-0.09002685546875;1.5378991198121346;17.555105353947575;8.730690865279236;0.9609375;0.02685546875;-0.240234375;18.5;24.0;-1.125;
1441975377939641;-0.78887939453125;0.0821533203125;-0.6024169921875;-0.08990478515625;1.5165522885457303;17.528484314458264;8.766532649644983;0.9609375;0.04150390625;-0.2490234375;13.4375;18.5;-4.125;
1441975377963642;-0.78851318359375;0.08026123046875;-0.60308837890625;-0.09051513671875;1.509044343687912;17.49192386894331;8.80844450782435;0.95947265625;0.06298828125;-0.25439453125;8.1875;12.125;-6.0625;
1441975377980643;-0.7886962890625;0.07843017578125;-0.6029052734375;-0.09149169921875;1.513504144043643;17.450847055712295;8.852987542336395;0.9609375;0.0791015625;-0.265625;4.5;6.3125;-7.6875;
1441975378000644;-0.789306640625;0.07672119140625;-0.6021728515625;-0.09283447265625;1.5263440997292368;17.406562309856852;8.898697621930479;0.95458984375;0.09130859375;-0.2685546875;2.4375;0.9375;-9.125;
1441975378016645;-0.7901611328125;0.0753173828125;-0.6009521484375;-0.09429931640625;1.5454594485339441;17.365970959208045;8.938860165889086;0.9443359375;0.1015625;-0.2685546875;0.875;-2.875;-9.5625;
1441975378037646;-0.79119873046875;0.0740966796875;-0.5994873046875;-0.095947265625;1.5682969898896038;17.326327159818213;8.97655811264433;0.93701171875;0.11083984375;-0.27734375;-1.0;-5.5;-9.125;
1441975378053647;-0.79241943359375;0.0733642578125;-0.59771728515625;-0.09771728515625;1.5949798637912127;17.2927278191149;9.005671568125221;0.91796875;0.125;-0.2841796875;-2.4375;-6.5625;-7.875;
1441975378076648;-0.79339599609375;0.07305908203125;-0.59613037109375;-0.099609375;1.6181103855828916;17.262551457777235;9.029097944120299;0.90478515625;0.1259765625;-0.302734375;-4.5;-7.6875;-6.75;
1441975378097650;-0.79412841796875;0.07342529296875;-0.59478759765625;-0.1016845703125;1.636821499125808;17.237278088083215;9.044147299107278;0.8876953125;0.12255859375;-0.27587890625;-6.875;-7.75;-5.3125;
1441975378122651;-0.79541015625;0.073974609375;-0.592529296875;-0.10406494140625;1.6677179026544016;17.21269484742866;9.05632877169299;0.8828125;0.14208984375;-0.30322265625;-9.5625;-4.375;-1.3125;
1441975378154653;-0.79705810546875;0.07562255859375;-0.589599609375;-0.10693359375;1.706269901465174;17.195867193696976;9.054136051935986;0.8603515625;0.16796875;-0.33251953125;-11.6875;-8.25;-0.9375;
1441975378165654;-0.798583984375;0.07720947265625;-0.58697509765625;-0.10882568359375;1.7402787629783274;17.19275802489028;9.042521009703561;0.8662109375;0.126953125;-0.35595703125;-18.3125;-11.875;-1.3125;
1441975378181654;-0.7994384765625;0.0777587890625;-0.58563232421875;-0.10931396484375;1.7580381463372294;17.195620990240723;9.035175929192274;0.865234375;0.09423828125;-0.33203125;-14.375;-12.6875;-0.0625;
1441975378196655;-0.79986572265625;0.07757568359375;-0.58526611328125;-0.10833740234375;1.7635276044156842;17.209897108938026;9.025644839583121;0.86474609375;0.0830078125;-0.29931640625;-4.125;-7.0;0.375;
1441975378233657;-0.8004150390625;0.076904296875;-0.58489990234375;-0.10675048828125;1.769908899097709;17.22817890711731;9.016639803802086;0.87353515625;0.1025390625;-0.287109375;5.4375;-2.125;3.625;
1441975378264659;-0.8009033203125;0.076416015625;-0.58465576171875;-0.10498046875;1.774409911374889;17.250828740171684;9.003300751499639;0.880859375;0.1259765625;-0.3115234375;10.6875;-0.75;5.3125;
1441975378266659;-0.80108642578125;0.07666015625;-0.58453369140625;-0.10400390625;1.7756238278529417;17.268742039378264;8.988397694074768;0.9130859375;0.16162109375;-0.31689453125;11.3125;-1.1875;9.0625;
1441975378285660;-0.8009033203125;0.07794189453125;-0.58465576171875;-0.1033935546875;1.771331484705234;17.291556234913532;8.96282139827074;0.98876953125;0.20068359375;-0.31494140625;6.4375;-1.125;12.3125;
1441975378293661;-0.800537109375;0.080322265625;-0.5849609375;-0.10302734375;1.7633003407544943;17.32245963166837;8.923697996559168;1.0791015625;0.21142578125;-0.33349609375;0.875;-0.0625;16.625;
1441975378323663;-0.7999267578125;0.0831298828125;-0.58551025390625;-0.1024169921875;1.7511146744546944;17.361597342342797;8.875598760787382;1.162109375;0.20166015625;-0.34033203125;-3.75;-0.125;20.125;
1441975378345664;-0.79949951171875;0.0858154296875;-0.58587646484375;-0.10174560546875;1.7423213603930254;17.4012538604583;8.827727317145882;1.22314453125;0.1728515625;-0.32080078125;-4.5625;-1.25;21.5625;
1441975378368665;-0.79937744140625;0.08782958984375;-0.58575439453125;-0.101318359375;1.7410126777435844;17.430549793910362;8.79185205227874;1.173828125;0.103515625;-0.287109375;-5.125;-3.75;16.75;
1441975378376666;-0.79949951171875;0.0887451171875;-0.58551025390625;-0.1011962890625;1.7434534579391876;17.443053260134683;8.77605882330323;1.02978515625;0.00927734375;-0.25048828125;-6.0;-5.75;7.125;
1441975378401667;-0.7999267578125;0.08831787109375;-0.58502197265625;-0.10076904296875;1.7509900080959266;17.445479049371837;8.777069130090235;0.89697265625;-0.05322265625;-0.23193359375;-4.4375;-5.4375;-2.9375;
1441975378428669;-0.80084228515625;0.0869140625;-0.5841064453125;-0.099853515625;1.7662424253884879;17.445155524933483;8.786814344110619;0.81787109375;-0.06640625;-0.23974609375;0.9375;-4.3125;-8.875;
1441975378436669;-0.80224609375;0.0848388671875;-0.58282470703125;-0.09808349609375;1.7883339675917223;17.45111866311287;8.79654611447047;0.80712890625;-0.02490234375;-0.265625;7.5;-6.25;-9.1875;
1441975378458670;-0.80377197265625;0.08203125;-0.58148193359375;-0.095703125;1.8120753594099517;17.458455596620404;8.81040804033809;0.845703125;0.02978515625;-0.29296875;14.5;-8.75;-6.625;
1441975378479672;-0.8055419921875;0.07861328125;-0.5799560546875;-0.09332275390625;1.839535991925803;17.459760514624083;8.832833099493756;0.8935546875;0.068359375;-0.30908203125;20.8125;-9.4375;-5.4375;
1441975378496673;-0.80731201171875;0.07513427734375;-0.57818603515625;-0.0916748046875;1.869593213962517;17.450291662120314;8.863191710160637;0.9462890625;0.1181640625;-0.32080078125;23.875;-11.375;-5.4375;
1441975378518674;-0.808837890625;0.072509765625;-0.57647705078125;-0.09112548828125;1.897374620429225;17.434143016841055;8.892193130586923;0.9990234375;0.1552734375;-0.33056640625;21.125;-12.875;-6.0625;
1441975378539675;-0.810302734375;0.07086181640625;-0.57452392578125;-0.091552734375;1.9268199753259876;17.41478217313909;8.91630012600037;1.01416015625;0.146484375;-0.32861328125;13.1875;-12.9375;-6.9375;
1441975378556676;-0.8116455078125;0.07037353515625;-0.57257080078125;-0.092529296875;1.954837596854352;17.399665875266823;8.929130572259378;0.98828125;0.10888671875;-0.33935546875;4.125;-13.0;-8.0;
1441975378584678;-0.8128662109375;0.07073974609375;-0.570556640625;-0.093505859375;1.9818764836011125;17.393092783901658;8.929837664802866;0.95654296875;0.06005859375;-0.33056640625;-3.1875;-13.0;-7.6875;
1441975378599678;-0.81402587890625;0.0711669921875;-0.5687255859375;-0.0943603515625;2.0066803635984454;17.38861864447575;8.928749553399614;0.9287109375;0.009765625;-0.33447265625;-7.25;-12.5;-7.25;
1441975378616679;-0.81536865234375;0.0712890625;-0.566650390625;-0.09503173828125;2.035137046835453;17.384236601904377;8.929530467394398;0.9052734375;-0.01123046875;-0.322265625;-7.5625;-12.5625;-7.5;
1441975378644681;-0.81683349609375;0.0711669921875;-0.5645751953125;-0.09539794921875;2.0644367179706635;17.38189545945376;8.930573186803786;0.8974609375;9.765625E-4;-0.32275390625;-5.1875;-13.8125;-7.875;
1441975378659682;-0.818359375;0.07086181640625;-0.5623779296875;-0.09564208984375;2.095375922090601;17.379729261487697;8.932657916312829;0.91015625;0.0126953125;-0.31787109375;-2.6875;-15.5625;-7.6875;
1441975378676683;-0.81988525390625;0.07061767578125;-0.55999755859375;-0.0960693359375;2.1280891577423784;17.375941609327835;8.935274473425121;0.93017578125;0.02294921875;-0.310546875;-1.5;-17.375;-7.5625;
1441975378698684;-0.821533203125;0.0709228515625;-0.557373046875;-0.096923828125;2.1636191668090503;17.371919640410617;8.934064594889177;0.94677734375;0.04150390625;-0.3134765625;-2.0625;-18.875;-6.9375;
1441975378719685;-0.8231201171875;0.07196044921875;-0.5546875;-0.09832763671875;2.198950542333919;17.36721887711655;8.928215446096996;0.958984375;0.04541015625;-0.3271484375;-5.875;-20.3125;-5.875;
1441975378743687;-0.82470703125;0.0733642578125;-0.55181884765625;-0.1002197265625;2.235933830206425;17.359613800202155;8.921663153836457;0.96337890625;0.033203125;-0.33203125;-11.0;-20.9375;-5.1875;
1441975378766688;-0.826171875;0.07537841796875;-0.5489501953125;-0.1024169921875;2.2717072048085027;17.35310903144911;8.910176424589785;0.94189453125;0.0283203125;-0.3359375;-15.125;-21.25;-5.125;
1441975378779689;-0.8275146484375;0.0780029296875;-0.546142578125;-0.10479736328125;2.305617338736591;17.349005966704134;8.89298051799534;0.93212890625;0.029296875;-0.34814453125;-18.4375;-20.625;-3.5625;
1441975378805690;-0.82861328125;0.0810546875;-0.54351806640625;-0.107177734375;2.3358225619121815;17.347671511126638;8.871206245945698;0.93603515625;0.03515625;-0.36279296875;-21.25;-19.75;-0.9375;
1441975378820691;-0.82952880859375;0.08447265625;-0.5411376953125;-0.10943603515625;2.3621502758921764;17.3500270247655;8.844750982598947;0.9267578125;0.03173828125;-0.36767578125;-22.8125;-18.3125;1.3125;
1441975378842692;-0.830322265625;0.0882568359375;-0.53900146484375;-0.11126708984375;2.3849089232911957;17.35967990297569;8.81129850738867;0.91064453125;0.04150390625;-0.3642578125;-22.875;-16.75;4.125;
1441975378871694;-0.830810546875;0.092529296875;-0.537109375;-0.11285400390625;2.403045135043916;17.375128139743765;8.770995244745617;0.89501953125;0.0419921875;-0.3740234375;-22.375;-14.875;7.75;
1441975378878694;-0.8310546875;0.09710693359375;-0.53570556640625;-0.11419677734375;2.414882998682055;17.394995965947768;8.72615838716095;0.88427734375;0.0322265625;-0.3759765625;-22.75;-12.9375;10.5;
1441975378903696;-0.83099365234375;0.10205078125;-0.53472900390625;-0.114990234375;2.420691791270115;17.423461538416664;8.673543752437018;0.86962890625;0.02880859375;-0.37158203125;-22.625;-10.4375;13.3125;
1441975378939698;-0.83062744140625;0.10711669921875;-0.53411865234375;-0.11553955078125;2.4214573317855;17.455338441137776;8.618053381788162;0.86962890625;0.013671875;-0.38427734375;-21.0625;-7.0625;16.1875;
1441975378941698;-0.83001708984375;0.1124267578125;-0.533935546875;-0.1160888671875;2.4170105079165793;17.489020405251406;8.559883556819534;0.87451171875;0.01025390625;-0.39404296875;-20.6875;-4.4375;18.0625;
1441975378968700;-0.82891845703125;0.11822509765625;-0.53424072265625;-0.11663818359375;2.4052659264225835;17.526642161792907;8.495787234974733;0.8876953125;0.02734375;-0.400390625;-20.875;-1.75;21.0;
1441975378976700;-0.827392578125;0.124267578125;-0.53497314453125;-0.11761474609375;2.3872128687776906;17.561779856581996;8.43144876132986;0.9248046875;0.0185546875;-0.41357421875;-22.0625;1.75;23.6875;
1441975379000701;-0.82562255859375;0.13079833984375;-0.5360107421875;-0.118408203125;2.3654865161914285;17.603911108275568;8.358938400851025;0.955078125;0.0478515625;-0.42431640625;-24.25;4.9375;26.1875;
1441975379019702;-0.82354736328125;0.1378173828125;-0.53717041015625;-0.11944580078125;2.3414471554678573;17.648218939241712;8.281159486789704;0.97998046875;0.04833984375;-0.4453125;-24.875;7.6875;29.875;
1441975379037703;-0.82135009765625;0.14501953125;-0.53839111328125;-0.1207275390625;2.316859764041836;17.69241705144369;8.20173663671961;0.98388671875;0.03857421875;-0.44384765625;-27.375;9.375;31.5;
1441975379058705;-0.81884765625;0.1522216796875;-0.5399169921875;-0.12213134765625;2.288299384443058;17.73708979790285;8.12137856060663;0.95849609375;0.0302734375;-0.44287109375;-29.375;10.875;31.625;
1441975379082706;-0.81634521484375;0.1591796875;-0.541259765625;-0.123779296875;2.2619708713377964;17.777984380609;8.04468269877321;0.92919921875;-0.0029296875;-0.40869140625;-30.375;12.1875;30.1875;
1441975379096707;-0.81414794921875;0.16632080078125;-0.542236328125;-0.125;2.2426811962942153;17.825954883150985;7.961875755422657;0.8974609375;0.02001953125;-0.4091796875;-30.0625;12.8125;29.875;
1441975379118708;-0.81201171875;0.173583984375;-0.542724609375;-0.12652587890625;2.229029709079199;17.871078689209945;7.879840247975542;0.8818359375;0.00830078125;-0.43798828125;-29.25;12.3125;31.5;
1441975379139709;-0.8092041015625;0.180908203125;-0.54400634765625;-0.12890625;2.2032202856237606;17.909936570773418;7.800514472099424;0.892578125;0.0146484375;-0.458984375;-30.875;11.25;31.375;
1441975379156710;-0.806396484375;0.18743896484375;-0.5452880859375;-0.1317138671875;2.1763227295730476;17.938105800405907;7.733387129715259;0.9375;0.03076171875;-0.4365234375;-34.25;15.625;31.5;
1441975379178712;-0.80322265625;0.1949462890625;-0.54632568359375;-0.1358642578125;2.1483931813641672;17.95893510313742;7.663749153387665;0.91455078125;0.04931640625;-0.439453125;-33.125;17.625;28.1875;
1441975379199713;-0.800048828125;0.20330810546875;-0.54681396484375;-0.140380859375;2.126376807711353;17.981994311727163;7.586496098294707;0.8828125;0.080078125;-0.41943359375;-41.875;18.125;30.625;
1441975379216714;-0.7974853515625;0.21160888671875;-0.54632568359375;-0.14459228515625;2.118205000322527;0.004711038938700914;7.510702739473083;0.8740234375;0.0673828125;-0.41552734375;-47.25;15.5;32.6875;
1441975379239715;-0.7955322265625;0.2186279296875;-0.5455322265625;-0.14776611328125;2.1174282428195803;0.027215251085716267;7.444691600234725;0.85888671875;0.03076171875;-0.44921875;-47.25;11.75;29.25;
1441975379262716;-0.79412841796875;0.2235107421875;-0.54510498046875;-0.1492919921875;2.117514904488237;0.05202497950077568;7.392412960284938;0.8623046875;-0.01220703125;-0.458984375;-39.25;8.8125;23.3125;
1441975379290718;-0.7933349609375;0.22637939453125;-0.54498291015625;-0.1500244140625;2.117194817837155;0.06905756769018596;7.360071082282426;0.86083984375;-0.03564453125;-0.45263671875;-24.8125;7.875;16.75;
1441975379298718;-0.79278564453125;0.22845458984375;-0.544677734375;-0.15069580078125;2.1187655983031917;0.07870709958833548;7.338570774847412;0.873046875;9.765625E-4;-0.46435546875;-12.75;8.5;12.4375;
1441975379319720;-0.79241943359375;0.23040771484375;-0.5439453125;-0.152099609375;2.123063896938963;0.07599305375014836;7.326737323866065;0.89501953125;0.029296875;-0.4921875;-9.6875;8.875;10.3125;
1441975379342721;-0.792236328125;0.232177734375;-0.54315185546875;-0.1534423828125;2.128840411230578;0.07172796721531448;7.317558659396598;0.8984375;0.04296875;-0.4853515625;-11.9375;7.0625;7.9375;
1441975379365722;-0.7918701171875;0.2332763671875;-0.54290771484375;-0.154541015625;2.1278760614154124;0.06743175533570563;7.312455134127193;0.9013671875;0.01513671875;-0.46484375;-12.1875;4.6875;5.0;
1441975379381723;-0.79168701171875;0.233154296875;-0.5430908203125;-0.1549072265625;2.1238231032778394;0.06304491960183543;7.315875617355885;0.89208984375;-0.01513671875;-0.4140625;-9.125;4.6875;1.125;
1441975379396724;-0.791748046875;0.23187255859375;-0.54364013671875;-0.15447998046875;2.1179130934213464;0.05940947190825562;7.326976948954743;0.86328125;-0.0146484375;-0.404296875;-1.375;6.5625;-1.75;
1441975379418725;-0.7921142578125;0.22979736328125;-0.54412841796875;-0.15411376953125;2.1127554041111476;0.04710667931195398;7.349923364673581;0.84521484375;-0.001953125;-0.396484375;6.75;7.4375;-3.8125;
1441975379441727;-0.79254150390625;0.22747802734375;-0.5445556640625;-0.15399169921875;2.1074926806750596;0.02914980326326075;7.378521611659146;0.85986328125;0.04345703125;-0.4033203125;10.4375;7.0;-5.0625;
1441975379455727;-0.79278564453125;0.22515869140625;-0.54510498046875;-0.154052734375;2.099633352467114;0.009662860819875111;7.407853182876904;0.87939453125;0.05810546875;-0.4072265625;10.0625;6.875;-6.0625;
1441975379479729;-0.79278564453125;0.2227783203125;-0.5460205078125;-0.15423583984375;2.0866443202718217;17.989795435768507;7.437457427699696;0.93359375;0.07421875;-0.41650390625;9.875;7.75;-5.9375;
1441975379508730;-0.792724609375;0.220458984375;-0.54693603515625;-0.15472412109375;2.0727716917654284;17.96638426751428;7.469081251099585;1.0;0.076171875;-0.42822265625;9.6875;9.625;-5.5;
1441975379515731;-0.7926025390625;0.21832275390625;-0.54766845703125;-0.15570068359375;2.059502917625053;17.937447748435865;7.503293675735156;1.01904296875;0.0771484375;-0.4228515625;8.0;9.625;-6.375;
1441975379537732;-0.7926025390625;0.21685791015625;-0.5478515625;-0.15716552734375;2.0521715060865113;17.90578718676855;7.535156871743785;0.98974609375;0.07275390625;-0.38037109375;4.5;7.125;-7.6875;
1441975379560733;-0.79266357421875;0.2154541015625;-0.54791259765625;-0.15850830078125;2.046949705088383;17.875554692025318;7.565766453038486;0.9462890625;0.0400390625;-0.35498046875;-1.125;4.125;-9.375;
1441975379576734;-0.79302978515625;0.21331787109375;-0.54791259765625;-0.1595458984375;2.0441353678871543;17.841697337768203;7.604385212359165;0.9111328125;-0.0166015625;-0.3251953125;-2.5;2.0;-12.625;
1441975379605736;-0.7938232421875;0.21026611328125;-0.5478515625;-0.1597900390625;2.045405654881734;17.808849197633283;7.649176889327295;0.892578125;-0.03564453125;-0.31005859375;1.125;0.3125;-16.9375;
1441975379628737;-0.79498291015625;0.20648193359375;-0.547607421875;-0.15997314453125;2.0503874812836713;17.769051004231635;7.704269078707991;0.9111328125;-0.029296875;-0.32470703125;7.9375;-0.5;-19.125;
1441975379644738;-0.79632568359375;0.202392578125;-0.5469970703125;-0.16064453125;2.059351380516284;17.71912211780551;7.768568949140888;0.96923828125;0.013671875;-0.36474609375;11.3125;-0.8125;-20.375;
1441975379659739;-0.79779052734375;0.19830322265625;-0.54595947265625;-0.16180419921875;2.0731115018351893;17.662234915323396;7.837563411169653;1.01416015625;0.0390625;-0.384765625;10.3125;-2.1875;-22.6875;
1441975379680740;-0.79931640625;0.1944580078125;-0.54473876953125;-0.16339111328125;2.0895025938925986;17.602433720022166;7.906675793325402;1.05029296875;0.03466796875;-0.39013671875;7.5;-4.5625;-25.75;
1441975379703742;-0.80072021484375;0.1904296875;-0.5435791015625;-0.16485595703125;2.1056075605233975;17.543769052035778;7.97580687993532;1.052734375;0.009765625;-0.3798828125;3.625;-6.125;-28.6875;
1441975379720743;-0.80242919921875;0.18572998046875;-0.54248046875;-0.16546630859375;2.1248144918633796;17.491124708628703;8.045390767516523;1.01513671875;-0.02734375;-0.35693359375;3.6875;-6.375;-31.25;
1441975379740744;-0.80438232421875;0.179931640625;-0.54168701171875;-0.1649169921875;2.1445192992121096;17.445086409605093;8.117961795118681;0.9697265625;-0.03759765625;-0.34814453125;9.8125;-6.625;-33.375;
1441975379779746;-0.80657958984375;0.17340087890625;-0.54095458984375;-0.16363525390625;2.1666080270501196;17.403158232109227;8.192606813223623;0.94775390625;-0.0146484375;-0.35205078125;19.3125;-5.6875;-33.375;
1441975379788746;-0.80902099609375;0.16607666015625;-0.54022216796875;-0.16168212890625;2.191578185325212;17.3641393348354;8.270476104949356;0.9296875;0.025390625;-0.36083984375;26.125;-5.3125;-32.4375;
1441975379801747;-0.8114013671875;0.15802001953125;-0.53985595703125;-0.1590576171875;2.213960098703887;17.328765911986377;8.350659000574213;0.88720703125;0.05322265625;-0.36376953125;32.8125;-5.125;-32.5;
1441975379823748;-0.81365966796875;0.14874267578125;-0.54010009765625;-0.155517578125;2.231297338094143;17.29572292678821;8.437591105168336;0.8583984375;0.06005859375;-0.32958984375;38.25;-4.75;-33.3125;
1441975379838749;-0.81597900390625;0.13824462890625;-0.54071044921875;-0.15081787109375;2.2471058858084962;17.267845624300076;8.529369628760138;0.841796875;0.0712890625;-0.306640625;47.3125;-2.5;-35.0625;
1441975379860751;-0.8179931640625;0.126953125;-0.5419921875;-0.145263671875;2.255752700669666;17.24427967455591;8.623837008116345;0.82861328125;0.07568359375;-0.29638671875;57.0;-1.25;-36.3125;
1441975379882752;-0.81982421875;0.114990234375;-0.54351806640625;-0.138916015625;2.261853427796657;17.22506107159508;8.719959705174164;0.849609375;0.11279296875;-0.27978515625;64.5625;0.9375;-34.9375;
1441975379899753;-0.82159423828125;0.10284423828125;-0.54498291015625;-0.132080078125;2.2685612828854334;17.210621695693057;8.81395716121299;0.884765625;0.1572265625;-0.29052734375;71.4375;2.5;-32.5625;
1441975379920754;-0.82318115234375;0.0906982421875;-0.54638671875;-0.12530517578125;2.2750965611419876;17.19553837563511;8.908195506982256;0.900390625;0.19189453125;-0.2919921875;75.125;2.0;-30.25;
1441975379942755;-0.8243408203125;0.07879638671875;-0.5479736328125;-0.11834716796875;2.277101356167272;17.18403384408718;8.998461239491514;0.9189453125;0.21630859375;-0.283203125;75.4375;0.9375;-28.5625;
1441975379957756;-0.82513427734375;0.067138671875;-0.54986572265625;-0.11138916015625;2.2738587583433043;17.17349019597908;9.086728990855672;0.94775390625;0.2275390625;-0.2705078125;75.5625;1.375;-26.375;
1441975379980757;-0.8255615234375;0.05615234375;-0.55169677734375;-0.10479736328125;2.2685436113269817;17.16312203007902;9.170329094364746;0.99169921875;0.2490234375;-0.275390625;75.125;3.125;-23.875;
1441975380003759;-0.82586669921875;0.0460205078125;-0.55328369140625;-0.0992431640625;2.2649614954142567;17.146956191807874;9.251773633784131;1.00537109375;0.26220703125;-0.267578125;71.375;2.875;-21.1875;
1441975380042761;-0.825927734375;0.03704833984375;-0.55450439453125;-0.09527587890625;2.263947526350028;17.12082838637353;9.331623867842396;0.978515625;0.25830078125;-0.23828125;63.625;0.6875;-20.5625;
1441975380045761;-0.82562255859375;0.029296875;-0.55572509765625;-0.09326171875;2.262136347137378;17.079842209730558;9.41313474936695;0.96533203125;0.24267578125;-0.21337890625;52.3125;-1.625;-21.5;
1441975380063762;-0.82525634765625;0.0228271484375;-0.55670166015625;-0.0928955078125;2.2634642186021394;17.029516419989545;9.491815852675101;0.94873046875;0.22509765625;-0.1826171875;38.3125;-2.0625;-23.0625;
1441975380078763;-0.82489013671875;0.01678466796875;-0.55731201171875;-0.09332275390625;2.269878228169596;16.974136541145363;9.570402115626727;0.92724609375;0.197265625;-0.18310546875;25.4375;-2.75;-24.5625;
1441975380100764;-0.824462890625;0.01116943359375;-0.5579833984375;-0.09417724609375;2.2764287820101137;16.917030129272746;9.647200512629752;0.94384765625;0.1806640625;-0.19970703125;20.0625;-3.6875;-26.75;
1441975380123766;-0.82421875;0.00531005859375;-0.55828857421875;-0.09515380859375;2.289527030523721;16.858817518385543;9.725556796232246;0.9638671875;0.1591796875;-0.20751953125;15.4375;-3.25;-28.25;
1441975380138766;-0.8240966796875;-8.544921875E-4;-0.5582275390625;-0.09637451171875;2.3093866073350484;16.79797475968038;9.806733901193985;0.9697265625;0.17529296875;-0.22216796875;15.875;-4.5625;-29.75;
1441975380160768;-0.824462890625;-0.00628662109375;-0.55731201171875;-0.09893798828125;2.342637539825842;16.73327885087493;9.88311323159044;0.970703125;0.22314453125;-0.24560546875;16.625;-5.3125;-29.375;
1441975380184769;-0.82470703125;-0.0106201171875;-0.5560302734375;-0.10321044921875;2.3813874802118344;16.660130025676022;9.95622678446699;0.95654296875;0.2509765625;-0.26708984375;8.75;-9.625;-29.8125;
1441975380213771;-0.8245849609375;-0.014404296875;-0.55517578125;-0.10821533203125;2.4162249821898913;16.581904526259233;10.029135509122181;0.94140625;0.2412109375;-0.259765625;-3.25;-11.5625;-31.25;
1441975380220771;-0.82440185546875;-0.01800537109375;-0.55438232421875;-0.11309814453125;2.450711734910606;16.50782577174505;10.097638196200077;0.916015625;0.216796875;-0.234375;-9.5;-10.1875;-32.875;
1441975380243772;-0.8240966796875;-0.02117919921875;-0.5537109375;-0.11767578125;2.4822407772972963;16.440563090285494;10.1588125042367;0.90087890625;0.2138671875;-0.2607421875;-10.3125;-7.375;-32.375;
1441975380257773;-0.82391357421875;-0.02392578125;-0.55303955078125;-0.121826171875;2.512371700702878;16.38246692692817;10.210848501227291;0.9169921875;0.2353515625;-0.29931640625;-10.0;-4.6875;-29.0625;
1441975380280775;-0.82373046875;-0.0255126953125;-0.55230712890625;-0.12591552734375;2.5390465882647835;16.333473346593887;10.24920650675556;0.869140625;0.24560546875;-0.3154296875;-9.75;-3.25;-24.875;
1441975380303776;-0.8233642578125;-0.0260009765625;-0.5517578125;-0.130615234375;2.5616069639225656;16.28402607196627;10.28092659587249;0.8720703125;0.259765625;-0.34375;-13.6875;-2.375;-18.6875;
1441975380319777;-0.8226318359375;-0.02630615234375;-0.5518798828125;-0.13446044921875;2.5729444946892572;16.24000001098768;10.310091633519832;0.88525390625;0.27490234375;-0.34423828125;-19.75;-2.4375;-15.375;
1441975380340778;-0.82183837890625;-0.02740478515625;-0.55230712890625;-0.1375732421875;2.5822337100203985;16.197289208838004;10.344337538427135;0.89404296875;0.265625;-0.330078125;-17.0625;1.125;-12.875;
1441975380362779;-0.82159423828125;-0.0286865234375;-0.55218505859375;-0.13922119140625;2.5941798724322678;16.173344486183876;10.366643040062877;0.87890625;0.287109375;-0.33642578125;-10.6875;4.6875;-12.1875;
1441975380385781;-0.82159423828125;-0.02923583984375;-0.5518798828125;-0.14013671875;2.6028566443271273;16.162804289820034;10.375563643243368;0.84912109375;0.28466796875;-0.37451171875;-3.8125;3.5;-8.875;
1441975380400781;-0.82135009765625;-0.02880859375;-0.5521240234375;-0.1409912109375;2.6012014989742624;16.154554754639996;10.37850131888686;0.873046875;0.30322265625;-0.3916015625;-2.1875;2.0;-2.625;
1441975380431783;-0.82098388671875;-0.02752685546875;-0.55242919921875;-0.141845703125;2.5947097383100837;16.150147617448123;10.374036101195122;0.90380859375;0.33154296875;-0.38037109375;-4.4375;3.0625;3.5625;
1441975380453784;-0.8204345703125;-0.02545166015625;-0.55303955078125;-0.14306640625;2.5827509815356433;16.144276057025376;10.36627688496503;0.90625;0.3154296875;-0.38671875;-8.0625;3.625;6.6875;
1441975380460785;-0.820068359375;-0.0228271484375;-0.553466796875;-0.14410400390625;2.5700937023903694;16.145080457333037;10.350332636228613;0.8896484375;0.3193359375;-0.3779296875;-12.0;4.9375;10.125;
1441975380476786;-0.81982421875;-0.01971435546875;-0.55377197265625;-0.14471435546875;2.5552587028177602;16.154145684538943;10.325883465117752;0.8759765625;0.29345703125;-0.3759765625;-13.125;3.25;11.625;
1441975380499787;-0.8193359375;-0.01617431640625;-0.55462646484375;-0.14459228515625;2.529877747388877;16.169433934417334;10.296599938947422;0.89892578125;0.28662109375;-0.37451171875;-13.0625;1.4375;14.6875;
1441975380520788;-0.818603515625;-0.0125732421875;-0.55584716796875;-0.14422607421875;2.4990676806873062;16.185100865684788;10.267756291402495;1.00244140625;0.31787109375;-0.40478515625;-10.75;4.25;20.0625;
1441975380542790;-0.81732177734375;-0.00830078125;-0.55780029296875;-0.14447021484375;2.4588673753511765;16.193050467320397;10.241430153076958;1.0986328125;0.3564453125;-0.43798828125;-9.625;6.8125;22.5625;
1441975380559791;-0.8155517578125;-0.0030517578125;-0.56011962890625;-0.145751953125;2.412980589450317;16.192729336662843;10.215052101925236;1.11669921875;0.35205078125;-0.4296875;-14.9375;10.625;24.0625;
1441975380580792;-0.81353759765625;0.0028076171875;-0.5625;-0.14776611328125;2.3655439644402323;16.18757387000736;10.187948245587375;1.017578125;0.29052734375;-0.39697265625;-24.5;13.9375;23.5625;
1441975380602793;-0.81182861328125;0.00848388671875;-0.56451416015625;-0.1492919921875;2.3217220063083355;16.190276804972367;10.155772467610797;0.88623046875;0.212890625;-0.35595703125;-31.0;15.4375;21.5;
1441975380619794;-0.81036376953125;0.012939453125;-0.56646728515625;-0.149658203125;2.280439807759386;16.19957732681596;10.12690439400567;0.84521484375;0.16748046875;-0.3486328125;-28.875;13.875;20.3125;
1441975380640795;-0.8095703125;0.01519775390625;-0.56793212890625;-0.14788818359375;2.24807194603448;16.223779699356413;10.101024312953689;0.880859375;0.17431640625;-0.3408203125;-19.0;12.5;18.375;
1441975380662796;-0.809326171875;0.016357421875;-0.5689697265625;-0.145263671875;2.223800861668716;16.255336020522666;10.07585912522832;0.87255859375;0.15673828125;-0.3330078125;-1.5;9.8125;14.1875;
1441975380679797;-0.8095703125;0.01727294921875;-0.569091796875;-0.143310546875;2.2135946965261155;16.28483470742973;10.050790543041183;0.84521484375;0.14599609375;-0.298828125;7.0625;5.4375;11.6875;
1441975380700799;-0.80938720703125;0.01971435546875;-0.5689697265625;-0.14422607421875;2.207418800868904;16.291880721691278;10.029835332363485;0.81396484375;0.150390625;-0.28955078125;5.0625;-0.25;8.1875;
1441975380722800;-0.80914306640625;0.02203369140625;-0.56854248046875;-0.14703369140625;2.2105793995500695;16.277517884596282;10.022855493563522;0.83544921875;0.15380859375;-0.27197265625;-12.75;-2.5;5.8125;
1441975380739801;-0.80963134765625;0.024658203125;-0.56707763671875;-0.1497802734375;2.2252911702084903;16.274581414470585;10.003289833423914;0.87890625;0.1396484375;-0.251953125;-21.8125;-5.8125;-2.5625;
1441975380769803;-0.80987548828125;0.02691650390625;-0.5655517578125;-0.15350341796875;2.2439318685801255;16.256888805910076;9.995807763512198;0.9150390625;0.0771484375;-0.3095703125;-24.0;-9.9375;-6.9375;
1441975380782803;-0.810546875;0.02777099609375;-0.56365966796875;-0.15692138671875;2.2724323273877802;16.23653091224148;9.99800479363493;0.98779296875;0.0986328125;-0.29541015625;-27.0;-12.0;-11.9375;
1441975380799804;-0.811279296875;0.02813720703125;-0.56146240234375;-0.160888671875;2.3077448447781848;16.208687392977755;10.007283008857224;0.99609375;0.0966796875;-0.330078125;-21.5;-11.9375;-18.1875;
1441975380820805;-0.81195068359375;0.02862548828125;-0.55926513671875;-0.164794921875;2.3420942809960708;16.182561651633744;10.01453506783086;0.912109375;0.08203125;-0.3173828125;-22.3125;-12.25;-22.5625;
1441975380842807;-0.81280517578125;0.02874755859375;-0.55706787109375;-0.168212890625;2.377207501349574;16.160620640009;10.021187544905024;0.84423828125;0.0693359375;-0.2802734375;-22.6875;-13.1875;-21.875;
1441975380867808;-0.81390380859375;0.028076171875;-0.55462646484375;-0.171142578125;2.417225880993756;16.141406070522372;10.030349485324987;0.85302734375;0.0732421875;-0.29150390625;-19.125;-13.25;-22.4375;
1441975380880809;-0.81463623046875;0.0272216796875;-0.5526123046875;-0.17425537109375;2.453120902080836;16.11592312581389;10.045802093485197;0.849609375;0.11181640625;-0.33056640625;-14.0625;-12.125;-22.5;
1441975380904810;-0.81524658203125;0.02569580078125;-0.55084228515625;-0.1771240234375;2.4883125671826156;16.087736288809445;10.067776333385504;0.8466796875;0.15673828125;-0.322265625;-13.5;-9.4375;-21.25;
1441975380919811;-0.815673828125;0.02325439453125;-0.5491943359375;-0.1805419921875;2.527667996868419;16.047832738753957;10.102924978548502;0.84326171875;0.18798828125;-0.32861328125;-10.0625;-6.9375;-21.5;
1441975380940812;-0.81561279296875;0.01983642578125;-0.54833984375;-0.1837158203125;2.5615816327842964;15.999864733069424;10.151334462796447;0.86474609375;0.23193359375;-0.34228515625;-9.0625;-4.1875;-25.4375;
1441975380962814;-0.8153076171875;0.01568603515625;-0.5482177734375;-0.1859130859375;2.5882167043388145;15.953933814028192;10.205033151012891;0.8564453125;0.24267578125;-0.326171875;-5.0;0.8125;-28.25;
1441975380979815;-0.81463623046875;0.01177978515625;-0.54864501953125;-0.18780517578125;2.606852222789157;15.908779420983514;10.25832477995703;0.837890625;0.26611328125;-0.322265625;2.25;5.9375;-26.4375;
1441975381000816;-0.81341552734375;0.00811767578125;-0.5498046875;-0.1900634765625;2.61793591429442;15.855738649973572;10.317105987496213;0.83837890625;0.2822265625;-0.34130859375;2.0;10.5;-23.3125;
1441975381022817;-0.811767578125;0.00372314453125;-0.55145263671875;-0.1923828125;2.6278435070700032;15.79408375635304;10.38730419650393;0.8544921875;0.283203125;-0.32568359375;-0.5;14.5625;-23.0;
1441975381046818;-0.81005859375;-0.00189208984375;-0.5535888671875;-0.1934814453125;2.6354799513394944;15.735149681918386;10.465092578975334;0.8642578125;0.2705078125;-0.318359375;0.375;18.3125;-27.625;
1441975381060819;-0.80877685546875;-0.00823974609375;-0.55548095703125;-0.1932373046875;2.6458493195794324;15.688905947857641;10.538856011499332;0.8701171875;0.23193359375;-0.3134765625;8.875;22.3125;-31.9375;
1441975381082820;-0.806640625;-0.01580810546875;-0.55865478515625;-0.1925048828125;2.6476627345985424;15.62974193668926;10.632834006955797;0.87109375;0.16552734375;-0.31396484375;16.3125;20.5625;-35.875;
1441975381099821;-0.804931640625;-0.02752685546875;-0.5616455078125;-0.1895751953125;2.666002888001353;15.574629487430709;10.74911658357091;0.86181640625;0.130859375;-0.23046875;22.1875;26.25;-40.875;
1441975381120823;-0.8038330078125;-0.04168701171875;-0.563232421875;-0.18695068359375;2.714641198321302;15.51974690749126;10.87370709572194;0.8359375;0.1943359375;-0.26611328125;46.5625;31.625;-49.1875;
1441975381142824;-0.80267333984375;-0.05584716796875;-0.56439208984375;-0.1849365234375;2.7716255721082206;15.465318892791256;10.995247617397366;0.810546875;0.3115234375;-0.2763671875;55.9375;27.3125;-55.6875;
1441975381159825;-0.80084228515625;-0.07037353515625;-0.566650390625;-0.18096923828125;2.811568634631193;15.417661040433776;11.119966793719492;0.84912109375;0.3330078125;-0.283203125;53.3125;24.8125;-58.375;
1441975381180826;-0.7987060546875;-0.0845947265625;-0.56964111328125;-0.174560546875;2.83125148514288;15.385575486010229;11.23825875348456;0.9775390625;0.337890625;-0.30810546875;61.375;31.875;-56.8125;
1441975381203827;-0.79644775390625;-0.09722900390625;-0.57269287109375;-0.16851806640625;2.843819548654604;15.355812143592164;11.346126644091234;1.11083984375;0.41259765625;-0.3701171875;70.6875;38.3125;-46.0625;
1441975381219828;-0.7930908203125;-0.10931396484375;-0.576171875;-0.164794921875;2.861955714165476;15.301820499404503;11.466150485076469;1.05517578125;0.4091796875;-0.3310546875;64.6875;36.0625;-38.9375;
1441975381240829;-0.78924560546875;-0.12078857421875;-0.5794677734375;-0.16351318359375;2.8935133666477957;15.231729949151251;11.589478404542763;0.89990234375;0.39013671875;-0.19482421875;53.75;34.8125;-42.0;
1441975381264831;-0.78521728515625;-0.13055419921875;-0.58245849609375;-0.16497802734375;2.935949306110915;15.150571898425913;11.70524745921221;0.80126953125;0.4248046875;-0.1689453125;41.25;34.0;-43.4375;
1441975381278832;-0.78131103515625;-0.13824462890625;-0.585205078125;-0.16754150390625;2.976721859079083;15.072228800216596;11.80495302253239;0.74609375;0.435546875;-0.15673828125;23.6875;30.4375;-44.125;
1441975381300833;-0.7784423828125;-0.14361572265625;-0.58734130859375;-0.16900634765625;3.002978057208193;15.018588459470418;11.874907992281813;0.74462890625;0.4462890625;-0.1474609375;12.0;26.1875;-38.375;
1441975381323834;-0.7767333984375;-0.14678955078125;-0.58843994140625;-0.17010498046875;3.0216321420938663;14.986981635854894;11.915173949941392;0.79931640625;0.50439453125;-0.23974609375;8.8125;23.625;-22.75;
1441975381338835;-0.77520751953125;-0.14739990234375;-0.59039306640625;-0.16973876953125;3.0086080171659146;14.964728628515632;11.941553730009707;0.8056640625;0.52099609375;-0.275390625;3.9375;15.375;-11.1875;
1441975381360836;-0.77423095703125;-0.14532470703125;-0.59246826171875;-0.16888427734375;2.9744396447601047;14.953040672542654;11.948200928878705;0.83740234375;0.40869140625;-0.16357421875;2.5625;10.1875;-1.75;
1441975381382838;-0.772705078125;-0.13604736328125;-0.59637451171875;-0.16973876953125;2.890654342696667;14.928003076883217;11.931027335529782;0.7880859375;0.27490234375;-0.18212890625;-7.0;8.875;6.0;
1441975381398839;-0.77020263671875;-0.12530517578125;-0.60125732421875;-0.17236328125;2.8009889722043613;14.880620643062114;11.922860790570143;0.76171875;0.25244140625;-0.19091796875;-41.5;12.125;33.625;
1441975381421840;-0.7667236328125;-0.11669921875;-0.60662841796875;-0.1749267578125;2.721047339430972;14.81689414326769;11.94032795105825;0.8515625;0.2861328125;-0.15771484375;-54.875;14.1875;34.3125;
1441975381442841;-0.76251220703125;-0.10943603515625;-0.61279296875;-0.1767578125;2.6402303364066704;14.740670807535428;11.979087588270083;0.81396484375;0.2177734375;-0.08984375;-47.8125;19.4375;22.125;
1441975381458842;-0.75823974609375;-0.1029052734375;-0.61871337890625;-0.17816162109375;2.563873922204036;14.663611734345658;12.023553689798804;0.75341796875;0.2275390625;-0.0361328125;-39.75;25.5625;21.9375;
1441975381481843;-0.75445556640625;-0.09661865234375;-0.623779296875;-0.18011474609375;2.4994295587453372;14.5905148937113;12.06280007471716;0.69287109375;0.302734375;-0.03857421875;-34.4375;27.375;26.875;
1441975381502844;-0.75079345703125;-0.08721923828125;-0.62921142578125;-0.18145751953125;2.4070811638057696;14.522060394828868;12.08728257482996;0.61865234375;0.4072265625;-0.0361328125;-34.1875;23.5625;32.125;
1441975381518845;-0.7481689453125;-0.0755615234375;-0.6334228515625;-0.1827392578125;2.305625344763152;14.475828584005013;12.08058469933312;0.62158203125;0.29150390625;0.03076171875;-42.375;18.0;41.1875;
1441975381549847;-0.74530029296875;-0.06201171875;-0.6380615234375;-0.18353271484375;2.1841479248635687;14.42862574643955;12.069349904600951;0.60302734375;0.28515625;-0.02197265625;-50.4375;10.5625;51.625;
1441975381562848;-0.7430419921875;-0.052001953125;-0.6422119140625;-0.18133544921875;2.0707844348150495;14.40181385601196;12.064793399797;0.68798828125;0.248046875;0.01025390625;-55.0;9.3125;57.875;
1441975381578849;-0.7418212890625;-0.04241943359375;-0.6448974609375;-0.17901611328125;1.9682361499187173;14.400681548026432;12.036749689385513;0.732421875;0.27685546875;-0.013671875;-29.5;11.5625;55.125;
1441975381601850;-0.740966796875;-0.0311279296875;-0.64678955078125;-0.17822265625;1.8682476828765684;14.408517263464027;11.986437335415047;0.748046875;0.27197265625;-0.09326171875;-27.4375;7.3125;53.0;
1441975381622851;-0.7401123046875;-0.01708984375;-0.64801025390625;-0.17926025390625;1.7641952160732364;14.423319724566804;11.91033060150677;0.76025390625;0.2841796875;-0.06103515625;-39.1875;-1.375;55.4375;
1441975381640852;-0.739501953125;-0.0018310546875;-0.64825439453125;-0.181640625;1.6661383462281847;14.453016664394504;11.80872323023657;0.79931640625;0.25244140625;-0.0498046875;-56.6875;-8.125;57.6875;
1441975381669854;-0.73895263671875;0.01416015625;-0.64764404296875;-0.18548583984375;1.5779786170193317;14.493111927627613;11.687558594842447;0.841796875;0.23681640625;-0.04736328125;-66.6875;-15.1875;55.75;
1441975381682855;-0.73846435546875;0.0299072265625;-0.64642333984375;-0.18975830078125;1.4988150911086882;14.546002797163684;11.552702248469052;0.86474609375;0.15478515625;-0.04296875;-76.125;-20.0;47.875;
1441975381698856;-0.73828125;0.04388427734375;-0.6446533203125;-0.19366455078125;1.4349534235697792;14.613145609315385;11.41218756995593;0.86865234375;0.1025390625;-0.03076171875;-77.0;-23.5625;41.8125;
1441975381721857;-0.7384033203125;0.05584716796875;-0.6424560546875;-0.1973876953125;1.3889032130951875;14.687026792587819;11.273777074185894;0.87451171875;0.10546875;-0.052734375;-68.75;-23.5;35.9375;
1441975381742858;-0.73883056640625;0.06549072265625;-0.6400146484375;-0.20098876953125;1.3619574248384312;14.758210316610386;11.147960691930269;0.9189453125;0.17626953125;-0.06005859375;-60.125;-24.375;32.125;
1441975381758859;-0.7386474609375;0.075439453125;-0.63775634765625;-0.20513916015625;1.3344019365525601;14.817844484444246;11.029972808287825;0.9501953125;0.3017578125;-0.07568359375;-50.0625;-23.0625;31.1875;
1441975381781860;-0.737060546875;0.0858154296875;-0.63690185546875;-0.20941162109375;1.2916913799450134;14.84466868949983;10.94264030299545;0.974609375;0.2607421875;-0.0810546875;-54.625;-20.25;28.25;
1441975381802862;-0.73516845703125;0.0958251953125;-0.63653564453125;-0.212646484375;1.2412461001172532;14.87503104385861;10.85757366676408;0.96337890625;0.18408203125;-0.04931640625;-57.4375;-11.875;26.875;
1441975381818863;-0.7332763671875;0.10504150390625;-0.6363525390625;-0.2154541015625;1.1925577282243784;14.905369608277983;10.777596518978982;0.953125;0.12353515625;-0.06591796875;-52.75;-7.1875;26.75;
1441975381849864;-0.73162841796875;0.11260986328125;-0.63623046875;-0.2176513671875;1.1516290855228568;14.933578650297914;10.709028036697497;0.94775390625;0.09326171875;-0.05859375;-48.0625;-6.125;23.5625;
1441975381862865;-0.73004150390625;0.11956787109375;-0.6361083984375;-0.2196044921875;1.1136016080795583;14.96274291269443;10.642972241358308;0.9736328125;0.12451171875;-0.0390625;-38.75;-6.3125;21.4375;
1441975381879866;-0.72857666015625;0.1253662109375;-0.63629150390625;-0.22064208984375;1.0763154468083806;14.993054491230934;10.58440676243348;1.0517578125;0.10888671875;-0.03857421875;-35.125;-6.4375;17.9375;
1441975381901867;-0.72796630859375;0.1290283203125;-0.6363525390625;-0.22027587890625;1.0491596888540833;15.037694377089764;10.526219937253696;1.10693359375;0.05908203125;-0.0751953125;-27.75;-2.875;13.0;
1441975381922868;-0.7275390625;0.13250732421875;-0.636474609375;-0.2193603515625;1.0209819313415698;15.094551622765072;10.458954001193991;1.1162109375;0.06884765625;-0.11376953125;-13.375;-1.875;9.75;
1441975381938869;-0.72674560546875;0.13604736328125;-0.63714599609375;-0.21795654296875;0.9848091765066176;15.150856095447596;10.394114612789057;1.07470703125;0.0478515625;-0.13427734375;-10.3125;-0.625;10.1875;
1441975381961871;-0.7259521484375;0.13763427734375;-0.6380615234375;-0.21697998046875;0.9604946521882705;15.167595722903647;10.37509792798801;1.0703125;0.03466796875;-0.111328125;-8.8125;0.75;13.0;
1441975381991872;-0.725341796875;0.137939453125;-0.63873291015625;-0.21673583984375;0.9497976181168497;15.156468550971994;10.386047394227985;1.06396484375;0.07666015625;-0.0810546875;-2.0625;2.6875;6.9375;
1441975381998873;-0.72467041015625;0.1405029296875;-0.6387939453125;-0.217041015625;0.9331100095980034;15.179839336706953;10.350767063641042;1.02001953125;0.15478515625;-0.08544921875;-0.1875;3.6875;4.25;
1441975382021874;-0.72332763671875;0.1446533203125;-0.63934326171875;-0.21734619140625;0.9008935024677834;15.212242131194506;10.30003235433834;0.9951171875;0.13232421875;-0.08837890625;-11.75;-0.1875;9.8125;
1441975382042875;-0.72235107421875;0.1488037109375;-0.63934326171875;-0.2176513671875;0.8746626520535896;15.263243952256518;10.230515107437851;1.02880859375;0.07958984375;-0.0615234375;-17.625;0.0;13.9375;
1441975382058876;-0.7213134765625;0.15380859375;-0.6385498046875;-0.219970703125;0.8593367803673719;15.299586530336324;10.163505614937844;1.03173828125;0.07568359375;-0.087890625;-17.9375;-1.75;13.0625;
1441975382081878;-0.71942138671875;0.16143798828125;-0.63720703125;-0.224609375;0.8408216238475146;15.328890995595508;10.082665468534401;1.037109375;0.10546875;-0.0458984375;-29.75;-7.125;10.6875;
1441975382102879;-0.716796875;0.1717529296875;-0.63543701171875;-0.2301025390625;0.8119300337783377;15.390092532745838;9.954823278132526;1.041015625;0.09423828125;0.01123046875;-49.9375;-11.0;12.5;
1441975382118880;-0.71392822265625;0.18310546875;-0.63372802734375;-0.235107421875;0.7750504219204729;15.49000355452656;9.785948448757118;1.0380859375;0.02294921875;0.01708984375;-65.0625;-13.75;16.125;
1441975382141881;-0.7110595703125;0.19378662109375;-0.63214111328125;-0.23944091796875;0.739235542316804;15.60371864013541;9.60865512463601;1.0908203125;-0.02734375;-0.01953125;-67.5625;-12.0625;19.1875;
1441975382162882;-0.70819091796875;0.2034912109375;-0.631103515625;-0.2425537109375;0.7006577868250882;15.735361749216963;9.422631835048469;1.189453125;-0.017578125;-0.0361328125;-62.4375;-10.5625;19.8125;
1441975382178883;-0.70416259765625;0.213134765625;-0.63134765625;-0.24530029296875;0.6453379175990327;15.861063556170523;9.24437687727348;1.27197265625;0.00732421875;-0.04150390625;-53.3125;-8.8125;22.75;
1441975382218885;-0.70025634765625;0.22320556640625;-0.631591796875;-0.2470703125;0.5892452752077857;16.06933413838007;8.985852082467874;1.28466796875;0.01318359375;-0.05517578125;-51.5625;1.625;28.1875;
1441975382231886;-0.69488525390625;0.23626708984375;-0.63153076171875;-0.25018310546875;0.5257452771693127;16.373575753814105;8.612422069144955;1.2939453125;0.0146484375;-0.07373046875;-48.875;1.0;34.375;
1441975382238887;-0.68878173828125;0.25006103515625;-0.6317138671875;-0.25311279296875;0.4631806747840065;16.803983336545002;8.11008631648676;1.25927734375;0.01318359375;-0.08447265625;-67.5625;3.4375;44.4375;
1441975382261888;-0.6826171875;0.2623291015625;-0.6324462890625;-0.255615234375;0.41021595774908065;17.306239350085814;7.5440357729805685;1.23828125;-0.01171875;-0.08251953125;-70.375;6.25;49.125;
1441975382282889;-0.67694091796875;0.27227783203125;-0.6331787109375;-0.25848388671875;0.37184068794456765;17.77204432278672;7.022547544113425;1.26953125;-0.0087890625;-0.0634765625;-62.375;9.5;47.25;
1441975382298890;-0.6717529296875;0.28076171875;-0.63372802734375;-0.26153564453125;0.34529148410288046;0.21319806674969802;6.530999946591544;1.333984375;0.09326171875;-0.08349609375;-53.9375;13.0;44.3125;
1441975382321891;-0.6669921875;0.28961181640625;-0.63336181640625;-0.26483154296875;0.33853106729960425;0.6645990286261959;6.026163847042608;1.37255859375;0.04296875;-0.09912109375;-49.5625;14.1875;34.125;
1441975382351893;-0.66351318359375;0.296142578125;-0.63238525390625;-0.2686767578125;0.33641268529539525;0.8936805763321066;5.75131401383184;1.40478515625;-0.05712890625;-0.12744140625;-52.5625;11.1875;26.6875;
1441975382358893;-0.6629638671875;0.29766845703125;-0.6302490234375;-0.2734375;0.3299039788341102;0.6349593822150326;5.98232949329215;1.373046875;0.037109375;-0.078125;-44.9375;5.3125;19.625;
1441975382381895;-0.66717529296875;0.29864501953125;-0.62359619140625;-0.27728271484375;0.3933218442107074;0.1034010409551035;6.492009777926032;1.3779296875;0.18896484375;-0.0810546875;-27.5;-0.25;0.875;
1441975382404896;-0.67230224609375;0.296630859375;-0.6156005859375;-0.2847900390625;0.4694755205424481;17.374934322976106;7.195396526104818;1.39404296875;0.283203125;-0.56689453125;-21.375;-1.875;-7.6875;
1441975382418897;-0.671630859375;0.29833984375;-0.6116943359375;-0.29290771484375;0.48777976090344605;17.02211995262133;7.504255313011126;1.3740234375;0.521484375;-0.310546875;-24.625;-18.5;-20.875;
1441975382441898;-0.66064453125;0.3079833984375;-0.6219482421875;-0.2862548828125;0.35964657882028694;0.2228029790104991;6.291320085683851;1.6298828125;0.2333984375;0.10302734375;-43.5625;-18.25;-13.5625;
1441975382473900;-0.668701171875;0.29693603515625;-0.6170654296875;-0.28973388671875;0.42253244160327735;17.170705195594675;7.376667003261611;1.71240234375;-0.50927734375;0.0576171875;-11.4375;38.4375;60.375;
1441975382478900;-0.673828125;0.29248046875;-0.6114501953125;-0.294189453125;0.5057906762802536;16.694807367622307;7.851742848097204;1.37060546875;0.630859375;-0.36962890625;33.4375;-3.9375;-33.375;
1441975382501902;-0.67840576171875;0.2869873046875;-0.60675048828125;-0.298828125;0.5887326254120214;16.305590883091124;8.243907140498063;1.548828125;0.14794921875;-0.14501953125;-1.875;-23.0625;-44.9375;
1441975382530903;-0.68438720703125;0.27911376953125;-0.6053466796875;-0.295654296875;0.6546346530997565;16.20802042429819;8.389972108198942;1.70458984375;0.05322265625;-0.1845703125;0.6875;-14.375;-56.125;
1441975382546904;-0.69146728515625;0.26617431640625;-0.605712890625;-0.29022216796875;0.7221035132372146;16.055961712014316;8.622455018210289;1.693359375;-0.146484375;-0.17529296875;45.8125;-16.6875;-50.375;
1441975382561905;-0.69781494140625;0.2523193359375;-0.6058349609375;-0.28704833984375;0.7972811107965871;15.841911547262153;8.910421439860544;1.677734375;0.05322265625;-0.1708984375;78.125;-9.625;-48.1875;
1441975382584906;-0.70294189453125;0.2430419921875;-0.60443115234375;-0.28564453125;0.8704457986905516;15.729766224338896;9.068449986182776;1.64892578125;0.23779296875;-0.18994140625;71.6875;-1.6875;-47.6875;
1441975382605908;-0.70635986328125;0.23822021484375;-0.60247802734375;-0.285400390625;0.9254321851924798;15.688458390888293;9.131078199546002;1.58447265625;0.18017578125;-0.27392578125;43.6875;-2.9375;-41.25;
1441975382621908;-0.709228515625;0.23260498046875;-0.6019287109375;-0.2840576171875;0.9653107439422629;15.64371436564215;9.20558949897479;1.55078125;0.07666015625;-0.26171875;18.9375;-6.0;-34.25;
1441975382644910;-0.71221923828125;0.22479248046875;-0.6031494140625;-0.28021240234375;0.992512302062714;15.603055618414007;9.296632454530606;1.50341796875;0.04541015625;-0.20654296875;27.375;-2.4375;-32.5625;
1441975382665911;-0.7142333984375;0.21875;-0.60491943359375;-0.2760009765625;1.0011105563412508;15.589947554018298;9.354186461298477;1.43310546875;0.11669921875;-0.19140625;48.1875;3.625;-25.6875;
1441975382681912;-0.71478271484375;0.21551513671875;-0.60711669921875;-0.27215576171875;0.9869679171384659;15.60011525149314;9.374898262363779;1.33203125;0.10791015625;-0.16845703125;42.8125;5.375;-14.5625;
1441975382705913;-0.7149658203125;0.2138671875;-0.6090087890625;-0.268798828125;0.9681958643352452;15.628326419145537;9.368698599869628;1.24853515625;0.10205078125;-0.14892578125;30.125;7.625;-0.9375;
1441975382726914;-0.71527099609375;0.21368408203125;-0.60992431640625;-0.26617431640625;0.9547424344620118;15.68045772321313;9.328990335002345;1.1015625;0.10498046875;-0.15771484375;21.6875;7.6875;5.1875;
1441975382749916;-0.7154541015625;0.21563720703125;-0.61041259765625;-0.26300048828125;0.9346248395227852;15.79398904162765;9.22105342182663;0.93505859375;0.103515625;-0.13671875;12.3125;1.5625;8.75;
1441975382764917;-0.716552734375;0.21875;-0.6099853515625;-0.25823974609375;0.9218407942869632;15.994496768838575;9.027772292457659;0.81201171875;0.04541015625;-0.0751953125;6.875;-6.875;16.1875;
1441975382786918;-0.7186279296875;0.2232666015625;-0.608642578125;-0.2518310546875;0.9216892020818601;16.287319931734103;8.743192759398896;0.72314453125;0.025390625;-0.0439453125;9.6875;-19.1875;24.0625;
1441975382801919;-0.72088623046875;0.2269287109375;-0.60760498046875;-0.24444580078125;0.929778242794034;16.58370465737919;8.46272789357749;0.6396484375;-0.0224609375;-0.07373046875;11.25;-28.4375;30.5625;
1441975382824920;-0.72314453125;0.22943115234375;-0.607177734375;-0.236328125;0.942339806885766;16.865037580560156;8.205395772289318;0.59423828125;-0.06787109375;-0.0478515625;18.8125;-29.375;28.75;
1441975382852922;-0.7264404296875;0.230712890625;-0.6055908203125;-0.22894287109375;0.9804782325370023;17.09003255214763;8.00612049114318;0.56103515625;-0.0673828125;-0.009765625;26.6875;-29.125;27.6875;
1441975382861922;-0.7313232421875;0.23187255859375;-0.60162353515625;-0.22247314453125;1.055160395238095;17.266145998466634;7.851644752088139;0.4814453125;-0.0068359375;-0.01953125;28.5;-33.375;22.5;
1441975382884924;-0.73681640625;0.2342529296875;-0.59588623046875;-0.21722412109375;1.1521592099837288;17.408749915462863;7.719776360271359;0.3662109375;0.03173828125;-0.0458984375;24.25;-45.0625;16.625;
1441975382912925;-0.7421875;0.23809814453125;-0.5892333984375;-0.21295166015625;1.2584810955771228;17.531060607020486;7.597438778229354;0.29931640625;0.05224609375;-0.04736328125;13.625;-54.0;16.125;
1441975382921926;-0.7474365234375;0.2421875;-0.582275390625;-0.2091064453125;1.3680446048450965;17.628970185527606;7.496348291793293;0.29443359375;0.041015625;-0.03955078125;3.125;-58.625;17.125;
1441975382944927;-0.7525634765625;0.2462158203125;-0.5751953125;-0.20550537109375;1.4786162709762543;17.706896661901688;7.414204636004519;0.33251953125;0.048828125;-0.0693359375;-0.125;-58.25;17.625;
1441975382965928;-0.75836181640625;0.2498779296875;-0.567138671875;-0.2021484375;1.6021539042818522;17.759208063187856;7.3577354280077785;0.3759765625;0.07958984375;-0.10693359375;-0.375;-56.6875;18.375;
1441975382981929;-0.7642822265625;0.25372314453125;-0.55828857421875;-0.19970703125;1.7320925279801154;17.78848238812133;7.31914105107221;0.41015625;0.10498046875;-0.1640625;-0.6875;-60.0;15.1875;
1441975383004930;-0.76983642578125;0.25750732421875;-0.54925537109375;-0.198486328125;1.8583105310602428;17.79550625667953;7.297530535404908;0.43408203125;0.107421875;-0.21337890625;-5.75;-60.25;12.4375;
1441975383025932;-0.77520751953125;0.26031494140625;-0.540283203125;-0.198486328125;1.9781757143044905;17.77589416878361;7.301391341120209;0.49072265625;0.10498046875;-0.2490234375;-11.6875;-57.9375;8.375;
1441975383041932;-0.7799072265625;0.26336669921875;-0.53167724609375;-0.1993408203125;2.088708740328798;17.751548288730046;7.305243230244279;0.53955078125;0.1357421875;-0.267578125;-13.3125;-54.875;2.3125;
1441975383071934;-0.7835693359375;0.267822265625;-0.523193359375;-0.20159912109375;2.1901751942538157;17.72551589500115;7.298530127808734;0.5732421875;0.119140625;-0.28857421875;-18.75;-50.25;0.625;
1441975383092935;-0.78692626953125;0.271484375;-0.5147705078125;-0.205322265625;2.2844505115315314;17.6773086398284;7.310932081617824;0.63720703125;0.0849609375;-0.3193359375;-30.875;-46.6875;1.375;
1441975383101936;-0.79034423828125;0.27294921875;-0.50689697265625;-0.209716796875;2.3699615116595094;17.608352282673987;7.35076957048174;0.6953125;0.06201171875;-0.35986328125;-36.1875;-41.9375;-7.6875;
1441975383124937;-0.79351806640625;0.272705078125;-0.50006103515625;-0.21441650390625;2.4426558206167424;17.529973828210956;7.406545132220575;0.73046875;0.05029296875;-0.37109375;-32.375;-37.3125;-20.375;
1441975383152939;-0.7965087890625;0.2708740234375;-0.4940185546875;-0.21966552734375;2.5056939559671876;17.439814990700157;7.478966053276305;0.76220703125;0.03125;-0.4169921875;-28.5625;-27.625;-29.8125;
1441975383161939;-0.79949951171875;0.2677001953125;-0.48907470703125;-0.2237548828125;2.5615267587146446;17.359048288179917;7.553294273370352;0.77392578125;0.05224609375;-0.43505859375;-25.3125;-20.25;-36.5;
1441975383183941;-0.80279541015625;0.26275634765625;-0.4849853515625;-0.22662353515625;2.6142573374082856;17.283929528749276;7.635301199597403;0.779296875;0.02880859375;-0.47412109375;-15.9375;-14.0;-40.375;
1441975383205942;-0.80670166015625;0.25494384765625;-0.48199462890625;-0.22796630859375;2.6639797088082555;17.210350815248404;7.735412756833943;0.8212890625;0.02734375;-0.49951171875;-4.125;-10.5;-45.4375;
1441975383221943;-0.8106689453125;0.2451171875;-0.4801025390625;-0.22882080078125;2.7067147816289907;17.13301857022882;7.850788176391778;0.892578125;0.0712890625;-0.5068359375;13.8125;-7.5;-52.625;
1441975383243944;-0.8143310546875;0.234619140625;-0.478759765625;-0.2296142578125;2.7454182650085883;17.055289797117965;7.969842259787967;1.00390625;0.13232421875;-0.48486328125;25.125;-5.9375;-57.3125;
1441975383265945;-0.8179931640625;0.22454833984375;-0.47711181640625;-0.2301025390625;2.789790622690775;16.986136668212314;8.079484109706732;1.09326171875;0.20166015625;-0.45361328125;29.4375;-6.8125;-56.75;
1441975383280946;-0.8216552734375;0.21484375;-0.47509765625;-0.23046875;2.8397807096107983;16.923286197990752;8.1814368309377;1.12255859375;0.251953125;-0.4013671875;31.0625;-13.5;-52.6875;
1441975383303947;-0.82525634765625;0.205810546875;-0.47271728515625;-0.2308349609375;2.89421186238116;16.86732690525862;8.273350689307767;1.1083984375;0.2939453125;-0.36767578125;31.6875;-18.25;-49.1875;
1441975383326949;-0.82891845703125;0.1973876953125;-0.46942138671875;-0.2315673828125;2.9587831590947484;16.814297345619483;8.357412420701081;1.11279296875;0.31591796875;-0.3681640625;29.6875;-21.125;-46.375;
1441975383341950;-0.83251953125;0.190185546875;-0.4654541015625;-0.23272705078125;3.0292387893925703;16.767110508421478;8.428197695514232;1.08740234375;0.3359375;-0.369140625;25.75;-25.8125;-45.0;
1441975383363951;-0.8358154296875;0.1842041015625;-0.461181640625;-0.234375;3.100167736813527;16.724296249707546;8.48706209087904;1.0361328125;0.34765625;-0.32763671875;20.25;-31.3125;-40.9375;
1441975383386952;-0.83868408203125;0.17889404296875;-0.4569091796875;-0.23638916015625;3.16850507867141;16.68315806525097;8.539593742431034;0.99267578125;0.33349609375;-0.31787109375;13.625;-32.6875;-37.6875;
1441975383401953;-0.841064453125;0.1748046875;-0.45257568359375;-0.23944091796875;3.2337215466256053;16.639889236750548;8.584515675092044;0.9287109375;0.35302734375;-0.3427734375;9.875;-29.1875;-33.375;
1441975383423954;-0.84246826171875;0.1724853515625;-0.44903564453125;-0.24273681640625;3.282979467567926;16.602659911011177;8.615065548569227;0.853515625;0.37646484375;-0.32177734375;1.5625;-27.75;-28.3125;
1441975383446956;-0.84259033203125;0.17095947265625;-0.44708251953125;-0.24700927734375;3.309112539087255;16.55794235366662;8.646363879968154;0.81396484375;0.3486328125;-0.28955078125;-5.0;-24.75;-20.125;
1441975383461957;-0.84381103515625;0.16748046875;-0.44525146484375;-0.24859619140625;3.342686640921049;16.530369570816458;8.680754176075732;0.79248046875;0.35888671875;-0.2802734375;-11.4375;-13.4375;-14.5625;
1441975383483958;-0.84613037109375;0.16326904296875;-0.44287109375;-0.24774169921875;3.3874133055814206;16.524182667205583;8.707278197237265;0.7255859375;0.33984375;-0.3427734375;6.125;-10.125;-18.625;
1441975383506959;-0.8475341796875;0.15997314453125;-0.44189453125;-0.24688720703125;3.4113855636683876;16.5197046222572;8.729062577935094;0.6669921875;0.2998046875;-0.35302734375;19.25;-14.125;-18.9375;
1441975383527960;-0.84832763671875;0.15631103515625;-0.44232177734375;-0.24560546875;3.41881586454143;16.514963646911003;8.755344004826798;0.6669921875;0.28125;-0.31640625;16.75;-9.0625;-13.3125;
1441975383543961;-0.848876953125;0.15057373046875;-0.44427490234375;-0.2437744140625;3.414466896878727;16.503448249194157;8.800637238425368;0.6884765625;0.27197265625;-0.28173828125;20.9375;-3.1875;-12.25;
1441975383566963;-0.84967041015625;0.1453857421875;-0.44512939453125;-0.2425537109375;3.421702838653472;16.49074405356915;8.841363569380704;0.69775390625;0.37646484375;-0.3076171875;32.8125;8.625;-13.0625;
1441975383587964;-0.8499755859375;0.14141845703125;-0.44464111328125;-0.24462890625;3.4406161253293748;16.455502753888926;8.884069009595375;0.74560546875;0.3876953125;-0.35302734375;27.0625;3.0;-13.75;
1441975383603965;-0.85028076171875;0.13775634765625;-0.4437255859375;-0.2474365234375;3.464442765445418;16.416263860670508;8.926042775712256;0.81005859375;0.4658203125;-0.369140625;8.5;-2.0625;-15.0625;
1441975383626966;-0.85028076171875;0.13507080078125;-0.4427490234375;-0.2506103515625;3.4857290593699806;16.378138524921848;8.960997843634363;0.83837890625;0.4501953125;-0.365234375;3.0;-5.5;-18.0;
1441975383647967;-0.8507080078125;0.1314697265625;-0.44189453125;-0.25262451171875;3.5094262018043065;16.347161207420694;8.997917716860789;0.85107421875;0.37646484375;-0.33447265625;-4.0;-8.0625;-19.375;
1441975383663968;-0.85272216796875;0.12750244140625;-0.43817138671875;-0.25433349609375;3.5700837217998025;16.325540543345298;9.026680094594585;0.83544921875;0.4013671875;-0.3701171875;4.9375;-5.4375;-19.5625;
1441975383686969;-0.85369873046875;0.12603759765625;-0.43438720703125;-0.25823974609375;3.6223947501498364;16.294462476322945;9.044384584669608;0.765625;0.44189453125;-0.48828125;5.6875;-14.5625;-22.75;
1441975383715971;-0.85455322265625;0.125732421875;-0.43121337890625;-0.26080322265625;3.6626099201461866;16.278601115065772;9.04818129990702;0.76708984375;0.3857421875;-0.42578125;-13.625;-18.5;-19.0;
1441975383724972;-0.85565185546875;0.12518310546875;-0.4285888671875;-0.261962890625;3.6971629817304468;16.273243104881914;9.049166035841159;0.76220703125;0.3046875;-0.4326171875;-12.1875;-17.1875;-14.0;
1441975383746973;-0.85662841796875;0.12432861328125;-0.4271240234375;-0.2615966796875;3.718279566240725;16.277216437184492;9.049585794874908;0.765625;0.296875;-0.4833984375;-5.875;-13.375;-11.9375;
1441975383767974;-0.85809326171875;0.12237548828125;-0.42584228515625;-0.25970458984375;3.7409123291617545;16.2901184914884;9.052659454103603;0.79052734375;0.25830078125;-0.4951171875;1.1875;-8.6875;-10.8125;
1441975383783975;-0.8594970703125;0.119873046875;-0.4249267578125;-0.25775146484375;3.7612204311456447;16.300677866150625;9.060972481638622;0.77587890625;0.25244140625;-0.517578125;11.875;-6.8125;-12.5;
1441975383814977;-0.860595703125;0.11767578125;-0.42449951171875;-0.255859375;3.774397485506256;16.310549836091557;9.068708144709674;0.79931640625;0.28515625;-0.509765625;15.0;-5.4375;-13.1875;
1441975383827977;-0.8614501953125;0.116943359375;-0.4239501953125;-0.2540283203125;3.783232458092319;16.325197106728265;9.064967805052806;0.81103515625;0.298828125;-0.52490234375;14.0625;-2.875;-10.3125;
1441975383843978;-0.86236572265625;0.11688232421875;-0.42401123046875;-0.25091552734375;3.7824085050526817;16.352103289425308;9.052280024178803;0.81494140625;0.275390625;-0.5263671875;9.25;-5.0;-4.625;
1441975383866980;-0.86358642578125;0.115966796875;-0.42425537109375;-0.2467041015625;3.7822532868180545;16.3850041943452;9.042213456571913;0.83935546875;0.23681640625;-0.52783203125;13.125;-5.0625;0.25;
1441975383887981;-0.8651123046875;0.1138916015625;-0.4241943359375;-0.24237060546875;3.78984879627679;16.41539168715945;9.039950150262797;0.83203125;0.22998046875;-0.53564453125;20.9375;-3.9375;-1.5;
1441975383903982;-0.866455078125;0.11163330078125;-0.42413330078125;-0.23858642578125;3.797881315194345;16.44016490052365;9.041593884894182;0.78564453125;0.2548828125;-0.55078125;25.25;-2.25;-4.4375;
1441975383934984;-0.867431640625;0.10968017578125;-0.42462158203125;-0.2352294921875;3.79843762073636;16.461202045775114;9.044157048061576;0.759765625;0.267578125;-0.5546875;23.6875;-0.25;-5.0625;
1441975383947984;-0.86798095703125;0.1077880859375;-0.42578125;-0.23187255859375;3.790076217349529;16.48075982319572;9.048210648343055;0.76708984375;0.3056640625;-0.5771484375;21.6875;3.8125;-1.75;
1441975383963985;-0.86846923828125;0.10577392578125;-0.4266357421875;-0.22943115234375;3.786028796669633;16.492669351212125;9.056218744227383;0.79541015625;0.349609375;-0.59375;22.6875;8.1875;1.875;
1441975383986987;-0.86834716796875;0.1044921875;-0.42767333984375;-0.22845458984375;3.777254852810441;16.49404603674283;9.0651855905859;0.78173828125;0.392578125;-0.62353515625;19.5625;9.625;1.875;
1441975384015988;-0.86798095703125;0.10394287109375;-0.42840576171875;-0.22894287109375;3.770424956802978;16.486241340229192;9.07363341429534;0.76220703125;0.38427734375;-0.58154296875;10.0;10.5;2.1875;
1441975384031989;-0.86767578125;0.10357666015625;-0.42828369140625;-0.2303466796875;3.7732191266403134;16.472883536109812;9.082233632587162;0.72607421875;0.3310546875;-0.5458984375;-0.875;8.875;0.125;
1441975384046990;-0.86767578125;0.10333251953125;-0.42755126953125;-0.23187255859375;3.783413690323424;16.46047729014156;9.088541794211588;0.6767578125;0.30419921875;-0.5126953125;-6.375;4.9375;-3.1875;
1441975384067991;-0.86798095703125;0.1031494140625;-0.42608642578125;-0.2335205078125;3.8023663205623905;16.44897300508781;9.092724530870004;0.66162109375;0.28857421875;-0.5009765625;-7.6875;0.6875;-4.5625;
1441975384083992;-0.8685302734375;0.102783203125;-0.42388916015625;-0.23541259765625;3.830650969216168;16.436341913714838;9.097242705069354;0.66162109375;0.3046875;-0.515625;-8.5;-2.5625;-5.0625;
1441975384106993;-0.8692626953125;0.1026611328125;-0.4207763671875;-0.2384033203125;3.86987419592378;16.417572755089502;9.101507995936315;0.67578125;0.33447265625;-0.54345703125;-9.0;-6.0;-6.3125;
1441975384127995;-0.86993408203125;0.10308837890625;-0.4168701171875;-0.24273681640625;3.9171655373605043;16.3913206322611;9.104413550078675;0.6875;0.365234375;-0.57080078125;-14.8125;-9.875;-8.3125;
1441975384150996;-0.87030029296875;0.10400390625;-0.412841796875;-0.24786376953125;3.9640514063654346;16.360399691452795;9.10611238254769;0.7021484375;0.392578125;-0.59130859375;-23.3125;-13.0625;-9.4375;
1441975384166997;-0.87060546875;0.105224609375;-0.408935546875;-0.25274658203125;4.008144930221986;16.332473333398326;9.104549002818294;0.70751953125;0.38134765625;-0.6025390625;-29.875;-13.5625;-10.0625;
1441975384187998;-0.87078857421875;0.10626220703125;-0.40545654296875;-0.2572021484375;4.047315951383351;16.30659719338672;9.103750080533263;0.7060546875;0.3603515625;-0.626953125;-31.0625;-11.8125;-9.375;
1441975384203999;-0.8712158203125;0.1068115234375;-0.40203857421875;-0.2607421875;4.087057914796766;16.286702961687737;9.103098842197264;0.70556640625;0.359375;-0.62744140625;-28.75;-9.875;-9.1875;
1441975384226000;-0.871826171875;0.10687255859375;-0.398681640625;-0.263916015625;4.127979898455401;16.26843743402971;9.104612018613366;0.68994140625;0.3291015625;-0.6513671875;-24.875;-8.1875;-11.125;
1441975384250002;-0.87274169921875;0.10614013671875;-0.39532470703125;-0.2662353515625;4.171451895606993;16.254831560664293;9.108648412843628;0.64990234375;0.30810546875;-0.64599609375;-22.3125;-7.1875;-13.5;
1441975384264002;-0.873779296875;0.10467529296875;-0.39208984375;-0.26824951171875;4.2161582985429495;16.241417573154866;9.117086101823146;0.6181640625;0.28173828125;-0.63525390625;-17.0;-6.75;-16.3125;
1441975384288004;-0.8748779296875;0.1024169921875;-0.38934326171875;-0.26953125;4.257733903734949;16.23063847149798;9.129913296144768;0.59765625;0.296875;-0.6220703125;-12.375;-5.5;-18.25;
1441975384310005;-0.876220703125;0.09942626953125;-0.386474609375;-0.27044677734375;4.3034597479364285;16.221206591657136;9.14613897433274;0.599609375;0.32421875;-0.625;-6.0625;-3.125;-18.875;
1441975384331006;-0.87744140625;0.0963134765625;-0.3836669921875;-0.27154541015625;4.3488484316832485;16.209970879668017;9.163859574012893;0.60400390625;0.38134765625;-0.64599609375;-0.75;-2.5625;-19.5625;
1441975384346007;-0.87847900390625;0.09307861328125;-0.38134765625;-0.2725830078125;4.389008093730075;16.198054957785928;9.183420818507983;0.62841796875;0.41650390625;-0.6435546875;-0.3125;-3.0625;-19.5;
1441975384370008;-0.879150390625;0.09002685546875;-0.37939453125;-0.27410888671875;4.424340015050723;16.182112499688944;9.204209302106477;0.66064453125;0.4404296875;-0.63671875;1.5;-2.0;-19.375;
1441975384384009;-0.87969970703125;0.08697509765625;-0.3775634765625;-0.27587890625;4.458554077831103;16.16426071465758;9.225892273422383;0.67724609375;0.45654296875;-0.62548828125;-1.0;-1.25;-18.75;
1441975384406011;-0.88018798828125;0.08428955078125;-0.37548828125;-0.2779541015625;4.494402526935993;16.145751198497297;9.245043558701543;0.68310546875;0.4609375;-0.61669921875;-2.5;-1.0;-19.375;
1441975384430012;-0.88067626953125;0.08160400390625;-0.37335205078125;-0.28009033203125;4.531144613034436;16.12717808252252;9.263928416480175;0.6689453125;0.41650390625;-0.59716796875;-6.125;-2.9375;-20.9375;
1441975384444013;-0.88140869140625;0.07830810546875;-0.3712158203125;-0.28155517578125;4.569959178638977;16.112515197523773;9.284615468315213;0.65673828125;0.3798828125;-0.57470703125;-7.8125;-3.9375;-23.0;
1441975384473014;-0.88232421875;0.07440185546875;-0.369140625;-0.28253173828125;4.6103203017933;16.100268626692376;9.307849423676277;0.66162109375;0.37060546875;-0.58056640625;-3.4375;-4.375;-25.6875;
1441975384490015;-0.8831787109375;0.070068359375;-0.3673095703125;-0.283203125;4.6491406574660195;16.0888179556154;9.333647190789367;0.67431640625;0.39990234375;-0.5869140625;1.6875;-3.9375;-27.25;
1441975384511017;-0.88397216796875;0.0653076171875;-0.3658447265625;-0.28375244140625;4.685592902618762;16.07675174026979;9.362802100908592;0.69873046875;0.42236328125;-0.58642578125;4.75;-3.375;-28.375;
1441975384527017;-0.88470458984375;0.060546875;-0.36444091796875;-0.284423828125;4.721640460082283;16.063939301154733;9.392229919148482;0.705078125;0.43017578125;-0.56201171875;7.1875;-2.5625;-29.6875;
1441975384550019;-0.88525390625;0.055908203125;-0.36334228515625;-0.2850341796875;4.7535770215118855;16.05125053357493;9.42146032154657;0.68994140625;0.423828125;-0.5517578125;6.75;-2.1875;-30.125;
1441975384571020;-0.8857421875;0.05126953125;-0.3626708984375;-0.2852783203125;4.780444355609814;16.040515040231874;9.45076780979979;0.669921875;0.41064453125;-0.51416015625;6.6875;-1.5;-29.1875;
1441975384595021;-0.88623046875;0.046630859375;-0.36212158203125;-0.2852783203125;4.8057178602625;16.03145692433784;9.479621629570438;0.65185546875;0.40478515625;-0.48876953125;9.125;-0.25;-27.5625;
1441975384610022;-0.88653564453125;0.042236328125;-0.3619384765625;-0.2852783203125;4.825888114745622;16.022138174741826;9.50793226802404;0.6533203125;0.421875;-0.47705078125;11.625;-0.1875;-26.375;
1441975384631023;-0.88653564453125;0.038330078125;-0.3621826171875;-0.28546142578125;4.839384180390508;16.01142840966059;9.534912265952894;0.67529296875;0.4501953125;-0.48046875;11.625;1.0;-24.25;
1441975384655025;-0.8863525390625;0.03497314453125;-0.36273193359375;-0.28570556640625;4.847320437013769;16.00071135786664;9.55942493826425;0.705078125;0.48779296875;-0.50732421875;9.75;2.4375;-20.875;
1441975384670026;-0.8858642578125;0.0321044921875;-0.3642578125;-0.28570556640625;4.8421462943240146;15.990378873828877;9.583245605317414;0.7314453125;0.501953125;-0.515625;8.3125;3.375;-18.0625;
1441975384698027;-0.88531494140625;0.02978515625;-0.36590576171875;-0.28546142578125;4.832850503128871;15.982506235302269;9.60335222129416;0.72998046875;0.46435546875;-0.50634765625;7.0;7.5625;-14.875;
1441975384706028;-0.88482666015625;0.02752685546875;-0.36767578125;-0.284912109375;4.821633377260147;15.976692944201506;9.622639384635383;0.70458984375;0.439453125;-0.49658203125;6.1875;8.375;-11.9375;
1441975384730029;-0.8843994140625;0.025390625;-0.36932373046875;-0.28448486328125;4.811687524229651;15.970669602468655;9.641008356862141;0.69775390625;0.44775390625;-0.5068359375;7.5625;9.4375;-10.1875;
1441975384752030;-0.8839111328125;0.023193359375;-0.3709716796875;-0.28387451171875;4.8013752811118255;15.965492507297853;9.65950749080613;0.68994140625;0.4501953125;-0.498046875;7.125;8.625;-9.5;
1441975384767031;-0.88348388671875;0.02117919921875;-0.37274169921875;-0.28314208984375;4.789045639116791;15.961441667027936;9.676799044220248;0.69287109375;0.47412109375;-0.4951171875;9.0625;8.625;-8.375;
1441975384790032;-0.8829345703125;0.01971435546875;-0.3746337890625;-0.28253173828125;4.773178345862705;15.957224595930047;9.691351151847089;0.697265625;0.4892578125;-0.509765625;9.5625;9.5;-6.4375;
1441975384811034;-0.88232421875;0.018310546875;-0.37677001953125;-0.2816162109375;4.753685457380483;15.9544853422005;9.705651596715473;0.6865234375;0.48291015625;-0.50830078125;7.1875;10.0;-3.5;
1441975384827035;-0.881591796875;0.01690673828125;-0.3790283203125;-0.28094482421875;4.733267918987677;15.949482454577712;9.721147766063947;0.69140625;0.49072265625;-0.51806640625;8.5625;11.8125;-1.8125;
1441975384851036;-0.88079833984375;0.01556396484375;-0.3812255859375;-0.28045654296875;4.713519653490716;15.943254448955997;9.736678986875459;0.68603515625;0.51123046875;-0.53125;7.1875;13.625;-1.0625;
1441975384871037;-0.8802490234375;0.01409912109375;-0.38311767578125;-0.27984619140625;4.697791012288443;15.93874482623758;9.751467393161116;0.66259765625;0.50927734375;-0.53759765625;5.9375;15.0625;-0.125;
1441975384895038;-0.87969970703125;0.0125732421875;-0.38458251953125;-0.27960205078125;4.687521156507814;15.93241673422298;9.766323789985657;0.65673828125;0.50830078125;-0.5458984375;6.75;13.8125;-0.75;
1441975384917040;-0.8792724609375;0.0111083984375;-0.3856201171875;-0.279541015625;4.6821025529299005;15.926157397886364;9.77975306967111;0.6484375;0.5263671875;-0.541015625;5.875;11.9375;-1.4375;
1441975384931041;-0.87890625;0.009765625;-0.38629150390625;-0.2799072265625;4.681166756755471;15.918225831116821;9.792187754812621;0.6396484375;0.53564453125;-0.55126953125;4.5;10.375;-1.625;
1441975384946041;-0.878662109375;0.0084228515625;-0.38629150390625;-0.28057861328125;4.688047665220299;15.909959580889193;9.803103270722344;0.64990234375;0.5419921875;-0.5556640625;2.625;8.0;-2.4375;
1441975384970043;-0.8787841796875;0.0072021484375;-0.38531494140625;-0.28167724609375;4.706323320866006;15.90219998783806;9.810547743870522;0.6416015625;0.5341796875;-0.54638671875;0.875;4.6875;-4.6875;
1441975384991044;-0.87921142578125;0.00616455078125;-0.383056640625;-0.283447265625;4.739149290578409;15.893930855415457;9.813853225768106;0.59619140625;0.51904296875;-0.54248046875;-1.5;-0.25;-5.75;
1441975385006045;-0.87994384765625;0.00543212890625;-0.37982177734375;-0.28546142578125;4.781791418086096;15.887612996771333;9.812154941538953;0.556640625;0.5224609375;-0.54541015625;-4.75;-5.75;-7.1875;
1441975385030046;-0.88079833984375;0.00518798828125;-0.3759765625;-0.2879638671875;4.829995014033528;15.880737346478393;9.806273856135695;0.54345703125;0.5302734375;-0.5498046875;-6.4375;-11.6875;-7.375;
1441975385067048;-0.8818359375;0.00531005859375;-0.37158203125;-0.29034423828125;4.882137642563375;15.87697457674096;9.795801459294392;0.544921875;0.5419921875;-0.55419921875;-9.3125;-15.9375;-6.9375;
1441975385069048;-0.883056640625;0.005859375;-0.36688232421875;-0.29266357421875;4.935769836816385;15.875480604766901;9.781286142251378;0.5537109375;0.546875;-0.57421875;-9.9375;-19.625;-6.5625;
1441975385089050;-0.88421630859375;0.00677490234375;-0.3624267578125;-0.294677734375;4.984381805461916;15.875899600706468;9.764717231070154;0.57568359375;0.552734375;-0.58984375;-10.5625;-23.125;-5.375;
1441975385120051;-0.88507080078125;0.00811767578125;-0.3587646484375;-0.296630859375;5.022275412896976;15.87512092755442;9.748210545522774;0.63037109375;0.5732421875;-0.60693359375;-9.5;-23.75;-3.8125;
1441975385126052;-0.88555908203125;0.010009765625;-0.355712890625;-0.298828125;5.05132499991254;15.871667048820633;9.731140518420364;0.68212890625;0.58447265625;-0.61865234375;-10.75;-21.875;-2.125;
1441975385149053;-0.8857421875;0.0120849609375;-0.35308837890625;-0.30120849609375;5.074905723223694;15.865737222538767;9.715040285464163;0.650390625;0.5166015625;-0.58154296875;-14.9375;-19.6875;-1.0;
1441975385171054;-0.88592529296875;0.013916015625;-0.3505859375;-0.303466796875;5.097980306829285;15.859827187453234;9.70060453273231;0.60546875;0.45166015625;-0.55419921875;-18.75;-16.625;-1.0;
1441975385186055;-0.88616943359375;0.01507568359375;-0.348388671875;-0.30523681640625;5.119854109972448;15.85529103666163;9.690211642542298;0.5791015625;0.4228515625;-0.56396484375;-19.0625;-14.25;-2.5625;
1441975385209056;-0.88641357421875;0.01556396484375;-0.346923828125;-0.30609130859375;5.135069287309213;15.853967906228231;9.684314061371436;0.5771484375;0.431640625;-0.5732421875;-14.875;-11.5625;-3.75;
1441975385232058;-0.88665771484375;0.0150146484375;-0.3460693359375;-0.30645751953125;5.147538995803817;15.85268975277448;9.685696335704394;0.60791015625;0.45361328125;-0.56787109375;-8.125;-8.125;-5.0625;
1441975385247059;-0.8868408203125;0.0142822265625;-0.34564208984375;-0.30657958984375;5.155793544172498;15.851725550029837;9.689040397579905;0.61376953125;0.46875;-0.552734375;-2.375;-4.5625;-7.3125;
1441975385270060;-0.886962890625;0.0135498046875;-0.34521484375;-0.30657958984375;5.163550790354114;15.85136425832571;9.692245630392293;0.60791015625;0.45751953125;-0.53662109375;-0.5;-2.375;-7.6875;
1441975385292061;-0.88702392578125;0.01312255859375;-0.3450927734375;-0.30657958984375;5.166795929283142;15.850918437144507;9.6944836681323;0.6015625;0.45703125;-0.52490234375;0.3125;-2.5625;-7.125;
1441975385307062;-0.88690185546875;0.0128173828125;-0.345458984375;-0.3065185546875;5.164003709432732;15.84977427644158;9.697499144428264;0.61181640625;0.458984375;-0.50634765625;0.5;-2.625;-5.625;
1441975385330063;-0.88665771484375;0.012939453125;-0.34600830078125;-0.30657958984375;5.157500345021102;15.848035919171446;9.69878440671288;0.63427734375;0.47119140625;-0.48876953125;1.1875;-1.5;-3.8125;
1441975385352065;-0.8861083984375;0.01446533203125;-0.34686279296875;-0.3072509765625;5.142534895918976;15.843803840046434;9.693797025238977;0.63916015625;0.4970703125;-0.49560546875;0.375;-1.125;-0.8125;
1441975385375066;-0.88494873046875;0.0181884765625;-0.34893798828125;-0.3079833984375;5.104279056929823;15.839745459410159;9.679538632206055;0.6181640625;0.48876953125;-0.4931640625;-6.1875;-0.5625;6.125;
1441975385389067;-0.8836669921875;0.023681640625;-0.352783203125;-0.3070068359375;5.036169530609545;15.846924130078301;9.655745324523606;0.611328125;0.44775390625;-0.4619140625;-12.375;2.625;18.1875;
1441975385412068;-0.88189697265625;0.03076171875;-0.35882568359375;-0.304443359375;4.934217651766845;15.863095001091649;9.625043819140684;0.63330078125;0.40576171875;-0.45751953125;-8.6875;7.5;31.5;
1441975385434069;-0.87939453125;0.03857421875;-0.367431640625;-0.3004150390625;4.798237733563698;15.885137018216524;9.593861280868662;0.693359375;0.38330078125;-0.431640625;-4.125;14.1875;44.375;
1441975385449070;-0.8759765625;0.047119140625;-0.37786865234375;-0.296142578125;4.637872982748713;15.906359680685599;9.5625839642621;0.76123046875;0.36474609375;-0.41845703125;0.9375;24.375;53.5625;
1441975385462071;-0.8712158203125;0.056884765625;-0.39013671875;-0.29266357421875;4.4520203309317585;15.920056230145743;9.531022277233989;0.7890625;0.36474609375;-0.4248046875;-0.5625;34.9375;61.5;
1441975385485072;-0.8651123046875;0.068115234375;-0.40423583984375;-0.2891845703125;4.237532971273392;15.932664339913527;9.495235317822242;0.80029296875;0.3349609375;-0.39013671875;-9.25;44.125;69.375;
1441975385517074;-0.85797119140625;0.08056640625;-0.419677734375;-0.28521728515625;4.000071049922262;15.949737920665465;9.452650174732236;0.8271484375;0.294921875;-0.3701171875;-14.3125;53.9375;78.9375;
1441975385524074;-0.84979248046875;0.09417724609375;-0.436279296875;-0.280517578125;3.7411408920093305;15.974949003556343;9.400711773457159;0.8427734375;0.2802734375;-0.3662109375;-16.125;61.5625;89.5;
1441975385554076;-0.84112548828125;0.10791015625;-0.4527587890625;-0.275634765625;3.4809159056658583;16.00652465048897;9.3423398595024;0.8740234375;0.2578125;-0.35595703125;-16.75;68.5625;99.0625;
1441975385568077;-0.83160400390625;0.1219482421875;-0.469970703125;-0.269775390625;3.207195880723947;16.050832694023708;9.274191084863135;0.927734375;0.22705078125;-0.32958984375;-16.0;74.875;107.6875;
1441975385582078;-0.82122802734375;0.13653564453125;-0.48724365234375;-0.263916015625;2.92796031403009;16.10534264843849;9.193008746458158;0.9619140625;0.220703125;-0.328125;-13.1875;79.625;113.4375;
1441975385614080;-0.8099365234375;0.15179443359375;-0.5042724609375;-0.25836181640625;2.6463132826244777;16.172324022053502;9.09439495155729;0.96435546875;0.208984375;-0.322265625;-15.4375;82.125;117.5;
1441975385628080;-0.79766845703125;0.16839599609375;-0.5206298828125;-0.25372314453125;2.3655541609780033;16.25631198890949;8.968181387315594;0.9716796875;0.234375;-0.32080078125;-20.125;83.0625;120.9375;
1441975385660082;-0.7840576171875;0.18646240234375;-0.536865234375;-0.249755859375;2.078841300378751;16.368142378139343;8.804341569123759;1.00244140625;0.23974609375;-0.2939453125;-30.25;81.8125;125.1875;
1441975385665083;-0.769287109375;0.2054443359375;-0.55279541015625;-0.24609375;1.7920106634844493;16.52544297646379;8.58887137501381;1.0830078125;0.24267578125;-0.27099609375;-39.4375;83.5;131.5;
1441975385688084;-0.75384521484375;0.2247314453125;-0.56805419921875;-0.2421875;1.51639187575611;16.75891826728802;8.295666907952798;1.10107421875;0.201171875;-0.28564453125;-45.875;85.5625;135.5625;
1441975385702085;-0.73773193359375;0.2445068359375;-0.58258056640625;-0.23797607421875;1.2607824318011933;17.1168228351071;7.875790912347258;1.11865234375;0.21337890625;-0.3115234375;-47.625;85.0;138.375;
1441975385734086;-0.7208251953125;0.2652587890625;-0.59613037109375;-0.23388671875;1.0432974308094471;17.668227578290455;7.256028000349739;1.11767578125;0.23828125;-0.32568359375;-49.25;83.6875;142.875;
1441975385748087;-0.70306396484375;0.28704833984375;-0.60894775390625;-0.2293701171875;0.8952802518156454;0.5008325677251575;6.350667293585079;1.14453125;0.22509765625;-0.26416015625;-55.625;80.6875;147.1875;
1441975385762088;-0.68377685546875;0.30950927734375;-0.6214599609375;-0.2247314453125;0.8533208735800758;1.5711138768826896;5.2029301560717816;1.1826171875;0.20361328125;-0.29638671875;-59.4375;79.5;153.5625;
1441975385785089;-0.66302490234375;0.331298828125;-0.63482666015625;-0.2183837890625;0.9440722728398792;2.651204204648112;4.053371014471103;1.12890625;0.16455078125;-0.28173828125;-63.8125;83.0625;159.25;
1441975385816091;-0.64154052734375;0.35235595703125;-0.64788818359375;-0.21112060546875;1.1474458695018899;3.448408638823803;3.1910726925061197;1.04931640625;0.1357421875;-0.23046875;-55.0;88.9375;166.5625;
1441975385831092;-0.6195068359375;0.3740234375;-0.6593017578125;-0.20416259765625;1.417203112214667;3.9428168403204964;2.6242741670353635;1.01416015625;0.23583984375;-0.22412109375;-49.9375;90.5625;170.875;
1441975385845093;-0.59765625;0.39593505859375;-0.66845703125;-0.1981201171875;1.708724718074965;4.227861664633382;2.2585605657998085;1.0400390625;0.2685546875;-0.2646484375;-57.25;87.0625;172.75;
1441975385868094;-0.57623291015625;0.41558837890625;-0.67718505859375;-0.191650390625;2.0004707564447406;4.420870959888034;1.9942665836589653;1.0498046875;0.15673828125;-0.2431640625;-66.25;80.4375;165.9375;
1441975385884095;-0.5556640625;0.43231201171875;-0.6859130859375;-0.184326171875;2.28467320558535;4.564903779005251;1.7939340205455883;1.025390625;0.078125;-0.22021484375;-56.1875;78.4375;158.0;
1441975385905096;-0.53594970703125;0.44732666015625;-0.6939697265625;-0.1763916015625;2.562698752689101;4.668094523214115;1.6428520883912094;0.951171875;0.12939453125;-0.208984375;-41.0;76.3125;150.625;
1441975385928098;-0.51690673828125;0.462890625;-0.69976806640625;-0.1700439453125;2.825994280205603;4.724877877164295;1.5267016489237348;0.89892578125;0.19775390625;-0.232421875;-33.25;71.75;146.0;
1441975385942098;-0.4990234375;0.475341796875;-0.70599365234375;-0.163330078125;3.0703290837814956;4.781694441652264;1.4258990082354526;0.8447265625;0.08935546875;-0.19482421875;-45.25;64.9375;136.0;
1441975385965100;-0.483642578125;0.4832763671875;-0.712890625;-0.15606689453125;3.2819196887577187;4.844938425212797;1.3433700558081998;0.79296875;-0.0126953125;-0.1162109375;-30.0;62.5625;123.875;
1441975385989101;-0.4735107421875;0.487548828125;-0.7176513671875;-0.152099609375;3.4118228826278294;4.89058076170447;1.2858603557120563;0.7099609375;0.02197265625;-0.12939453125;-5.5625;57.5625;107.4375;
1441975386002102;-0.46539306640625;0.49114990234375;-0.72100830078125;-0.14971923828125;3.5104762871309854;4.922185754801171;1.2401154892522497;0.6572265625;0.1103515625;-0.09765625;0.9375;48.625;91.875;
1441975386034104;-0.458984375;0.49505615234375;-0.72265625;-0.14874267578125;3.584895099941258;4.935069488978601;1.2066223171219157;0.6494140625;0.125;-0.08544921875;-3.4375;41.6875;78.0625;
1441975386056105;-0.45513916015625;0.49542236328125;-0.72503662109375;-0.14776611328125;3.6262905877191174;4.961665245283098;1.179323763749966;0.6279296875;0.01953125;-0.06494140625;-12.0;32.25;60.25;
1441975386063105;-0.45416259765625;0.49310302734375;-0.72735595703125;-0.1470947265625;3.6325700199620243;4.992118283068372;1.1628070487362518;0.6181640625;-0.0029296875;-0.064453125;7.25;26.8125;42.8125;
1441975386085107;-0.45550537109375;0.48834228515625;-0.72967529296875;-0.14715576171875;3.6057074873607955;5.029211020835781;1.1507523677921436;0.58544921875;0.03369140625;-0.109375;21.5;20.1875;27.0;
1441975386109108;-0.45941162109375;0.48193359375;-0.73114013671875;-0.14898681640625;3.5380470363705046;5.06490504044982;1.1430065906984408;0.5693359375;0.08154296875;-0.10400390625;30.875;14.6875;13.25;
1441975386124109;-0.46533203125;0.4755859375;-0.73089599609375;-0.1522216796875;3.4418788093176076;5.08515777535788;1.1456913822456272;0.5712890625;0.1923828125;-0.0908203125;31.5625;7.5;-0.8125;
1441975386148110;-0.4730224609375;0.4661865234375;-0.73114013671875;-0.15625;3.3141348836034483;5.122659192542509;1.1438782490936878;0.6435546875;0.04931640625;-0.07421875;24.75;-1.9375;-19.1875;
1441975386168111;-0.4833984375;0.4521484375;-0.73236083984375;-0.1600341796875;3.149364435958674;5.185657749331306;1.141636997838377;0.70703125;-0.04833984375;-0.029296875;37.75;-5.0625;-39.0;
1441975386191113;-0.49652099609375;0.43536376953125;-0.732421875;-0.166015625;2.933007018435086;5.25689493957677;1.1356378878367104;0.67919921875;-0.029296875;-0.0673828125;63.625;-8.0;-58.125;
1441975386215114;-0.51220703125;0.420166015625;-0.72833251953125;-0.175048828125;2.6720831700825958;5.288576427303139;1.1482395042337918;0.6259765625;0.17919921875;-0.05078125;66.1875;-15.75;-73.9375;
1441975386228115;-0.5264892578125;0.408935546875;-0.72210693359375;-0.18487548828125;2.428178552930927;5.284395923632315;1.1721077873370958;0.65283203125;0.22705078125;-0.09912109375;43.8125;-29.25;-90.5;
1441975386242116;-0.54296875;0.394775390625;-0.71502685546875;-0.19537353515625;2.1464944946424955;5.2828910950433325;1.2038949789875992;0.7080078125;0.1318359375;-0.0732421875;17.625;-40.3125;-107.625;
1441975386265117;-0.56243896484375;0.37579345703125;-0.707275390625;-0.20550537109375;1.819013042748438;5.289161408408331;1.25091988397676;0.78662109375;-0.033203125;-0.0546875;27.8125;-47.8125;-128.1875;
1441975386288118;-0.58502197265625;0.354736328125;-0.69677734375;-0.21563720703125;1.4496043036768538;5.2395565027128;1.3616384361699774;0.8857421875;0.1513671875;-0.060546875;50.8125;-57.625;-146.0;
1441975386312120;-0.60845947265625;0.33489990234375;-0.68170166015625;-0.23016357421875;1.0369610028131067;5.065635589694249;1.5691235123408895;1.080078125;0.46728515625;-0.0556640625;56.25;-76.625;-157.75;
1441975386325120;-0.632568359375;0.31072998046875;-0.66650390625;-0.24322509765625;0.6124756692217387;4.679735142979919;2.0108104393379453;1.396484375;0.29150390625;-0.03515625;28.6875;-89.0;-181.8125;
1441975386348122;-0.66021728515625;0.2779541015625;-0.65069580078125;-0.25189208984375;0.22484282072956466;2.3961563250350917;4.403081258201115;1.560546875;0.01123046875;-0.1201171875;51.5625;-88.0;-198.75;
1441975386362122;-0.68939208984375;0.24334716796875;-0.6300048828125;-0.26214599609375;0.5048754138480702;16.07359651367674;8.830097982406036;1.6171875;0.25244140625;-0.169921875;104.5;-99.8125;-217.875;
1441975386385124;-0.717041015625;0.21954345703125;-0.599365234375;-0.28009033203125;1.073871258980794;15.599460002505772;9.322145420519103;1.6943359375;0.7724609375;-0.18115234375;100.125;-120.0625;-234.125;
1441975386408125;-0.7396240234375;0.20697021484375;-0.5574951171875;-0.31524658203125;1.7232967867820272;15.366937934144028;9.440103290838437;1.9111328125;1.5712890625;-0.056640625;13.8125;-160.25;-243.6875;
1441975386422126;-0.753173828125;0.20477294921875;-0.50604248046875;-0.36712646484375;2.4136622312737903;15.113541338265414;9.443841964259915;2.3154296875;1.79541015625;-0.0439453125;-118.0625;-185.5625;-268.375;
1441975386445127;-0.76922607421875;0.18304443359375;-0.45770263671875;-0.40673828125;3.146764796166806;14.932285126487015;9.50036277590715;2.84521484375;0.06298828125;-0.30859375;-250.125;-196.375;-285.125;
1441975386469129;-0.79193115234375;0.14117431640625;-0.41546630859375;-0.4246826171875;3.8930480385986983;14.895339091686871;9.59360783059761;2.94091796875;-0.79150390625;-0.3271484375;-131.375;-163.4375;-329.75;
1441975386482129;-0.822021484375;0.0853271484375;-0.378173828125;-0.417236328125;4.614253069252722;15.024505684268828;9.703418871918197;2.74072265625;-0.6806640625;-0.27880859375;39.625;-129.5;-354.5625;
1441975386505131;-0.85150146484375;0.01922607421875;-0.34393310546875;-0.39544677734375;5.306781998957115;15.216134724473989;9.870799367122999;2.29736328125;0.1728515625;-0.6416015625;209.9375;-111.25;-351.8125;
1441975386536132;-0.87603759765625;-0.0469970703125;-0.31494140625;-0.3623046875;5.8822371158354585;15.453089194437233;10.064044903526453;2.27978515625;1.06005859375;-0.61669921875;300.875;-78.375;-361.6875;
1441975386542133;-0.89947509765625;-0.1162109375;-0.28985595703125;-0.3057861328125;6.323526440760041;15.812563562914763;10.281780609277805;2.31787109375;0.5830078125;-0.36474609375;345.5625;-43.3125;-327.3125;
1441975386565134;-0.9208984375;-0.183349609375;-0.2630615234375;-0.22174072265625;6.62230560115614;16.325918552743943;10.488359093262158;1.990234375;-0.07275390625;-0.45068359375;466.1875;-9.5;-292.5625;
1441975386588135;-0.931884765625;-0.24151611328125;-0.23211669921875;-0.1396484375;6.858541049319716;16.82121579696097;10.678934381192462;1.37841796875;0.654296875;-0.84375;604.625;-11.625;-249.5625;
1441975386602136;-0.93402099609375;-0.28607177734375;-0.20025634765625;-0.07598876953125;7.069633949316006;17.211498401328626;10.83780386154549;1.22412109375;1.63330078125;-0.84033203125;588.6875;-33.875;-210.8125;
1441975386625137;-0.93048095703125;-0.31689453125;-0.17718505859375;-0.050537109375;7.268315769340532;17.375976424525508;10.976128078685269;1.21875;2.0390625;-0.470703125;446.625;-49.4375;-176.75;
1441975386648139;-0.92596435546875;-0.33636474609375;-0.16339111328125;-0.05340576171875;7.453590924933913;17.374400882752134;11.081673546385694;1.2099609375;1.92919921875;-0.1005859375;208.125;-64.3125;-151.4375;
