1441975293775827;-0.88861083984375;-0.05743408203125;-0.355224609375;-0.28460693359375;5.3233691102889855;15.848953663230207;10.11600995004587;1.89697265625;0.5771484375;-0.02685546875;244.375;-22.1875;-232.875;
1441975293790828;-0.89495849609375;-0.0836181640625;-0.349609375;-0.2645263671875;5.444741901282679;15.958791169364929;10.21415987732967;1.791015625;0.8896484375;0.0390625;265.875;-18.6875;-180.4375;
1441975293813829;-0.8944091796875;-0.093017578125;-0.3563232421875;-0.2540283203125;5.383798851006864;15.992196504593906;10.274251240799043;1.701171875;0.61279296875;0.14208984375;175.25;-11.8125;-109.5625;
1441975293835830;-0.8931884765625;-0.100830078125;-0.3621826171875;-0.24676513671875;5.3329013938912215;16.00802726360499;10.328893856573325;1.57666015625;0.31884765625;0.06884765625;84.4375;-16.125;-62.9375;
1441975293850831;-0.89251708984375;-0.10968017578125;-0.36700439453125;-0.2384033203125;5.293419735620909;16.03226796225715;10.384194972971896;1.49169921875;0.1103515625;0.064453125;54.5625;-19.0625;-67.375;
1441975293873832;-0.89215087890625;-0.12188720703125;-0.3712158203125;-0.2269287109375;5.262793018243496;16.072051375938784;10.4526611461934;1.34326171875;-0.14208984375;0.02734375;51.5625;-15.25;-75.6875;
1441975293895834;-0.89312744140625;-0.14111328125;-0.37042236328125;-0.2127685546875;5.301714316531728;16.13277361321258;10.542652546753658;1.1572265625;-0.12109375;-0.07275390625;72.75;-0.25;-78.4375;
1441975293910834;-0.89373779296875;-0.16400146484375;-0.3712158203125;-0.19140625;5.308019731441756;16.22681214845849;10.649077929855551;1.03125;-0.01611328125;-0.1962890625;113.375;19.75;-77.375;
1441975293933836;-0.89337158203125;-0.18780517578125;-0.3729248046875;-0.16619873046875;5.285404687685164;16.337714473569076;10.760038155483011;0.990234375;0.09716796875;-0.2666015625;156.75;39.6875;-77.375;
1441975293964838;-0.89129638671875;-0.208740234375;-0.37640380859375;-0.14288330078125;5.231813814377097;16.432220592699444;10.86516323434973;0.88818359375;0.3056640625;-0.31494140625;178.75;52.5;-70.5625;
1441975293970838;-0.88751220703125;-0.22528076171875;-0.38214111328125;-0.12481689453125;5.153423049845611;16.490589769813994;10.961831939627514;0.8447265625;0.43603515625;-0.34765625;160.8125;60.9375;-58.25;
1441975293993839;-0.88165283203125;-0.23602294921875;-0.392822265625;-0.113037109375;5.026484859944844;16.499118710895317;11.052074340798475;0.83154296875;0.48681640625;-0.3681640625;121.1875;66.9375;-45.75;
1441975294016841;-0.87554931640625;-0.24127197265625;-0.40484619140625;-0.10687255859375;4.890759062073068;16.475230803175588;11.123992091167533;0.82421875;0.4482421875;-0.41650390625;75.0;70.125;-31.3125;
1441975294031841;-0.8695068359375;-0.24273681640625;-0.4178466796875;-0.10260009765625;4.740799154974423;16.44056098093581;11.180694273965273;0.80517578125;0.31787109375;-0.40625;26.375;68.25;-20.375;
1441975294053843;-0.863037109375;-0.2425537109375;-0.43218994140625;-0.09832763671875;4.571664096929601;16.400159058803922;11.235223228559565;0.8193359375;0.24609375;-0.41455078125;2.5625;69.1875;-8.0;
1441975294075844;-0.85565185546875;-0.242431640625;-0.4476318359375;-0.09356689453125;4.3892948586983405;16.35226436110194;11.2993601328448;0.87890625;0.20703125;-0.40087890625;-4.9375;75.0625;-2.6875;
1441975294090845;-0.84747314453125;-0.24151611328125;-0.46435546875;-0.08917236328125;4.193561143726148;16.291248845051275;11.371164600265205;0.91943359375;0.22509765625;-0.42724609375;-4.6875;85.125;-2.1875;
1441975294113846;-0.8387451171875;-0.23974609375;-0.4814453125;-0.08563232421875;3.9960473836936594;16.216774569456703;11.449059931962454;0.966796875;0.3359375;-0.541015625;-9.6875;99.375;5.375;
1441975294135847;-0.82958984375;-0.23846435546875;-0.49871826171875;-0.07952880859375;3.7867577577239184;16.148009356593406;11.534305825404362;0.99169921875;0.31982421875;-0.5537109375;-16.25;108.375;12.625;
1441975294152848;-0.82025146484375;-0.23944091796875;-0.514892578125;-0.0694580078125;3.5771655660214887;16.09626695985572;11.6292868169829;0.9912109375;0.19580078125;-0.439453125;-3.9375;113.625;15.25;
1441975294173850;-0.8101806640625;-0.2412109375;-0.53125;-0.05780029296875;3.3611116827259275;16.039785053254352;11.738778943932859;1.01953125;0.130859375;-0.3486328125;23.0;114.375;14.1875;
1441975294195851;-0.79888916015625;-0.243896484375;-0.54815673828125;-0.0440673828125;3.13253824386395;15.974220933761487;11.869586158423449;1.08544921875;0.19384765625;-0.31103515625;33.0625;119.8125;15.0;
1441975294212852;-0.78662109375;-0.24566650390625;-0.565673828125;-0.0308837890625;2.8989274807179193;15.882379312013974;12.020101458240507;1.177734375;0.21337890625;-0.328125;44.1875;129.6875;15.5625;
1441975294240853;-0.77410888671875;-0.24432373046875;-0.58380126953125;-0.019287109375;2.6580502053966013;15.761810262675148;12.179159143337303;1.22509765625;0.283203125;-0.33935546875;38.0625;135.0;18.0;
1441975294255854;-0.76116943359375;-0.2393798828125;-0.602783203125;-0.01025390625;2.413164462395491;15.596498795162569;12.357090971853935;1.2177734375;0.267578125;-0.2841796875;20.375;136.125;26.5625;
1441975294272855;-0.74786376953125;-0.23052978515625;-0.62261962890625;-0.0040283203125;2.1673330849597945;15.374242500213345;12.564208740398835;1.2431640625;0.29541015625;-0.27099609375;-4.75;137.9375;34.1875;
1441975294293856;-0.734130859375;-0.2183837890625;-0.64300537109375;6.103515625E-4;1.9217441096517185;15.087103331457456;12.816456555579352;1.29150390625;0.28564453125;-0.2685546875;-31.8125;139.875;41.1875;
1441975294315858;-0.7200927734375;-0.20538330078125;-0.662841796875;0.0059814453125;1.686993382228965;14.735460406891216;13.133511384904166;1.30810546875;0.224609375;-0.24609375;-51.0625;142.25;48.3125;
1441975294339859;-0.70574951171875;-0.19317626953125;-0.68157958984375;0.01348876953125;1.473049413704965;14.306687305244195;13.5405950559324;1.29541015625;0.0927734375;-0.22314453125;-51.1875;142.75;52.4375;
1441975294353860;-0.69122314453125;-0.18206787109375;-0.69903564453125;0.02325439453125;1.291043351196551;13.779240016755052;14.060867707324316;1.3076171875;0.06689453125;-0.1787109375;-37.8125;142.5;56.875;
1441975294375861;-0.67694091796875;-0.170166015625;-0.7154541015625;0.03314208984375;1.1551590139356278;13.13041042791775;14.700313355897709;1.32470703125;0.12060546875;-0.22607421875;-23.0625;142.4375;62.625;
1441975294392862;-0.66302490234375;-0.1571044921875;-0.73077392578125;0.0423583984375;1.0812810003413948;12.379273262680865;15.435141969752006;1.26806640625;0.1767578125;-0.20263671875;-24.625;138.0;68.25;
1441975294413863;-0.64984130859375;-0.14251708984375;-0.7449951171875;0.050048828125;1.0766200979624816;11.602015104352203;16.184020379304556;1.2373046875;0.16796875;-0.1748046875;-30.8125;132.5;71.0625;
1441975294437865;-0.6373291015625;-0.1282958984375;-0.7576904296875;0.057861328125;1.1317755170445798;10.896837104994104;16.86325119002773;1.21484375;0.0908203125;-0.1201171875;-42.125;124.1875;70.6875;
1441975294459866;-0.62554931640625;-0.1160888671875;-0.7686767578125;0.06695556640625;1.228439508911016;10.321297314890298;17.426646845939395;1.19482421875;0.0322265625;-0.08447265625;-38.875;115.8125;70.3125;
1441975294473867;-0.6162109375;-0.10540771484375;-0.77667236328125;0.07769775390625;1.3223163542077243;9.864338533091132;17.88456529136029;1.15478515625;-0.0576171875;-0.04736328125;-23.9375;106.4375;69.125;
1441975294495868;-0.60784912109375;-0.0960693359375;-0.783447265625;0.0870361328125;1.4283689794887593;9.52211619891241;0.22763211365710134;1.1328125;-0.0263671875;0.01025390625;-10.25;97.6875;69.0;
1441975294512869;-0.60089111328125;-0.086181640625;-0.78912353515625;0.0943603515625;1.531119864434839;9.245624480884926;0.49441852641414474;1.10693359375;0.04443359375;0.0087890625;-9.8125;89.1875;66.0625;
1441975294533870;-0.59490966796875;-0.07757568359375;-0.793701171875;0.100830078125;1.6271716196217256;9.032453209236314;0.6996601115207278;1.04736328125;-0.017578125;0.05224609375;-18.3125;75.8125;57.6875;
1441975294555871;-0.58929443359375;-0.0716552734375;-0.7977294921875;0.106201171875;1.7183439440179746;8.89482370637867;0.8358858117021261;1.029296875;-0.09033203125;0.060546875;-14.1875;67.0;46.75;
1441975294572872;-0.5845947265625;-0.06640625;-0.80108642578125;0.11041259765625;1.7973519152509478;8.789094876885546;0.9380938908242117;0.99267578125;0.0263671875;0.08544921875;-7.8125;59.8125;42.5625;
1441975294593874;-0.5810546875;-0.05987548828125;-0.8037109375;0.11376953125;1.8643656331345317;8.677031471036468;1.0377079280483568;0.96435546875;0.1552734375;0.1005859375;-11.9375;52.0625;45.0625;
1441975294615875;-0.57843017578125;-0.05206298828125;-0.80584716796875;0.11578369140625;1.9226169072113852;8.563048889206913;1.1283001570188071;0.93017578125;0.166015625;0.099609375;-21.4375;44.375;47.5;
1441975294634876;-0.576416015625;-0.0443115234375;-0.80755615234375;0.11724853515625;1.973557299143242;8.457255701443277;1.2085815083481446;0.869140625;0.12744140625;0.13427734375;-31.9375;35.8125;44.375;
1441975294653877;-0.5750732421875;-0.03729248046875;-0.8087158203125;0.117919921875;2.013036835849705;8.368041886974934;1.2719400779351124;0.83056640625;0.10400390625;0.17138671875;-33.3125;28.5625;41.3125;
1441975294675878;-0.57513427734375;-0.02947998046875;-0.80908203125;0.117431640625;2.0358168884473113;8.272739065582709;1.3330927150037004;0.78369140625;0.1640625;0.15869140625;-34.3125;23.125;40.0625;
1441975294692879;-0.5770263671875;-0.01983642578125;-0.80828857421875;0.11553955078125;2.038704948701993;8.155006545833444;1.4031280651555407;0.72802734375;0.18603515625;0.14013671875;-43.1875;14.1875;39.9375;
1441975294713880;-0.58013916015625;-0.00909423828125;-0.8067626953125;0.1121826171875;2.0278268351048006;8.026862802137988;1.472885736947231;0.72314453125;0.14404296875;0.13818359375;-56.5;2.625;38.125;
1441975294735882;-0.5838623046875;0.00115966796875;-0.80462646484375;0.1085205078125;2.0075797046281414;7.900114991114469;1.542028146916876;0.703125;0.095703125;0.13818359375;-66.0625;-5.5625;33.0625;
1441975294752883;-0.5882568359375;0.010498046875;-0.8018798828125;0.1046142578125;1.9759337228250997;7.777742606774609;1.6095750638885378;0.6796875;0.0595703125;0.12646484375;-64.3125;-11.1875;28.9375;
1441975294773884;-0.59356689453125;0.0189208984375;-0.79833984375;0.10003662109375;1.9279520954280325;7.659095222822762;1.6744284098663422;0.64697265625;0.0546875;0.11279296875;-61.375;-16.875;24.8125;
1441975294797885;-0.6004638671875;0.026611328125;-0.79364013671875;0.09442138671875;1.8551808137233825;7.535795262600397;1.7426753869804275;0.66162109375;0.0546875;0.12353515625;-59.875;-25.5;19.4375;
1441975294812886;-0.60845947265625;0.0338134765625;-0.78802490234375;0.0877685546875;1.764052756877706;7.405552382743946;1.8157076215958727;0.69921875;0.05078125;0.107421875;-61.3125;-35.9375;13.1875;
1441975294833887;-0.61688232421875;0.04010009765625;-0.781982421875;0.08038330078125;1.6618496969261944;7.276451655276279;1.888497804363381;0.71484375;0.00341796875;0.08544921875;-61.6875;-43.8125;4.375;
1441975294855889;-0.62530517578125;0.0450439453125;-0.77569580078125;0.07281494140625;1.5529344578765054;7.152515688801527;1.9610425844775428;0.71044921875;-0.0517578125;0.06591796875;-59.75;-47.0625;-5.375;
1441975294872890;-0.634033203125;0.0484619140625;-0.76904296875;0.0653076171875;1.4343004742112226;7.028391486692055;2.0403960344675043;0.69189453125;-0.07958984375;0.0771484375;-53.625;-50.75;-13.125;
1441975294893891;-0.6434326171875;0.0504150390625;-0.76171875;0.05804443359375;1.3030970471491632;6.88963054243333;2.141478405794534;0.677734375;-0.0986328125;0.08984375;-47.5;-56.375;-19.8125;
1441975294923892;-0.653076171875;0.05120849609375;-0.75390625;0.0506591796875;1.1633434169190628;6.734216969386192;2.2635460794190436;0.7001953125;-0.10498046875;0.0615234375;-39.9375;-61.25;-24.5625;
1441975294932893;-0.6627197265625;0.05096435546875;-0.74591064453125;0.0430908203125;1.0187753455639479;6.558610281951577;2.4093645931038266;0.72119140625;-0.12451171875;0.044921875;-35.25;-64.625;-30.8125;
1441975294953894;-0.6724853515625;0.05059814453125;-0.73760986328125;0.03582763671875;0.8776471081818781;6.319950935854363;2.6200349034064625;0.72119140625;-0.09375;0.03271484375;-31.875;-65.875;-33.75;
1441975294975895;-0.68212890625;0.05047607421875;-0.72900390625;0.02874755859375;0.7463692946153175;5.986488349864195;2.9252950165011935;0.75048828125;-0.08447265625;0.0029296875;-30.5;-66.625;-32.75;
1441975294992896;-0.69140625;0.0499267578125;-0.720458984375;0.02203369140625;0.6291028528049628;5.542685325624619;3.344134813508753;0.8037109375;-0.1162109375;-0.0068359375;-30.625;-67.9375;-33.1875;
1441975295020898;-0.700439453125;0.0487060546875;-0.71197509765625;0.01544189453125;0.5282701061642746;4.942266474221773;3.9228196135799838;0.8720703125;-0.1220703125;-0.0263671875;-27.4375;-66.125;-33.8125;
1441975295035899;-0.70928955078125;0.0474853515625;-0.703369140625;0.00885009765625;0.4590790273233146;4.121703907759994;4.7216350864607906;0.94384765625;-0.10107421875;-0.0390625;-24.1875;-65.4375;-34.4375;
1441975295051900;-0.7178955078125;0.0469970703125;-0.69464111328125;0.0018310546875;0.4383071607464037;3.1351229997526535;5.681735505840201;1.01513671875;-0.08935546875;-0.048828125;-24.6875;-66.1875;-34.125;
1441975295073901;-0.72576904296875;0.0474853515625;-0.68634033203125;-0.0050048828125;0.46974255353463806;2.2502469366699183;6.536874023305511;1.080078125;-0.08740234375;-0.07275390625;-29.375;-65.6875;-33.125;
1441975295095902;-0.73272705078125;0.04779052734375;-0.67877197265625;-0.01129150390625;0.5280046924479177;1.5840163898304072;7.17629686181733;1.1220703125;-0.142578125;-0.08837890625;-32.5;-62.3125;-32.625;
1441975295111903;-0.739013671875;0.04693603515625;-0.67193603515625;-0.0167236328125;0.596340171310962;1.0831957640263536;7.6584705532232045;1.13720703125;-0.1826171875;-0.12060546875;-29.5625;-54.9375;-34.6875;
1441975295134904;-0.7447509765625;0.04541015625;-0.66546630859375;-0.021728515625;0.670848947611384;0.6952352950400208;8.03219251487474;1.12841796875;-0.1630859375;-0.1494140625;-21.75;-49.0;-35.25;
1441975295155906;-0.75018310546875;0.0439453125;-0.65936279296875;-0.026123046875;0.7504195131858304;0.4128311752938866;8.302586438155915;1.11669921875;-0.1220703125;-0.15087890625;-17.0625;-46.25;-34.0;
1441975295171907;-0.7547607421875;0.04296875;-0.65399169921875;-0.03021240234375;0.823688904208165;0.21204977338119033;8.490580333562635;1.123046875;-0.07421875;-0.18408203125;-14.5;-42.9375;-29.1875;
1441975295194908;-0.75836181640625;0.04217529296875;-0.649658203125;-0.0335693359375;0.8844097865490748;0.07236711546550746;8.619706266642229;1.154296875;-0.06298828125;-0.18896484375;-15.0625;-37.625;-24.875;
1441975295215909;-0.76123046875;0.04107666015625;-0.646240234375;-0.03570556640625;0.9337689728276746;17.977585568447633;8.710156344109304;1.17822265625;-0.04736328125;-0.169921875;-12.5;-32.3125;-20.875;
1441975295231910;-0.76373291015625;0.0399169921875;-0.64324951171875;-0.036865234375;0.9777525799004291;17.91636441209014;8.771269348522974;1.16259765625;-0.03564453125;-0.15966796875;-5.75;-26.875;-16.5;
1441975295262912;-0.76580810546875;0.0389404296875;-0.64080810546875;-0.03765869140625;1.0142167166615543;17.873522363905103;8.814773867672345;1.15869140625;-0.0107421875;-0.18994140625;-1.125;-22.5625;-11.8125;
1441975295292914;-0.767578125;0.0382080078125;-0.63873291015625;-0.03857421875;1.0454126414952354;17.83560002626324;8.851884903163526;1.1767578125;0.005859375;-0.1962890625;-0.5;-18.9375;-8.375;
1441975295294914;-0.76910400390625;0.0377197265625;-0.6368408203125;-0.0394287109375;1.073331916934628;17.80594373960684;8.879972007008588;1.18994140625;0.04296875;-0.2099609375;-0.75;-15.875;-5.375;
1441975295314915;-0.77069091796875;0.0374755859375;-0.6348876953125;-0.04083251953125;1.102363070959931;17.769760070596938;8.911361251025419;1.19140625;0.0576171875;-0.22607421875;-1.5625;-13.75;-2.9375;
1441975295335916;-0.77197265625;0.0377197265625;-0.6331787109375;-0.042724609375;1.1271143263854353;17.732911845883898;8.939429836754696;1.14892578125;0.087890625;-0.25048828125;-4.625;-11.875;-2.3125;
1441975295351917;-0.7728271484375;0.03875732421875;-0.63189697265625;-0.04510498046875;1.1449447483639255;17.700228072763494;8.95812051300186;1.064453125;0.09765625;-0.2626953125;-8.125;-8.625;-1.125;
1441975295374918;-0.77337646484375;0.04046630859375;-0.63092041015625;-0.0477294921875;1.1577169252344388;17.674378961191955;8.96625123877398;0.9970703125;0.078125;-0.23974609375;-13.875;-5.5625;-0.3125;
1441975295395919;-0.773681640625;0.0423583984375;-0.6302490234375;-0.05010986328125;1.1658591965828697;17.65691608666521;8.966256189401664;0.9423828125;0.07080078125;-0.2470703125;-17.0625;-2.3125;0.9375;
1441975295411920;-0.7738037109375;0.0440673828125;-0.6297607421875;-0.0521240234375;1.1710020440961757;17.64390487397252;8.964039234004389;0.8818359375;0.05419921875;-0.24072265625;-17.25;0.0;1.6875;
1441975295442922;-0.7740478515625;0.04522705078125;-0.6292724609375;-0.053466796875;1.177037488006487;17.635983111839806;8.961724880755753;0.845703125;0.0390625;-0.21826171875;-15.0;0.3125;1.1875;
1441975295455923;-0.77435302734375;0.0458984375;-0.62884521484375;-0.05413818359375;1.182953472112849;17.63405599220961;8.958161625643285;0.80126953125;0.02392578125;-0.19873046875;-10.1875;-0.75;0.25;
1441975295471924;-0.774658203125;0.04638671875;-0.62835693359375;-0.05450439453125;1.1893848004966918;17.635553493449635;8.95313934436888;0.779296875;0.0224609375;-0.18505859375;-5.4375;-1.4375;0.75;
1441975295494925;-0.77508544921875;0.0467529296875;-0.6278076171875;-0.054931640625;1.197324155623909;17.633790951275586;8.951642454403439;0.78564453125;0.0322265625;-0.18017578125;-3.3125;-2.3125;1.125;
1441975295515926;-0.77557373046875;0.04742431640625;-0.62701416015625;-0.05572509765625;1.2078589609514303;17.629791572849296;8.94959978936391;0.81982421875;0.06298828125;-0.1826171875;-2.75;-3.375;2.625;
1441975295531927;-0.77618408203125;0.0489501953125;-0.62603759765625;-0.057373046875;1.2207904605487105;17.622653275077756;8.943732100866006;0.8515625;0.09228515625;-0.19189453125;-4.875;-4.5625;4.5625;
1441975295554929;-0.77679443359375;0.0516357421875;-0.6248779296875;-0.059814453125;1.2350508158855074;17.618609702649124;8.926774816503771;0.88427734375;0.11865234375;-0.193359375;-11.6875;-6.1875;6.9375;
1441975295575930;-0.77734375;0.05517578125;-0.62359619140625;-0.06243896484375;1.2496084980990132;17.62481684997398;8.895286578630316;0.9091796875;0.11572265625;-0.201171875;-19.25;-7.5;8.625;
1441975295598931;-0.77764892578125;0.05908203125;-0.62255859375;-0.06512451171875;1.2601340938421295;17.63498125422011;8.858098715023235;0.927734375;0.08544921875;-0.216796875;-23.6875;-7.0625;9.875;
1441975295614932;-0.77789306640625;0.06304931640625;-0.62164306640625;-0.06768798828125;1.2691481148527173;17.648137407099348;8.81818430745219;0.94482421875;0.06787109375;-0.21240234375;-25.6875;-6.125;10.25;
1441975295635933;-0.77813720703125;0.067138671875;-0.62060546875;-0.070068359375;1.27928995076332;17.66660847525342;8.773151691713771;0.958984375;0.07568359375;-0.20849609375;-25.1875;-5.9375;11.375;
1441975295651934;-0.77825927734375;0.0711669921875;-0.61981201171875;-0.0721435546875;1.2865197693632164;17.68970793093205;8.725020753143898;0.9736328125;0.06591796875;-0.21826171875;-24.75;-6.25;12.0625;
1441975295682936;-0.77813720703125;0.07464599609375;-0.61932373046875;-0.0738525390625;1.2895221650542241;17.711029576096475;8.682403944418596;0.97607421875;0.04443359375;-0.21826171875;-23.5625;-5.125;11.375;
1441975295695937;-0.7779541015625;0.07720947265625;-0.61907958984375;-0.07525634765625;1.2900942433124305;17.723799141132663;8.65336607971348;0.98486328125;0.00830078125;-0.205078125;-20.4375;-3.9375;8.625;
1441975295711937;-0.77789306640625;0.07891845703125;-0.61883544921875;-0.076171875;1.2916774084860954;17.732660327154946;8.633732704036984;0.97705078125;0.00732421875;-0.18994140625;-15.5;-3.25;5.3125;
1441975295735939;-0.77777099609375;0.08038330078125;-0.61865234375;-0.07720947265625;1.2922553936949632;17.73519195331616;8.620923234149656;0.96923828125;0.01220703125;-0.20458984375;-10.625;-2.375;3.8125;
1441975295763940;-0.7777099609375;0.08154296875;-0.61846923828125;-0.078125;1.2932862570844634;17.73527884642558;8.61231713506175;0.96337890625;0.01611328125;-0.19873046875;-10.0;-2.1875;2.625;
1441975295771941;-0.77777099609375;0.0821533203125;-0.61822509765625;-0.07861328125;1.2958158027998756;17.73508446062966;8.60797619650548;0.94873046875;0.0146484375;-0.19677734375;-8.4375;-2.1875;1.4375;
1441975295795942;-0.77801513671875;0.08233642578125;-0.617919921875;-0.07879638671875;1.300254136502977;17.734110537926874;8.607438263509344;0.9384765625;0.01123046875;-0.19482421875;-4.4375;-2.5;0.125;
1441975295817944;-0.7784423828125;0.08233642578125;-0.61737060546875;-0.0787353515625;1.3082424534040313;17.734906769696174;8.60683219829071;0.921875;0.01171875;-0.19140625;-1.5;-3.875;-0.5625;
1441975295831944;-0.77886962890625;0.08270263671875;-0.6168212890625;-0.07830810546875;1.3163775327698743;17.748634740838128;8.593294428421308;0.9072265625;0.02490234375;-0.18896484375;0.0625;-5.1875;0.3125;
1441975295854946;-0.77935791015625;0.0831298828125;-0.6162109375;-0.07769775390625;1.325600924188118;17.766657564207584;8.575956433363832;0.9013671875;0.00927734375;-0.1884765625;0.4375;-5.9375;1.9375;
1441975295875947;-0.780029296875;0.08343505859375;-0.615478515625;-0.0762939453125;1.3375923619029175;17.797765809399916;8.549271650233315;0.90625;4.8828125E-4;-0.1806640625;0.8125;-7.25;2.3125;
1441975295891948;-0.7808837890625;0.0833740234375;-0.61468505859375;-0.07415771484375;1.351839539512115;17.836686004860468;8.519285681568395;0.92822265625;-0.0244140625;-0.193359375;4.8125;-8.375;2.9375;
1441975295913949;-0.78167724609375;0.08331298828125;-0.61395263671875;-0.07196044921875;1.36533240582955;17.876187519566706;8.488968265103932;0.9775390625;-0.0185546875;-0.21435546875;9.0;-8.8125;4.375;
1441975295935950;-0.78240966796875;0.08355712890625;-0.61322021484375;-0.0697021484375;1.3787994612751073;17.920738635651514;8.452586211625475;1.029296875;0.01171875;-0.22314453125;10.3125;-9.0625;6.8125;
1441975295952951;-0.78314208984375;0.08441162109375;-0.61236572265625;-0.068115234375;1.3934448695944999;17.96066904631026;8.415572877603196;1.0712890625;0.01708984375;-0.2314453125;9.0625;-9.0625;9.0;
1441975295974953;-0.7838134765625;0.08599853515625;-0.61138916015625;-0.06732177734375;1.4087842014930585;17.995548150855292;8.377338661162351;1.09375;0.00439453125;-0.24658203125;4.0;-9.5;8.75;
1441975295995954;-0.7841796875;0.08843994140625;-0.610595703125;-0.066650390625;1.4211826022696998;0.040494946112767195;8.325018066545805;1.0771484375;-0.01953125;-0.2548828125;-2.5;-8.5625;8.0;
1441975296011955;-0.7845458984375;0.09130859375;-0.60980224609375;-0.0660400390625;1.4343407623080098;0.0894847464058679;8.266670793924073;1.08349609375;-0.0673828125;-0.25830078125;-6.9375;-7.4375;8.375;
1441975296034956;-0.78485107421875;0.09423828125;-0.609130859375;-0.06512451171875;1.4469756343864668;0.14427984596136692;8.203534797452974;1.1044921875;-0.076171875;-0.2841796875;-8.8125;-5.9375;9.875;
1441975296071958;-0.78515625;0.09674072265625;-0.6083984375;-0.063720703125;1.4609449319008072;0.20065032719204834;8.14250778310899;1.08740234375;-0.0908203125;-0.30126953125;-7.6875;-4.4375;10.625;
1441975296074958;-0.78564453125;0.09844970703125;-0.60772705078125;-0.0616455078125;1.4761938415301972;0.256650340652908;8.087908410617608;1.0234375;-0.1220703125;-0.30224609375;-4.375;-3.625;8.875;
1441975296094959;-0.7861328125;0.09930419921875;-0.60723876953125;-0.05902099609375;1.489975889059106;0.3103792265307284;8.041364086182877;0.9541015625;-0.14892578125;-0.30322265625;0.75;-2.9375;5.625;
1441975296117961;-0.7864990234375;0.099609375;-0.60699462890625;-0.05584716796875;1.5013408460493782;0.36677998092912734;7.996666924983498;0.912109375;-0.15478515625;-0.30517578125;6.5;-1.4375;3.6875;
1441975296131962;-0.78680419921875;0.0997314453125;-0.60693359375;-0.05242919921875;1.5113029327327834;0.4251714829709022;7.951772234450779;0.9052734375;-0.12646484375;-0.31982421875;11.8125;1.0625;5.625;
1441975296162963;-0.7869873046875;0.10003662109375;-0.60687255859375;-0.04937744140625;1.520460176927358;0.4795386590912271;7.908618649835399;0.9248046875;-0.08837890625;-0.3466796875;14.1875;3.625;9.0;
1441975296177964;-0.78729248046875;0.10089111328125;-0.60650634765625;-0.04705810546875;1.5329598659378019;0.5261446005772678;7.867939994241821;0.94482421875;-0.04736328125;-0.36181640625;12.9375;4.5;11.375;
1441975296192965;-0.78765869140625;0.1025390625;-0.6058349609375;-0.045654296875;1.5483851444813719;0.5651121329452602;7.827848136910578;0.94970703125;-0.03466796875;-0.36865234375;8.125;3.125;12.6875;
1441975296213966;-0.78802490234375;0.10491943359375;-0.60504150390625;-0.04510498046875;1.5646701772672964;0.5977534384780444;7.787576360019235;0.94921875;-0.03369140625;-0.36572265625;0.8125;1.875;13.125;
1441975296237968;-0.78826904296875;0.10784912109375;-0.604248046875;-0.04486083984375;1.5809343139909362;0.6318586304766648;7.742309781806816;0.94580078125;-0.0458984375;-0.361328125;-5.4375;1.375;13.0;
1441975296251968;-0.78851318359375;0.11102294921875;-0.60333251953125;-0.0447998046875;1.5986557043338885;0.6644925924858767;7.696717928640686;0.9306640625;-0.06884765625;-0.37255859375;-9.3125;2.25;12.6875;
1441975296273970;-0.78887939453125;0.11395263671875;-0.60235595703125;-0.04461669921875;1.6176702645922232;0.6944567763516839;7.655307056803134;0.90625;-0.0986328125;-0.36767578125;-11.4375;2.125;11.4375;
1441975296297971;-0.7894287109375;0.116455078125;-0.60113525390625;-0.04412841796875;1.6399326822857718;0.7212615288109216;7.6199999233753;0.875;-0.1162109375;-0.3623046875;-10.4375;1.125;9.8125;
1441975296311972;-0.790283203125;0.11834716796875;-0.59967041015625;-0.04364013671875;1.6646930377302946;0.7377196797470456;7.5975452434766;0.8623046875;-0.125;-0.3681640625;-7.75;-0.25;8.0625;
1441975296334973;-0.79132080078125;0.11956787109375;-0.59808349609375;-0.0430908203125;1.690019758099791;0.7457390945730128;7.586534010589064;0.8603515625;-0.11279296875;-0.37158203125;-5.125;-2.0;6.125;
1441975296357974;-0.7926025390625;0.1202392578125;-0.5963134765625;-0.042724609375;1.7163576345424887;0.7428537223749783;7.587944908797335;0.8583984375;-0.10009765625;-0.36962890625;-2.5;-3.6875;4.0625;
1441975296371975;-0.7939453125;0.1207275390625;-0.59442138671875;-0.04266357421875;1.7426876122768873;0.7327974926277374;7.5959996121810995;0.869140625;-0.07861328125;-0.36572265625;-1.3125;-5.5;2.5;
1441975296394977;-0.79547119140625;0.121337890625;-0.59222412109375;-0.04327392578125;1.7711327527560918;0.7123017263207997;7.611202939034067;0.88525390625;-0.056640625;-0.36669921875;-1.75;-7.0;1.9375;
1441975296417978;-0.797119140625;0.122314453125;-0.58966064453125;-0.0443115234375;1.8033136127237628;0.6877240965138919;7.627133480130434;0.90869140625;-0.03125;-0.3681640625;-4.8125;-9.125;1.6875;
1441975296440979;-0.79888916015625;0.12353515625;-0.58697509765625;-0.0457763671875;1.8368006795045435;0.6592275264498716;7.644239624605017;0.91455078125;-0.03857421875;-0.37158203125;-8.25;-11.25;1.3125;
1441975296454980;-0.80072021484375;0.12493896484375;-0.583984375;-0.04742431640625;1.8734032455294067;0.6291943840500749;7.661257051031404;0.92333984375;-0.046875;-0.3623046875;-11.375;-13.375;0.375;
1441975296479981;-0.80267333984375;0.126220703125;-0.58087158203125;-0.0491943359375;1.9113188549498548;0.5962543021910933;7.681166973046436;0.91796875;-0.0634765625;-0.3564453125;-13.625;-15.4375;-1.25;
1441975296507983;-0.80474853515625;0.12738037109375;-0.57763671875;-0.05096435546875;1.9509352985308988;0.5622609674395838;7.702613471612766;0.9267578125;-0.080078125;-0.35205078125;-14.3125;-17.375;-2.9375;
1441975296522984;-0.80682373046875;0.128173828125;-0.5743408203125;-0.05267333984375;1.9905834787660894;0.5265904964802932;7.72743290346329;0.91796875;-0.0947265625;-0.35498046875;-14.4375;-18.75;-5.0625;
1441975296537985;-0.8089599609375;0.12841796875;-0.57110595703125;-0.054443359375;2.028903577787295;0.4864152291363982;7.758801609883131;0.90869140625;-0.1044921875;-0.34521484375;-13.3125;-19.5;-7.5;
1441975296558986;-0.81109619140625;0.1282958984375;-0.56793212890625;-0.05621337890625;2.0662015827460145;0.4445492782987465;7.793378679290547;0.904296875;-0.09326171875;-0.34228515625;-11.5;-19.9375;-9.625;
1441975296573987;-0.81304931640625;0.1280517578125;-0.56500244140625;-0.05792236328125;2.10038160552276;0.4050558197979461;7.826356107580069;0.8994140625;-0.07763671875;-0.3544921875;-10.0625;-19.125;-10.625;
1441975296597988;-0.81488037109375;0.12762451171875;-0.56231689453125;-0.0594482421875;2.131954275011598;0.36853719561730325;7.857915230194029;0.91552734375;-0.072265625;-0.3642578125;-8.9375;-17.6875;-10.6875;
1441975296618989;-0.8165283203125;0.1270751953125;-0.5599365234375;-0.06097412109375;2.1596455806779917;0.3333260779284457;7.888728856879336;0.9326171875;-0.07568359375;-0.375;-7.8125;-16.25;-10.9375;
1441975296640991;-0.8177490234375;0.1268310546875;-0.5579833984375;-0.0625;2.181524077538628;0.3036765999730187;7.912729692280144;0.9404296875;-0.05322265625;-0.373046875;-7.0625;-14.875;-10.125;
1441975296657992;-0.81866455078125;0.12713623046875;-0.55633544921875;-0.06427001953125;2.1992577483768723;0.2775833523091876;7.929926102325474;0.99462890625;-0.01708984375;-0.384765625;-6.5625;-12.8125;-6.125;
1441975296685993;-0.81964111328125;0.12799072265625;-0.55450439453125;-0.0665283203125;2.2190703406396635;0.2497193586908625;7.94457558264235;1.05615234375;-0.009765625;-0.40087890625;-9.375;-10.8125;-3.375;
1441975296694994;-0.82080078125;0.12908935546875;-0.55230712890625;-0.06842041015625;2.244623850199463;0.22736949332774753;7.954094437905046;1.041015625;-0.03515625;-0.365234375;-14.5;-14.125;-4.25;
1441975296719995;-0.82196044921875;0.130126953125;-0.55010986328125;-0.06976318359375;2.2712101991304126;0.211522352130412;7.959595057948072;0.9443359375;-0.091796875;-0.3076171875;-15.375;-18.375;-6.625;
1441975296738996;-0.82305908203125;0.13079833984375;-0.5482177734375;-0.07049560546875;2.295234186770874;0.20120749301854007;7.963694350744882;0.89111328125;-0.13525390625;-0.2763671875;-14.0;-19.9375;-8.125;
1441975296755997;-0.82415771484375;0.1307373046875;-0.54669189453125;-0.07037353515625;2.3164209593805056;0.19638064126163268;7.969013769331824;0.8818359375;-0.13427734375;-0.2890625;-9.375;-17.5;-7.75;
1441975296784999;-0.8251953125;0.1300048828125;-0.54534912109375;-0.06988525390625;2.335257215528079;0.19133486685481566;7.978872559851599;0.87939453125;-0.10498046875;-0.3232421875;-2.4375;-14.0625;-6.4375;
1441975296800000;-0.8262939453125;0.12896728515625;-0.54388427734375;-0.069580078125;2.3548566361139986;0.18152133011184718;7.993966142508495;0.8876953125;-0.0751953125;-0.3515625;2.8125;-11.6875;-6.375;
1441975296814001;-0.82733154296875;0.12835693359375;-0.5423583984375;-0.07012939453125;2.3737137523951732;0.16512801754531076;8.01031963205224;0.89404296875;-0.0478515625;-0.37841796875;3.3125;-10.75;-7.0625;
1441975296838002;-0.82794189453125;0.12884521484375;-0.54119873046875;-0.0714111328125;2.3867033935843893;0.15025145166093803;8.01761655862175;0.890625;-0.0205078125;-0.39697265625;-1.3125;-9.5625;-5.8125;
1441975296859003;-0.82806396484375;0.13006591796875;-0.54058837890625;-0.07281494140625;2.392281455627466;0.14156766354506808;8.015253913592698;0.89599609375;-0.01953125;-0.39501953125;-8.25;-6.625;-2.5;
1441975296874004;-0.8277587890625;0.1312255859375;-0.54052734375;-0.07373046875;2.3908572061658653;0.1400140121478521;8.00808425315703;0.89013671875;-0.05322265625;-0.40380859375;-12.0;-2.3125;-0.875;
1441975296897005;-0.82733154296875;0.13189697265625;-0.54107666015625;-0.0740966796875;2.383283830438357;0.14274292869405084;8.001181549332482;0.89892578125;-0.06494140625;-0.40087890625;-9.3125;1.0625;-0.375;
1441975296926007;-0.82666015625;0.1324462890625;-0.54193115234375;-0.07427978515625;2.3715212773445304;0.14781610087493524;7.9932231107043235;0.92333984375;-0.060546875;-0.4140625;-4.6875;4.1875;0.3125;
1441975296935007;-0.82574462890625;0.1329345703125;-0.5430908203125;-0.07476806640625;2.35475570089832;0.15001691261740444;7.987177160364063;0.93408203125;-0.04345703125;-0.43017578125;-2.8125;7.5;1.1875;
1441975296957009;-0.8248291015625;0.1334228515625;-0.54425048828125;-0.07568359375;2.3372015617298922;0.14721981379269414;7.984383934577676;0.94921875;-0.02685546875;-0.44091796875;-3.5;10.125;1.6875;
1441975296986010;-0.82379150390625;0.134033203125;-0.5455322265625;-0.07684326171875;2.3174617208717674;0.14296657092820636;7.981553635399274;0.95703125;-0.02294921875;-0.43994140625;-5.375;10.8125;0.6875;
1441975297003011;-0.82257080078125;0.13470458984375;-0.54693603515625;-0.078369140625;2.2948504836954626;0.13539263365037613;7.980265239013376;0.95654296875;-0.0361328125;-0.4326171875;-7.3125;11.4375;-0.625;
1441975297017012;-0.8211669921875;0.13531494140625;-0.54876708984375;-0.0797119140625;2.2673536487603485;0.1308218637901929;7.977133429327205;0.9619140625;-0.0380859375;-0.41943359375;-9.125;12.0;-1.0;
1441975297040013;-0.81976318359375;0.1357421875;-0.550537109375;-0.08111572265625;2.240068816016519;0.12384519324530696;7.976874079249122;1.02197265625;-0.0244140625;-0.4208984375;-7.625;13.1875;0.1875;
1441975297063015;-0.81854248046875;0.135986328125;-0.55206298828125;-0.0826416015625;2.215744809488997;0.1128509052762108;7.980848218499273;1.05615234375;-0.01025390625;-0.43603515625;-7.0;13.875;0.125;
1441975297077016;-0.81768798828125;0.135986328125;-0.55303955078125;-0.0841064453125;2.1986506526485825;0.09846560292112355;7.9893428087219;1.03125;-0.01611328125;-0.416015625;-7.375;11.8125;-2.1875;
1441975297108017;-0.817138671875;0.1357421875;-0.55377197265625;-0.08544921875;2.185694780805231;0.08228338683952856;8.001169128494098;0.978515625;-0.04833984375;-0.3837890625;-7.5625;7.625;-5.5625;
1441975297114018;-0.81671142578125;0.13482666015625;-0.55450439453125;-0.08624267578125;2.1736815453059912;0.06693548508698119;8.017214692339248;0.9150390625;-0.0703125;-0.34423828125;-6.5625;4.875;-8.625;
1441975297137019;-0.81634521484375;0.133056640625;-0.55548095703125;-0.08642578125;2.159850659253711;0.052249981127902016;8.038762095917248;0.896484375;-0.0654296875;-0.33837890625;-2.0625;4.625;-9.875;
1441975297168021;-0.816162109375;0.13043212890625;-0.5562744140625;-0.08624267578125;2.1486089291607713;0.033914819858661495;8.068927196200102;0.90234375;-0.0302734375;-0.34814453125;4.5;5.9375;-9.875;
1441975297174021;-0.81622314453125;0.12744140625;-0.55694580078125;-0.086181640625;2.1396480453380278;0.009964320712005611;8.10577686449004;0.919921875;0.01513671875;-0.375;10.3125;6.375;-9.8125;
1441975297197022;-0.81640625;0.124755859375;-0.55718994140625;-0.086669921875;2.1352156045890336;17.98040677427076;8.14455611913694;0.9384765625;0.0556640625;-0.388671875;11.6875;5.5625;-9.75;
1441975297220024;-0.8165283203125;0.12255859375;-0.55743408203125;-0.08746337890625;2.1307003247946557;17.951154177726103;8.179757840786216;0.9423828125;0.0712890625;-0.396484375;8.375;3.9375;-9.75;
1441975297234025;-0.81640625;0.1207275390625;-0.557861328125;-0.0880126953125;2.1237385234236217;17.92874060994698;8.207584030051764;0.9365234375;0.05517578125;-0.37939453125;4.6875;3.375;-9.375;
1441975297265026;-0.81622314453125;0.11865234375;-0.55859375;-0.08795166015625;2.1142114181514837;17.91246768261994;8.232901019703053;0.92431640625;0.0263671875;-0.35400390625;4.0625;3.5;-9.0;
1441975297281027;-0.81622314453125;0.1160888671875;-0.55926513671875;-0.08721923828125;2.1069573352818223;17.9001246057675;8.259085906400555;0.90087890625;0.00927734375;-0.33544921875;7.25;3.9375;-9.1875;
1441975297294028;-0.81634521484375;0.1129150390625;-0.55987548828125;-0.086181640625;2.1010872611652487;17.885948845178003;8.29086911359547;0.8994140625;0.0048828125;-0.3408203125;12.0625;3.5625;-9.625;
1441975297318029;-0.816650390625;0.109375;-0.560302734375;-0.08514404296875;2.098033955537096;17.86794671706091;8.327969555386012;0.89306640625;0.013671875;-0.32763671875;15.25;2.3125;-11.125;
1441975297356032;-0.817138671875;0.10565185546875;-0.56048583984375;-0.084228515625;2.0984377325013908;17.84619026444141;8.369036757520584;0.87890625;0.02734375;-0.31201171875;16.875;0.3125;-12.5625;
1441975297386033;-0.817626953125;0.1019287109375;-0.560546875;-0.08331298828125;2.100213294449743;17.824319047388407;8.410150846773353;0.87109375;0.0390625;-0.3095703125;17.0;-1.0;-13.375;
1441975297388033;-0.818115234375;0.09814453125;-0.5606689453125;-0.08233642578125;2.101662159989447;17.80281060325227;8.451435577191774;0.8701171875;0.041015625;-0.31396484375;17.1875;-1.1875;-13.375;
1441975297401034;-0.818603515625;0.09429931640625;-0.560791015625;-0.081298828125;2.1033557477782603;17.781598871390393;8.492922907906603;0.88525390625;0.046875;-0.31787109375;17.4375;-1.1875;-13.25;
1441975297429036;-0.81903076171875;0.0904541015625;-0.5609130859375;-0.08013916015625;2.1049339423833358;17.76205530456828;8.533210727219963;0.89697265625;0.05322265625;-0.3193359375;18.4375;-1.4375;-13.1875;
1441975297437036;-0.81927490234375;0.08673095703125;-0.561279296875;-0.07916259765625;2.1031493170720306;17.741412010941076;8.573381735999526;0.9111328125;0.064453125;-0.322265625;19.0;-1.5625;-12.25;
1441975297460037;-0.81939697265625;0.08343505859375;-0.56170654296875;-0.07830810546875;2.1001565766535837;17.723011152607654;8.609031745042477;0.93359375;0.08349609375;-0.310546875;18.125;-1.125;-10.625;
1441975297481039;-0.8193359375;0.0806884765625;-0.56231689453125;-0.0777587890625;2.0942889965282285;17.705549880196774;8.64024286727437;0.9658203125;0.10009765625;-0.314453125;16.6875;-0.8125;-8.375;
1441975297497040;-0.8192138671875;0.07861328125;-0.56280517578125;-0.07769775390625;2.089126117663414;17.68758271479594;8.667124894267587;1.01123046875;0.11328125;-0.30615234375;13.625;-1.3125;-6.0;
1441975297520041;-0.8189697265625;0.0772705078125;-0.563232421875;-0.07818603515625;2.0836496269525395;17.6688892221718;8.689400750123928;1.021484375;0.1162109375;-0.30419921875;9.1875;-1.75;-4.625;
1441975297543042;-0.8187255859375;0.07659912109375;-0.5635986328125;-0.0791015625;2.078652762885778;17.65057474154269;8.706772148929337;1.017578125;0.1064453125;-0.30078125;3.9375;-2.0625;-3.3125;
1441975297557043;-0.8184814453125;0.07623291015625;-0.5638427734375;-0.080078125;2.074794822371855;17.63416748608323;8.720681382973074;1.0087890625;0.09033203125;-0.29443359375;-0.75;-2.75;-2.875;
1441975297580044;-0.81817626953125;0.0758056640625;-0.564208984375;-0.08087158203125;2.0694663676848535;17.619552506276182;8.733825977193263;0.998046875;0.06982421875;-0.28857421875;-2.6875;-2.875;-3.3125;
1441975297601046;-0.81793212890625;0.0750732421875;-0.56463623046875;-0.081298828125;2.064107112238856;17.60695853597895;8.747753551122438;1.0029296875;0.05517578125;-0.27587890625;-2.0;-3.375;-4.0;
1441975297617046;-0.81781005859375;0.07391357421875;-0.56500244140625;-0.08135986328125;2.060305522806695;17.595303873686035;8.764016203791998;1.00537109375;0.0537109375;-0.2822265625;1.125;-3.125;-4.4375;
1441975297641048;-0.81768798828125;0.07244873046875;-0.5653076171875;-0.08135986328125;2.057251275386815;17.58159005898363;8.783807959189947;0.9970703125;0.05712890625;-0.283203125;3.6875;-3.0;-5.0625;
1441975297661049;-0.817626953125;0.07086181640625;-0.56561279296875;-0.08154296875;2.054754065187969;17.564280616790914;8.806972892976827;0.98583984375;0.06689453125;-0.28955078125;5.3125;-2.5;-5.75;
1441975297677050;-0.8175048828125;0.0693359375;-0.56591796875;-0.08184814453125;2.051952428635241;17.545808131100756;8.830523446960749;0.9677734375;0.0732421875;-0.29052734375;5.25;-2.0625;-6.5625;
1441975297700051;-0.8173828125;0.06787109375;-0.56622314453125;-0.0821533203125;2.0492203303110315;17.527848399500712;8.853311072683901;0.9619140625;0.07421875;-0.28857421875;4.1875;-1.875;-7.0625;
1441975297729053;-0.817138671875;0.06634521484375;-0.56671142578125;-0.08233642578125;2.0440698514478344;17.510696532867485;8.876066764901177;0.95849609375;0.0625;-0.287109375;3.8125;-1.75;-7.25;
1441975297737053;-0.81695556640625;0.064697265625;-0.56719970703125;-0.0821533203125;2.039350712459017;17.497293664766513;8.89709787468685;0.9306640625;0.0654296875;-0.2763671875;4.625;-0.625;-7.1875;
1441975297760055;-0.81671142578125;0.06304931640625;-0.56781005859375;-0.08184814453125;2.0331022151105853;17.485312684179853;8.917231745687436;0.923828125;0.07080078125;-0.28857421875;6.6875;0.5;-6.0;
1441975297781056;-0.81640625;0.0615234375;-0.56842041015625;-0.08154296875;2.02641770349903;17.474315217726964;8.935854703073272;0.92529296875;0.08154296875;-0.28466796875;7.3125;0.625;-5.0625;
1441975297797057;-0.81597900390625;0.0604248046875;-0.56927490234375;-0.08123779296875;2.0163487623399803;17.466933482828455;8.94916271070961;0.93896484375;0.10546875;-0.30078125;7.75;1.625;-2.8125;
1441975297819058;-0.81536865234375;0.0596923828125;-0.5701904296875;-0.08123779296875;2.0043973384415845;17.458508065972264;8.960713392105456;0.97314453125;0.11181640625;-0.31396484375;6.3125;3.5;-0.6875;
1441975297841059;-0.81463623046875;0.05926513671875;-0.5712890625;-0.08111572265625;1.9896249128641643;17.454264202347844;8.967357456014467;0.96826171875;0.10888671875;-0.3271484375;3.6875;5.1875;0.125;
1441975297857060;-0.81378173828125;0.05914306640625;-0.57244873046875;-0.081298828125;1.9734026989057571;17.448480238651328;8.973018176537028;0.9658203125;0.0859375;-0.32421875;2.3125;6.5;0.3125;
1441975297879061;-0.8128662109375;0.05902099609375;-0.57379150390625;-0.08135986328125;1.955005495074582;17.444054910455392;8.97787017337321;0.9580078125;0.06884765625;-0.328125;-0.25;7.6875;-0.125;
1441975297901063;-0.8118896484375;0.05859375;-0.57525634765625;-0.08111572265625;1.935159170849448;17.44059393082252;8.984278428552473;0.95947265625;0.046875;-0.32958984375;-0.5;8.875;-1.0;
1441975297917064;-0.81109619140625;0.05755615234375;-0.5765380859375;-0.08062744140625;1.9186291725260847;17.434776585148978;8.996534644161658;0.94775390625;0.03369140625;-0.31689453125;2.25;9.5;-2.3125;
1441975297939065;-0.810546875;0.05621337890625;-0.5775146484375;-0.08013916015625;1.9068517585872342;17.42637973248098;9.012590337032222;0.9345703125;0.0400390625;-0.31298828125;5.0625;8.4375;-4.0;
1441975297963066;-0.81005859375;0.05511474609375;-0.57830810546875;-0.07989501953125;1.8971448730137563;17.417128359692263;9.027453240742188;0.92333984375;0.0556640625;-0.310546875;6.375;6.875;-4.375;
1441975297977067;-0.809814453125;0.05419921875;-0.57879638671875;-0.07989501953125;1.8919129774291874;17.40686866913837;9.041552412299282;0.9287109375;0.05517578125;-0.30810546875;4.75;5.0625;-4.5625;
1441975297999068;-0.80975341796875;0.053466796875;-0.57891845703125;-0.07989501953125;1.8911278416611592;17.39915278676675;9.052286551010873;0.9375;0.05126953125;-0.30810546875;2.6875;3.0625;-4.75;
1441975298022070;-0.8099365234375;0.05279541015625;-0.5787353515625;-0.0799560546875;1.894787126700428;17.39195819775781;9.061976505300837;0.94775390625;0.0517578125;-0.32275390625;2.0;1.3125;-4.625;
1441975298037070;-0.81024169921875;0.05224609375;-0.578369140625;-0.080078125;1.9008831489918467;17.38560102400006;9.070056777123368;0.95263671875;0.052734375;-0.3349609375;1.5;-0.0625;-4.5625;
1441975298059072;-0.8106689453125;0.0517578125;-0.5777587890625;-0.080322265625;1.9100942021973415;17.378696172404034;9.07788870707081;0.95068359375;0.05126953125;-0.33837890625;0.75;-1.1875;-4.4375;
1441975298083073;-0.8111572265625;0.05126953125;-0.5770263671875;-0.08062744140625;1.9209041347983877;17.371265673902254;9.085973184246209;0.943359375;0.04736328125;-0.34375;0.1875;-2.5;-4.9375;
1441975298097074;-0.81170654296875;0.0509033203125;-0.57623291015625;-0.08099365234375;1.9326100696985282;17.364464183320667;9.092679772618505;0.9384765625;0.0498046875;-0.33740234375;-0.6875;-3.4375;-5.25;
1441975298119075;-0.81219482421875;0.0504150390625;-0.5755615234375;-0.08135986328125;1.9429351883824677;17.35626807663125;9.101304160347869;0.93408203125;0.05126953125;-0.3388671875;-1.0625;-3.9375;-4.9375;
1441975298143077;-0.812744140625;0.0498046875;-0.5748291015625;-0.08135986328125;1.9540483596897276;17.352241219519748;9.107757709867265;0.93701171875;0.0625;-0.3310546875;-0.125;-3.9375;-4.5;
1441975298157077;-0.81329345703125;0.04901123046875;-0.57415771484375;-0.081298828125;1.9647624395093586;17.347252009964613;9.116197320606215;0.93310546875;0.06494140625;-0.3349609375;1.75;-3.9375;-4.0;
1441975298179079;-0.81390380859375;0.04840087890625;-0.57330322265625;-0.0811767578125;1.9773058099504617;17.345308000005467;9.121046258779085;0.9306640625;0.0771484375;-0.33447265625;2.75;-4.1875;-3.625;
1441975298203080;-0.814453125;0.0479736328125;-0.57257080078125;-0.0811767578125;1.9882135427427523;17.34321052832264;9.124823355466209;0.92529296875;0.07763671875;-0.33935546875;2.625;-4.625;-2.9375;
1441975298217081;-0.81494140625;0.04766845703125;-0.57183837890625;-0.081298828125;1.9986942231581897;17.34053586676615;9.128154919856486;0.92822265625;0.07568359375;-0.3271484375;1.25;-5.0;-2.5;
1441975298239082;-0.8154296875;0.04736328125;-0.57122802734375;-0.0814208984375;2.0080411796683357;17.33771960548642;9.131674777062031;0.9267578125;0.07958984375;-0.32373046875;0.5625;-5.1875;-2.3125;
1441975298263083;-0.81591796875;0.04705810546875;-0.570556640625;-0.08148193359375;2.0178983310349548;17.335843292765265;9.134481707274283;0.93115234375;0.07763671875;-0.3212890625;0.5625;-5.1875;-2.1875;
1441975298277084;-0.8162841796875;0.04656982421875;-0.57000732421875;-0.08154296875;2.0260573095980896;17.33188384145799;9.140122411975254;0.931640625;0.080078125;-0.31982421875;0.8125;-5.25;-2.1875;
1441975298299085;-0.816650390625;0.046142578125;-0.56951904296875;-0.08160400390625;2.03357617042354;17.328442529412182;9.145018398550976;0.94287109375;0.08349609375;-0.31640625;1.4375;-5.0625;-2.375;
1441975298323087;-0.8170166015625;0.04547119140625;-0.569091796875;-0.08172607421875;2.0409047779491662;17.321865359518807;9.153824109404292;0.94775390625;0.0732421875;-0.30859375;1.25;-5.5;-3.25;
1441975298337088;-0.8172607421875;0.04461669921875;-0.5687255859375;-0.08160400390625;2.0468745614453545;17.316588507267145;9.163058625162611;0.9443359375;0.07421875;-0.30859375;1.6875;-5.1875;-4.25;
1441975298359089;-0.8175048828125;0.04345703125;-0.56854248046875;-0.08148193359375;2.0515556683264675;17.308268773567516;9.176656396908836;0.9560546875;0.07080078125;-0.322265625;3.25;-3.75;-4.75;
1441975298382090;-0.817626953125;0.04205322265625;-0.56854248046875;-0.0811767578125;2.0539027157273826;17.299665031127102;9.19231299742164;0.95556640625;0.07763671875;-0.3310546875;4.25;-2.125;-5.75;
1441975298397091;-0.81768798828125;0.04058837890625;-0.56854248046875;-0.08087158203125;2.0559754588547765;17.290409260530645;9.208850330403756;0.9580078125;0.08154296875;-0.3359375;5.9375;-0.875;-5.875;
1441975298419092;-0.817626953125;0.03900146484375;-0.56878662109375;-0.08050537109375;2.055132570431267;17.280210301809475;9.227126188739327;0.9599609375;0.08349609375;-0.34814453125;6.25;0.375;-6.3125;
1441975298451094;-0.8175048828125;0.037353515625;-0.56915283203125;-0.08001708984375;2.052748670129459;17.270717333915787;9.245468303146694;0.94921875;0.08056640625;-0.33740234375;6.5625;1.5;-6.75;
1441975298464095;-0.81732177734375;0.03570556640625;-0.56964111328125;-0.07940673828125;2.0487274381560643;17.262459360705286;9.26309624832124;0.947265625;0.083984375;-0.3466796875;7.5;2.9375;-6.25;
1441975298480096;-0.81707763671875;0.0340576171875;-0.5701904296875;-0.07861328125;2.043545827524231;17.256335656801575;9.279339627326541;0.94873046875;0.0869140625;-0.35302734375;8.1875;4.25;-5.4375;
1441975298503097;-0.81689453125;0.03253173828125;-0.5706787109375;-0.07769775390625;2.0389936780665776;17.253156090591844;9.292637319521482;0.9453125;0.08544921875;-0.35546875;8.8125;4.8125;-5.0625;
1441975298524098;-0.81671142578125;0.031005859375;-0.5711669921875;-0.07684326171875;2.0345344630015383;17.249126036300286;9.306533428082405;0.94140625;0.07861328125;-0.349609375;9.0;4.375;-4.9375;
1441975298540099;-0.81646728515625;0.02972412109375;-0.5716552734375;-0.07598876953125;2.029308779457131;17.247173043093905;9.317329835337537;0.935546875;0.07958984375;-0.345703125;8.75;3.9375;-4.6875;
1441975298563101;-0.81640625;0.028564453125;-0.57196044921875;-0.0751953125;2.0268463631104248;17.246293180821798;9.326300621200161;0.92822265625;0.07421875;-0.33642578125;7.5625;3.5;-4.0;
1441975298584102;-0.81640625;0.02752685546875;-0.57208251953125;-0.07440185546875;2.0262752410886744;17.24704422330652;9.333101606892026;0.9296875;0.07666015625;-0.34033203125;7.375;2.8125;-3.4375;
1441975298599103;-0.81646728515625;0.02667236328125;-0.57208251953125;-0.07379150390625;2.0271861038040826;17.2474321817825;9.33874449258376;0.9423828125;0.08056640625;-0.349609375;6.6875;1.8125;-2.8125;
1441975298623104;-0.81658935546875;0.0260009765625;-0.572021484375;-0.07330322265625;2.02892882246326;17.248152338687895;9.34280276309503;0.9453125;0.08056640625;-0.3466796875;5.4375;0.5625;-2.625;
1441975298644105;-0.81683349609375;0.02545166015625;-0.57171630859375;-0.07293701171875;2.033687528805699;17.24915685899282;9.345539019973435;0.94873046875;0.0771484375;-0.34033203125;4.0625;-0.4375;-2.625;
1441975298659106;-0.817138671875;0.02508544921875;-0.5714111328125;-0.0726318359375;2.03862654321873;17.251177984419243;9.346274494004518;0.94873046875;0.072265625;-0.34765625;2.875;-1.4375;-2.625;
1441975298683107;-0.8175048828125;0.02471923828125;-0.5709228515625;-0.07244873046875;2.0458236972322177;17.252089239944297;9.347583697769196;0.94921875;0.06494140625;-0.34375;2.0625;-2.25;-2.5625;
1441975298703109;-0.81793212890625;0.0244140625;-0.5703125;-0.0723876953125;2.0546158724880694;17.252332139549083;9.348792256645831;0.947265625;0.0703125;-0.3427734375;1.625;-3.1875;-2.75;
1441975298726110;-0.81842041015625;0.02410888671875;-0.569580078125;-0.07244873046875;2.065102538186278;17.251359475717006;9.350697918391726;0.9345703125;0.0703125;-0.33544921875;1.0;-4.3125;-3.0625;
1441975298742111;-0.8189697265625;0.02398681640625;-0.56878662109375;-0.07257080078125;2.076334654470096;17.251508939813466;9.350478671341506;0.92626953125;0.07275390625;-0.333984375;0.3125;-5.5;-3.0625;
1441975298764112;-0.81951904296875;0.02398681640625;-0.56805419921875;-0.07269287109375;2.0868022519693388;17.2526245306339;9.34880910573602;0.92529296875;0.0703125;-0.328125;-0.4375;-6.0;-2.625;
1441975298779113;-0.82000732421875;0.0240478515625;-0.5672607421875;-0.07293701171875;2.0975224634588354;17.252665505351416;9.347426435520136;0.9287109375;0.07666015625;-0.32763671875;-0.75;-6.25;-2.0;
1441975298802114;-0.82049560546875;0.02435302734375;-0.5665283203125;-0.0732421875;2.107367827811191;17.253943841851527;9.34356901423161;0.931640625;0.0869140625;-0.33056640625;-1.1875;-6.25;-1.0;
1441975298824116;-0.8209228515625;0.02496337890625;-0.5657958984375;-0.07373046875;2.116593075401701;17.255381185159237;9.33752673268466;0.93017578125;0.09228515625;-0.32861328125;-2.5;-6.1875;0.0625;
1441975298839116;-0.82122802734375;0.0257568359375;-0.56524658203125;-0.07421875;2.1230507589465146;17.257770774023935;9.329795994121294;0.93408203125;0.095703125;-0.34619140625;-3.8125;-5.5;1.0625;
1441975298862118;-0.82147216796875;0.0267333984375;-0.5648193359375;-0.07464599609375;2.1276179797861916;17.262150412176446;9.31959053271516;0.93017578125;0.09326171875;-0.341796875;-4.875;-4.375;1.875;
1441975298885119;-0.821533203125;0.0277099609375;-0.5645751953125;-0.0750732421875;2.129328513669262;17.265771712958706;9.310142736104742;0.92919921875;0.0908203125;-0.349609375;-5.3125;-3.125;2.8125;
1441975298899120;-0.821533203125;0.02862548828125;-0.56451416015625;-0.0753173828125;2.1288062577544093;17.27074104589663;9.300387527523332;0.92919921875;0.08837890625;-0.345703125;-5.375;-2.0;3.0625;
1441975298922121;-0.82147216796875;0.02923583984375;-0.56451416015625;-0.07550048828125;2.1277244242732065;17.27359356271509;9.29425457952374;0.92578125;0.0830078125;-0.35009765625;-4.25;-0.5625;2.875;
1441975298945122;-0.8214111328125;0.02972412109375;-0.56451416015625;-0.07574462890625;2.1269105458106305;17.274597531288336;9.290221047520465;0.92529296875;0.08935546875;-0.35498046875;-2.75;0.1875;2.375;
1441975298959123;-0.8212890625;0.03021240234375;-0.56463623046875;-0.07611083984375;2.124728119261963;17.27368873944155;9.287617772575047;0.92041015625;0.09814453125;-0.3505859375;-2.6875;0.375;2.125;
1441975298982125;-0.82110595703125;0.03057861328125;-0.56488037109375;-0.076171875;2.120811870213302;17.27529936733766;9.284270554878118;0.9208984375;0.09912109375;-0.34375;-2.9375;0.625;1.8125;
1441975299005126;-0.82098388671875;0.03076171875;-0.5650634765625;-0.07623291015625;2.1181300065646784;17.275542736984725;9.283043250986053;0.94140625;0.0986328125;-0.3505859375;-1.5625;1.375;2.0625;
1441975299019127;-0.82086181640625;0.03076171875;-0.56524658203125;-0.076171875;2.115568229343372;17.27575183034478;9.283104317461186;0.93896484375;0.0986328125;-0.365234375;-0.625;1.875;1.1875;
1441975299042128;-0.82073974609375;0.03082275390625;-0.56536865234375;-0.07635498046875;2.1137961333724014;17.273451266590023;9.284401692746282;0.927734375;0.1044921875;-0.353515625;0.4375;1.8125;1.125;
1441975299072130;-0.8206787109375;0.03106689453125;-0.5654296875;-0.07672119140625;2.1129397780641668;17.27063289625924;9.28471221087052;0.92333984375;0.107421875;-0.3623046875;-0.875;1.9375;1.0625;
1441975299079130;-0.82049560546875;0.0313720703125;-0.56561279296875;-0.0771484375;2.1101554704020202;17.267085679263744;9.285250230636418;0.9189453125;0.1015625;-0.3662109375;-2.1875;2.0625;0.6875;
1441975299102131;-0.82037353515625;0.03167724609375;-0.56573486328125;-0.07769775390625;2.1084870727758727;17.262192351071427;9.286633141591295;0.9287109375;0.09375;-0.3564453125;-3.0;1.875;0.3125;
1441975299125133;-0.8203125;0.0318603515625;-0.56573486328125;-0.07818603515625;2.108454128072021;17.257358417588197;9.288689222513863;0.92236328125;0.08935546875;-0.359375;-3.75;1.9375;-0.1875;
1441975299140134;-0.8203125;0.03179931640625;-0.565673828125;-0.07861328125;2.109679349630383;17.251401654715746;9.293121701298812;0.90625;0.08056640625;-0.35693359375;-3.5;1.5625;-1.1875;
1441975299162135;-0.8203125;0.03155517578125;-0.56561279296875;-0.078857421875;2.1109544405484097;17.246202994836178;9.298300386721161;0.90869140625;0.08447265625;-0.3681640625;-2.0625;1.4375;-2.0625;
1441975299185136;-0.8203125;0.031005859375;-0.56561279296875;-0.07916259765625;2.112236860711773;17.237419458803853;9.308086877246334;0.9150390625;0.09375;-0.36962890625;-0.625;1.875;-2.1875;
1441975299199137;-0.82049560546875;0.03033447265625;-0.56536865234375;-0.07952880859375;2.1172558968517814;17.227670371226598;9.319069819118795;0.91845703125;0.10205078125;-0.3671875;0.5625;1.75;-2.8125;
1441975299222138;-0.82061767578125;0.02984619140625;-0.56512451171875;-0.0802001953125;2.122045644028617;17.215510132315163;9.330437953880267;0.90771484375;0.1083984375;-0.36474609375;0.5625;0.6875;-3.5;
1441975299245140;-0.82073974609375;0.02947998046875;-0.5648193359375;-0.08111572265625;2.127586156200543;17.201459128776648;9.34217197550211;0.91064453125;0.111328125;-0.3642578125;-1.375;0.125;-3.5;
1441975299266141;-0.8209228515625;0.02911376953125;-0.564453125;-0.08209228515625;2.134211168892833;17.186964792360996;9.354098055815843;0.912109375;0.111328125;-0.361328125;-3.0625;-0.1875;-4.0;
1441975299282142;-0.82110595703125;0.02874755859375;-0.56402587890625;-0.08319091796875;2.141632988433971;17.171126244863842;9.366845935637455;0.9150390625;0.11181640625;-0.36767578125;-3.3125;-0.3125;-4.5;
1441975299313143;-0.8214111328125;0.02838134765625;-0.5633544921875;-0.08453369140625;2.1525213822072624;17.153116918734643;9.380719459010953;0.91845703125;0.111328125;-0.37158203125;-3.9375;-0.8125;-4.9375;
1441975299319144;-0.82177734375;0.0279541015625;-0.562744140625;-0.08587646484375;2.163402217468473;17.134768190253144;9.39522284889571;0.91748046875;0.1171875;-0.37548828125;-5.0;-1.875;-5.625;
1441975299342145;-0.82208251953125;0.02740478515625;-0.56201171875;-0.08734130859375;2.175537186805352;17.114145143979176;9.41193722269061;0.9150390625;0.1142578125;-0.36474609375;-4.8125;-2.4375;-6.25;
1441975299364146;-0.822509765625;0.02655029296875;-0.56121826171875;-0.0888671875;2.189790558896747;17.09088788234144;9.432308728979155;0.908203125;0.11962890625;-0.36474609375;-5.125;-2.6875;-7.25;
1441975299378147;-0.822998046875;0.02557373046875;-0.560302734375;-0.09027099609375;2.2057049376786675;17.06886621049252;9.4524264573742;0.90380859375;0.12841796875;-0.3642578125;-3.875;-3.375;-8.375;
1441975299409149;-0.823486328125;0.02447509765625;-0.55938720703125;-0.09161376953125;2.2218775601307725;17.046897580156546;9.4732434066254;0.9033203125;0.13134765625;-0.36572265625;-3.25;-3.75;-8.75;
1441975299415149;-0.823974609375;0.02325439453125;-0.55853271484375;-0.0928955078125;2.237751897985249;17.02484392342565;9.494919369425318;0.9033203125;0.1298828125;-0.3681640625;-2.8125;-3.875;-9.375;
1441975299438151;-0.82440185546875;0.02191162109375;-0.5577392578125;-0.09417724609375;2.2530843506475167;17.001795114066695;9.518092774998692;0.904296875;0.13037109375;-0.37353515625;-2.0;-3.375;-10.0625;
1441975299461152;-0.82470703125;0.02044677734375;-0.55712890625;-0.0955810546875;2.2666495885244395;16.97579620651702;9.544237447074277;0.90234375;0.12841796875;-0.36669921875;-1.625;-3.3125;-10.8125;
1441975299475153;-0.82489013671875;0.01904296875;-0.55657958984375;-0.09722900390625;2.2794614437349994;16.947141282387612;9.57176027878915;0.9033203125;0.14404296875;-0.3603515625;-1.5;-2.5625;-11.0;
1441975299498154;-0.82501220703125;0.01763916015625;-0.55615234375;-0.09893798828125;2.291126913689501;16.917546427136013;9.599992282644902;0.91015625;0.1484375;-0.36328125;-3.1875;-1.75;-11.3125;
1441975299521155;-0.82513427734375;0.01605224609375;-0.5557861328125;-0.1004638671875;2.3025061038326093;16.888823296138142;9.628881969295252;0.90185546875;0.1484375;-0.3564453125;-3.6875;-1.3125;-12.0;
1441975299535156;-0.82525634765625;0.0140380859375;-0.55548095703125;-0.10150146484375;2.313524498397863;16.8626769688447;9.658988616922713;0.89697265625;0.134765625;-0.3515625;-2.1875;-1.4375;-13.125;
1441975299558157;-0.8251953125;0.0118408203125;-0.55548095703125;-0.10198974609375;2.320059319618137;16.84026332381488;9.68842461850111;0.892578125;0.138671875;-0.35009765625;1.25;-0.375;-13.4375;
1441975299581159;-0.82513427734375;0.00933837890625;-0.55560302734375;-0.10223388671875;2.3258904082738563;16.818168470690654;9.719849348072362;0.91162109375;0.1435546875;-0.35791015625;4.3125;1.25;-12.875;
1441975299595160;-0.8250732421875;0.0067138671875;-0.55572509765625;-0.10235595703125;2.3319432082065985;16.7967129734171;9.751643110486114;0.92626953125;0.14794921875;-0.361328125;6.3125;2.0;-13.0625;
1441975299618161;-0.824951171875;0.004150390625;-0.555908203125;-0.1024169921875;2.3369412247064574;16.7761247507413;9.782571631809175;0.90869140625;0.14111328125;-0.34423828125;7.4375;1.625;-14.0;
1441975299641162;-0.82452392578125;0.001708984375;-0.5565185546875;-0.1026611328125;2.33660829462254;16.751890501044997;9.815927172044846;0.90478515625;0.14111328125;-0.34375;7.5;1.9375;-13.6875;
1441975299655163;-0.8240966796875;-7.32421875E-4;-0.55712890625;-0.10296630859375;2.3366671457842054;16.72695620396648;9.84973072935128;0.92529296875;0.15576171875;-0.3291015625;6.625;3.3125;-12.75;
1441975299678164;-0.82366943359375;-0.00299072265625;-0.55767822265625;-0.10321044921875;2.336775345712533;16.704260374807987;9.880773573741127;0.9228515625;0.1669921875;-0.34375;6.0625;4.625;-12.375;
1441975299701166;-0.8232421875;-0.00494384765625;-0.55828857421875;-0.10345458984375;2.3355771288528424;16.683541675016873;9.90859821914481;0.93017578125;0.1611328125;-0.3466796875;5.6875;4.25;-12.125;
1441975299715166;-0.82269287109375;-0.00665283203125;-0.5589599609375;-0.103759765625;2.3327020071199565;16.663145426172925;9.934822808315067;0.93505859375;0.15478515625;-0.34326171875;4.3125;4.25;-11.3125;
1441975299738168;-0.82208251953125;-0.0081787109375;-0.559814453125;-0.104248046875;2.3279534571969713;16.6409891777543;9.961330990916991;0.93017578125;0.1513671875;-0.337890625;3.0625;4.75;-10.4375;
1441975299761169;-0.8214111328125;-0.00933837890625;-0.56060791015625;-0.10504150390625;2.32329665641881;16.617897739403166;9.9859684074269;0.931640625;0.1494140625;-0.33935546875;1.6875;5.5625;-10.3125;
1441975299775170;-0.820556640625;-0.01007080078125;-0.56158447265625;-0.10601806640625;2.315283219360712;16.594189185399596;10.008704608608083;0.9306640625;0.15625;-0.3330078125;-1.125;5.3125;-9.5;
1441975299807172;-0.81976318359375;-0.01055908203125;-0.56256103515625;-0.10711669921875;2.307315329935349;16.570956158025087;10.029472437517217;0.94384765625;0.16064453125;-0.3291015625;-2.9375;5.8125;-7.9375;
1441975299821173;-0.81903076171875;-0.01104736328125;-0.56341552734375;-0.10821533203125;2.3008964365663136;16.548353274538517;10.049593231937825;0.9453125;0.16064453125;-0.3349609375;-4.8125;6.125;-7.625;
1441975299837173;-0.8182373046875;-0.0113525390625;-0.564453125;-0.10906982421875;2.291206249772542;16.528642848592543;10.067109413020606;0.9384765625;0.16943359375;-0.337890625;-4.5625;5.875;-6.75;
1441975299858175;-0.8173828125;-0.01153564453125;-0.56549072265625;-0.10980224609375;2.280430104842162;16.51075109462995;10.082789936809617;0.9580078125;0.17333984375;-0.32958984375;-3.875;5.9375;-5.3125;
1441975299881176;-0.81658935546875;-0.01141357421875;-0.56646728515625;-0.1109619140625;2.270943602013069;16.490616148533594;10.097695685125425;0.966796875;0.1865234375;-0.3408203125;-3.6875;6.75;-3.6875;
1441975299895177;-0.81573486328125;-0.0106201171875;-0.56732177734375;-0.1126708984375;2.261690489716811;16.469206322634804;10.108793444378696;0.95556640625;0.19580078125;-0.33837890625;-6.5625;6.625;-2.6875;
1441975299918178;-0.81488037109375;-0.00921630859375;-0.56817626953125;-0.11474609375;2.25151247457526;16.44791703305933;10.115751009856819;0.92822265625;0.18017578125;-0.32861328125;-11.375;5.6875;-2.625;
1441975299941179;-0.8138427734375;-0.007568359375;-0.56927490234375;-0.11676025390625;2.2371300566437;16.42695491431238;10.121652852325045;0.900390625;0.15234375;-0.3095703125;-15.75;5.3125;-2.1875;
1441975299955180;-0.81298828125;-0.00640869140625;-0.5701904296875;-0.11822509765625;2.2252803409955235;16.410288226691033;10.127536743932918;0.8759765625;0.13916015625;-0.29345703125;-16.5;6.125;-1.5;
1441975299978182;-0.812255859375;-0.005615234375;-0.57110595703125;-0.1190185546875;2.2131465561118637;16.39911171195912;10.13224478952669;0.884765625;0.1591796875;-0.3115234375;-11.9375;6.3125;-0.625;
1441975300001183;-0.81146240234375;-0.00494384765625;-0.57220458984375;-0.11920166015625;2.197418940771343;16.392783163061466;10.13516168987095;0.9150390625;0.19677734375;-0.33349609375;-6.9375;7.5;1.5625;
1441975300015184;-0.810546875;-0.00396728515625;-0.573486328125;-0.119384765625;2.1782894617851305;16.38716277088622;10.136138489809753;0.94873046875;0.22705078125;-0.34765625;-3.8125;8.875;4.75;
1441975300038185;-0.80950927734375;-0.00238037109375;-0.5748291015625;-0.1197509765625;2.156288894204774;16.38302965811176;10.132349248303857;0.96142578125;0.23974609375;-0.357421875;-4.3125;10.25;7.0625;
1441975300061186;-0.80828857421875;0.0;-0.576416015625;-0.1204833984375;2.129454029715733;16.37851745696535;10.12420332806931;0.9423828125;0.23583984375;-0.3525390625;-7.375;10.9375;9.5;
1441975300075187;-0.80682373046875;0.00311279296875;-0.57830810546875;-0.1212158203125;2.0958554147134447;16.376988584788034;10.110102404620173;0.931640625;0.22412109375;-0.33447265625;-11.625;11.8125;11.625;
1441975300101189;-0.80523681640625;0.00665283203125;-0.580322265625;-0.1221923828125;2.059764482202903;16.374875095535803;10.093850734850992;0.92724609375;0.20703125;-0.33740234375;-14.9375;13.5;14.3125;
1441975300121190;-0.80364990234375;0.0103759765625;-0.58221435546875;-0.12322998046875;2.0242326123465824;16.37439050706451;10.07494423047223;0.92822265625;0.21240234375;-0.3349609375;-17.4375;14.9375;16.0;
1441975300135190;-0.8021240234375;0.01458740234375;-0.58404541015625;-0.124267578125;1.9877463183971837;16.379003613032864;10.048962931324944;0.9326171875;0.2177734375;-0.3408203125;-18.125;14.6875;17.5625;
1441975300158192;-0.80059814453125;0.01910400390625;-0.5858154296875;-0.12493896484375;1.9494461120613926;16.391826657096182;10.015020650411843;0.93017578125;0.20751953125;-0.33935546875;-20.0;14.3125;19.25;
1441975300182193;-0.79913330078125;0.0238037109375;-0.5875244140625;-0.12542724609375;1.9108612915638223;16.410261472758457;9.975490189223233;0.9365234375;0.1962890625;-0.32568359375;-19.25;13.3125;20.9375;
1441975300212195;-0.7977294921875;0.02880859375;-0.589111328125;-0.12579345703125;1.872388362127257;16.435286210257242;9.928618992044358;0.9248046875;0.1845703125;-0.32080078125;-19.3125;12.5625;22.25;
1441975300218195;-0.79644775390625;0.03424072265625;-0.5904541015625;-0.12628173828125;1.8359413078666462;16.466103141331534;9.873683076081221;0.91162109375;0.173828125;-0.30322265625;-19.6875;10.875;23.875;
1441975300241197;-0.79541015625;0.04010009765625;-0.59136962890625;-0.12677001953125;1.8036507547522185;16.506219610995004;9.80764365719047;0.91259765625;0.16943359375;-0.2939453125;-21.3125;8.875;25.3125;
1441975300255197;-0.7945556640625;0.04632568359375;-0.592041015625;-0.12701416015625;1.7733715209387821;16.557520209495454;9.729916074632792;0.92041015625;0.1572265625;-0.3056640625;-23.0625;6.625;26.75;
1441975300278199;-0.7939453125;0.05242919921875;-0.5924072265625;-0.1268310546875;1.7474100411346312;16.618484525587593;9.644748865593389;0.93359375;0.13623046875;-0.30029296875;-23.1875;4.0;27.6875;
1441975300317201;-0.79351806640625;0.058837890625;-0.59246826171875;-0.12640380859375;1.7250058349715354;16.6905809159253;9.548153356993412;0.9609375;0.13134765625;-0.29541015625;-20.625;0.9375;28.0625;
1441975300320201;-0.79315185546875;0.065673828125;-0.59228515625;-0.1259765625;1.705582500619066;16.770685710427554;9.441728131405945;1.0341796875;0.13818359375;-0.3115234375;-20.4375;-1.3125;30.75;
1441975300341202;-0.79296875;0.07269287109375;-0.5916748046875;-0.12628173828125;1.6939342390673546;16.845744851835455;9.336507446405761;1.0791015625;0.12255859375;-0.33154296875;-22.0625;-2.875;31.375;
1441975300361203;-0.79278564453125;0.0802001953125;-0.59051513671875;-0.1279296875;1.6900864593910827;16.90831949150292;9.236032800959853;0.99560546875;0.08740234375;-0.31298828125;-26.5625;-4.75;28.5625;
1441975300375204;-0.79278564453125;0.08856201171875;-0.58868408203125;-0.13128662109375;1.695715205626326;16.956734817079344;9.139036346232412;0.8837890625;0.05712890625;-0.26611328125;-34.5625;-8.25;24.8125;
1441975300398206;-0.7926025390625;0.0975341796875;-0.58642578125;-0.1357421875;1.705305471166033;16.994998751293043;9.044875282824764;0.7998046875;0.02490234375;-0.259765625;-45.8125;-10.8125;20.9375;
1441975300421207;-0.79248046875;0.10589599609375;-0.584228515625;-0.13970947265625;1.715867876837166;17.033114984850805;8.955367375169308;0.7802734375;0.01171875;-0.2646484375;-53.5;-11.5625;19.375;
1441975300443208;-0.792724609375;0.1123046875;-0.58209228515625;-0.142333984375;1.7304493919710258;17.069648064055187;8.8810311728295;0.81298828125;-0.01806640625;-0.2724609375;-49.6875;-11.5625;16.0;
1441975300458209;-0.79327392578125;0.11663818359375;-0.5802001953125;-0.14324951171875;1.7466367888157688;17.10831298870265;8.820208618311845;0.81640625;-0.01611328125;-0.2841796875;-36.5625;-11.0;12.0;
1441975300489211;-0.79412841796875;0.11968994140625;-0.578369140625;-0.14373779296875;1.7659511049466248;17.138770560562392;8.774746497394188;0.80859375;-0.00830078125;-0.27587890625;-21.5;-11.25;9.0625;
1441975300495211;-0.79486083984375;0.12237548828125;-0.5765380859375;-0.14447021484375;1.7852426799431336;17.160512004553734;8.738389975881326;0.78173828125;0.01806640625;-0.25634765625;-14.25;-12.25;6.375;
1441975300518212;-0.79541015625;0.12493896484375;-0.57489013671875;-0.1458740234375;1.8022363085547255;17.169877709606478;8.7121896220826;0.7783203125;0.033203125;-0.25048828125;-13.6875;-11.8125;5.25;
1441975300541214;-0.7957763671875;0.127685546875;-0.57342529296875;-0.1473388671875;1.8162149495487103;17.179562996526947;8.684680199289796;0.783203125;0.05078125;-0.2412109375;-16.125;-10.875;3.8125;
1441975300563215;-0.79595947265625;0.1298828125;-0.57220458984375;-0.14910888671875;1.8274017229188024;17.17816914102586;8.669275234514464;0.822265625;0.03173828125;-0.25048828125;-17.375;-9.6875;3.1875;
1441975300578216;-0.795166015625;0.13177490234375;-0.572265625;-0.15155029296875;1.8207747308935582;17.161215186565503;8.668207413913596;0.8564453125;0.0322265625;-0.25;-16.75;-8.0;-0.3125;
1441975300601217;-0.7950439453125;0.13201904296875;-0.57177734375;-0.1536865234375;1.8252363557372937;17.132522343033926;8.686828099042856;0.8828125;0.0322265625;-0.26611328125;-19.0625;2.3125;-2.125;
1441975300617218;-0.79608154296875;0.131591796875;-0.5701904296875;-0.1546630859375;1.8477881506267821;17.116758204062112;8.699923968666095;0.86962890625;0.0634765625;-0.28125;-11.4375;-0.1875;-7.6875;
1441975300638219;-0.79693603515625;0.13385009765625;-0.56787109375;-0.15667724609375;1.87356279129403;17.114592112777682;8.683686343411182;0.8408203125;0.0556640625;-0.31396484375;-4.4375;-6.375;-9.375;
1441975300669221;-0.79693603515625;0.13885498046875;-0.56573486328125;-0.16015625;1.8897883219568012;17.117987383320717;8.644384800405303;0.85009765625;0.01806640625;-0.3310546875;-19.4375;-10.1875;-3.6875;
1441975300675221;-0.79608154296875;0.144287109375;-0.56427001953125;-0.16461181640625;1.894093452746779;17.10979366485071;8.610868661875472;0.88232421875;0.0146484375;-0.310546875;-35.4375;-10.3125;4.625;
1441975300698223;-0.79547119140625;0.14923095703125;-0.56243896484375;-0.1695556640625;1.904017575009309;17.0901850518557;8.588648504073507;0.888671875;0.021484375;-0.298828125;-41.625;-4.875;4.8125;
1441975300722224;-0.79486083984375;0.1544189453125;-0.56048583984375;-0.1739501953125;1.9145324584193293;17.080866963463333;8.55723113253595;0.87841796875;0.0361328125;-0.3291015625;-42.5;-4.125;1.6875;
1441975300735225;-0.7940673828125;0.1593017578125;-0.55914306640625;-0.17742919921875;1.9181187173103917;17.08070194993935;8.521938459415004;0.87939453125;-0.009765625;-0.32666015625;-41.375;-5.6875;0.75;
1441975300766227;-0.7933349609375;0.16357421875;-0.55828857421875;-0.1798095703125;1.9178765998970158;17.08970507249994;8.48483642441559;0.904296875;-0.0185546875;-0.31591796875;-36.1875;-4.375;2.75;
1441975300780227;-0.79266357421875;0.1671142578125;-0.5574951171875;-0.18170166015625;1.9180841988079649;17.09823945892308;8.453188039370021;0.90087890625;-0.04052734375;-0.3408203125;-29.4375;-1.0625;2.4375;
1441975300798228;-0.79180908203125;0.1702880859375;-0.556884765625;-0.1845703125;1.9158434894580554;17.08899232803675;8.43689388960487;0.87841796875;-0.03857421875;-0.35400390625;-24.9375;0.6875;1.0;
1441975300818230;-0.79071044921875;0.17279052734375;-0.5565185546875;-0.18768310546875;1.9102728682406802;17.06909160718571;8.43295324851983;0.83935546875;-0.02734375;-0.31689453125;-27.4375;2.0625;-2.3125;
1441975300840231;-0.78997802734375;0.17413330078125;-0.5565185546875;-0.18963623046875;1.90454966864173;17.05413593191599;8.434052088628809;0.80029296875;-0.02294921875;-0.31591796875;-26.5;5.75;-5.5;
1441975300858232;-0.78924560546875;0.17401123046875;-0.5572509765625;-0.190673828125;1.8931905555733377;17.03687334524389;8.447684562957477;0.81201171875;-0.05078125;-0.32666015625;-17.375;6.6875;-8.75;
1441975300886233;-0.78839111328125;0.17254638671875;-0.5587158203125;-0.19122314453125;1.8754700617529514;17.01197310683998;8.476868557043671;0.822265625;-0.05126953125;-0.314453125;-8.0625;10.3125;-11.8125;
1441975300900234;-0.78741455078125;0.17047119140625;-0.56024169921875;-0.19268798828125;1.8575779784120126;16.966644889139186;8.525203547117336;0.82373046875;-0.00537109375;-0.30615234375;0.3125;14.0625;-12.75;
1441975300923236;-0.7860107421875;0.16827392578125;-0.56195068359375;-0.1953125;1.8364883738273914;16.901194267393677;8.589287059985084;0.80908203125;0.03955078125;-0.2880859375;-1.0625;16.0;-15.25;
1441975300938236;-0.78436279296875;0.16571044921875;-0.56414794921875;-0.19781494140625;1.810684357775696;16.830927301879196;8.660382638687501;0.8125;0.08056640625;-0.2578125;-4.875;17.8125;-16.3125;
1441975300960238;-0.7821044921875;0.16351318359375;-0.56695556640625;-0.20037841796875;1.7758123259736533;16.75906981106029;8.731376514778825;0.87109375;0.09521484375;-0.26513671875;-3.5;20.625;-16.6875;
1441975300984239;-0.77880859375;0.162109375;-0.57049560546875;-0.204345703125;1.7287855543864503;16.66720301778155;8.81336152591745;0.9560546875;0.125;-0.27587890625;-4.1875;24.625;-13.1875;
1441975300999240;-0.77520751953125;0.16229248046875;-0.57354736328125;-0.2095947265625;1.6842852017591534;16.569209150925765;8.889297575957826;1.0185546875;0.19677734375;-0.24072265625;-12.25;29.0;-8.5;
1441975301029242;-0.77099609375;0.16473388671875;-0.576416015625;-0.215087890625;1.6340487657015188;16.48742577992186;8.938313747171728;1.01123046875;0.21826171875;-0.21337890625;-23.5;26.1875;-4.25;
1441975301045243;-0.76702880859375;0.16632080078125;-0.5799560546875;-0.21868896484375;1.578952366431292;16.420482633703063;8.984360582788028;0.95458984375;0.11474609375;-0.1572265625;-34.5625;23.1875;-1.8125;
1441975301058243;-0.7635498046875;0.1663818359375;-0.583984375;-0.21978759765625;1.5224273893910027;16.372283490889178;9.028619301154908;0.87451171875;0.0341796875;-0.08642578125;-22.9375;21.5;-3.0;
1441975301083245;-0.76025390625;0.16607666015625;-0.5877685546875;-0.22137451171875;1.4716990574102622;16.309431327743436;9.086987687027435;0.822265625;0.0361328125;-0.0673828125;-5.6875;22.125;-0.9375;
1441975301103246;-0.757080078125;0.16766357421875;-0.59051513671875;-0.22381591796875;1.427913869146114;16.258565834801093;9.121563981667457;0.8212890625;0.166015625;-0.03125;-4.5625;19.375;4.5625;
1441975301119247;-0.75341796875;0.17156982421875;-0.59295654296875;-0.226806640625;1.3783172343689358;16.22608771985078;9.125625367095418;0.87060546875;0.2119140625;-0.033203125;-14.5;12.625;10.875;
1441975301140248;-0.749755859375;0.17572021484375;-0.595703125;-0.2283935546875;1.3221220532097926;16.22028487521844;9.107930936566502;0.912109375;0.1484375;-0.02197265625;-26.6875;10.0625;15.0;
1441975301163249;-0.74627685546875;0.1796875;-0.59869384765625;-0.22894287109375;1.2632004223162234;16.232192188268932;9.077819403157628;0.9765625;0.1357421875;-0.02587890625;-21.4375;9.4375;19.6875;
1441975301178250;-0.7425537109375;0.18438720703125;-0.6014404296875;-0.23016357421875;1.2042376978085292;16.24425047881943;9.041528066260224;1.0263671875;0.169921875;-0.01025390625;-15.25;8.0;25.3125;
1441975301200251;-0.73858642578125;0.19024658203125;-0.6038818359375;-0.23175048828125;1.1439755157920188;16.27125728583691;8.983719063454984;1.07275390625;0.2197265625;0.0283203125;-20.875;4.6875;29.4375;
1441975301223253;-0.734130859375;0.1964111328125;-0.6065673828125;-0.23382568359375;1.0786951292237668;16.293090701406697;8.927739572760231;1.10791015625;0.14892578125;0.04833984375;-27.3125;2.0625;28.375;
1441975301238254;-0.72955322265625;0.20233154296875;-0.60943603515625;-0.23565673828125;1.0113005378765074;16.319039973528536;8.869649035851426;1.08837890625;0.044921875;0.09814453125;-31.75;2.0625;22.5;
1441975301263255;-0.7254638671875;0.207275390625;-0.6121826171875;-0.23681640625;0.9496319808288528;16.35091250836289;8.812497224480255;1.01025390625;-0.01953125;0.14697265625;-30.25;1.3125;19.5;
1441975301283256;-0.7218017578125;0.2113037109375;-0.61444091796875;-0.2384033203125;0.8981236881058408;16.36165444599435;8.778300538437822;0.93017578125;-0.021484375;0.146484375;-23.6875;1.3125;17.8125;
1441975301298257;-0.71844482421875;0.21490478515625;-0.61651611328125;-0.24017333984375;0.8516449237946159;16.362648645917513;8.75496569257173;0.9091796875;0.0546875;0.11865234375;-22.0;1.8125;16.875;
1441975301320258;-0.7144775390625;0.2181396484375;-0.619384765625;-0.241455078125;0.7939793322257119;16.360588479127006;8.738224594930402;0.94580078125;0.0859375;0.11669921875;-20.75;1.1875;16.375;
1441975301346260;-0.7108154296875;0.22003173828125;-0.6231689453125;-0.240966796875;0.7306310009591083;16.37510100303479;8.718485580267497;1.017578125;0.103515625;0.13427734375;-16.9375;5.25;19.5;
1441975301358260;-0.70721435546875;0.22027587890625;-0.627685546875;-0.239501953125;0.663335458360896;16.370216526674383;8.729265718542244;1.0107421875;0.1201171875;0.11279296875;-3.5;9.8125;23.0;
1441975301380262;-0.70330810546875;0.22039794921875;-0.6322021484375;-0.23919677734375;0.596191654928176;16.310050167343668;8.790940708123497;1.02734375;0.14208984375;0.1279296875;7.3125;12.8125;22.25;
1441975301403263;-0.69854736328125;0.2227783203125;-0.6357421875;-0.241455078125;0.5310980499318518;16.212734503992806;8.868856437613903;1.05615234375;0.23583984375;0.1513671875;3.5625;14.9375;25.0;
1441975301418264;-0.6927490234375;0.22723388671875;-0.6390380859375;-0.245361328125;0.45942806549754645;16.09064141491966;8.955595290324798;1.091796875;0.25732421875;0.13330078125;-17.9375;15.8125;26.125;
1441975301440265;-0.68609619140625;0.2320556640625;-0.6429443359375;-0.2491455078125;0.37613772183654165;15.924542177301387;9.085094901565238;1.12939453125;0.2099609375;0.15380859375;-34.0625;17.4375;26.6875;
1441975301463266;-0.68048095703125;0.23492431640625;-0.64678955078125;-0.2520751953125;0.3063507445095779;15.643613460866796;9.341486653596531;1.193359375;0.13232421875;0.18115234375;-35.9375;20.9375;24.9375;
1441975301478267;-0.67578125;0.23565673828125;-0.6502685546875;-0.25494384765625;0.2591648788183542;15.130419085746725;9.839277362273418;1.2080078125;0.109375;0.12890625;-24.3125;23.25;18.1875;
1441975301500269;-0.6712646484375;0.2373046875;-0.65252685546875;-0.25958251953125;0.23588263872716608;14.474667531279165;10.467962194146903;1.22705078125;0.1455078125;0.1142578125;-15.3125;23.6875;10.5;
1441975301532270;-0.66632080078125;0.23895263671875;-0.65478515625;-0.26495361328125;0.23049859823942354;13.65234050222247;11.259836426421812;1.296875;0.1650390625;0.0966796875;-27.5;21.4375;6.5625;
1441975301538271;-0.6619873046875;0.2406005859375;-0.6561279296875;-0.27099609375;0.2508372447335077;12.984926480519123;11.893813642090768;1.32958984375;0.1474609375;0.1044921875;-30.5625;24.1875;3.125;
1441975301560272;-0.65924072265625;0.2410888671875;-0.6558837890625;-0.27789306640625;0.29947130101441266;12.6838048252644;12.162648544006316;1.3251953125;0.16259765625;0.02490234375;-34.0625;26.0625;-1.0625;
1441975301583273;-0.657470703125;0.242919921875;-0.6531982421875;-0.28656005859375;0.3553458023495767;12.679699362531078;12.120543586955371;1.35302734375;0.29296875;0.021484375;-32.9375;18.25;-4.625;
1441975301599274;-0.65496826171875;0.24761962890625;-0.649169921875;-0.29718017578125;0.4043971191000418;12.700020084809747;12.032721282871567;1.38525390625;0.31591796875;-0.033203125;-46.5625;9.6875;-10.75;
1441975301620275;-0.6533203125;0.25311279296875;-0.64404296875;-0.3072509765625;0.44516014764647094;12.81816323620282;11.845763961526648;1.37939453125;0.32763671875;-0.01123046875;-67.875;4.0;-8.8125;
1441975301645277;-0.65374755859375;0.25726318359375;-0.6380615234375;-0.31524658203125;0.486847864281224;13.061774956030503;11.548007146711026;1.396484375;0.21923828125;-0.1142578125;-69.1875;1.9375;-15.0625;
1441975301658278;-0.65673828125;0.2554931640625;-0.63226318359375;-0.32208251953125;0.5750748764816691;13.302242345613529;11.28413830184309;1.4365234375;0.1943359375;-0.2177734375;-54.625;-2.75;-20.0;
1441975301680279;-0.6572265625;0.260498046875;-0.62646484375;-0.32843017578125;0.6044904056046763;13.485893985284887;11.049648683753672;1.43310546875;0.4990234375;-0.1552734375;-23.625;-7.6875;-21.6875;
1441975301703280;-0.6461181640625;0.25518798828125;-0.63690185546875;-0.33453369140625;0.6475458550361435;12.597011986100522;11.934468441724698;1.544921875;0.2490234375;-0.18994140625;-50.9375;-9.875;-9.5;
1441975301718281;-0.642822265625;0.24932861328125;-0.649169921875;-0.32135009765625;0.586075441226502;12.056597795759336;12.560276066711582;1.56591796875;0.1953125;0.6240234375;-5.0625;57.625;-3.75;
1441975301740282;-0.64404296875;0.2501220703125;-0.64697265625;-0.3226318359375;0.5882681635592601;12.188100089903706;12.419472339686132;1.34619140625;-0.0556640625;-0.13525390625;80.8125;64.0625;42.375;
1441975301763284;-0.6390380859375;0.26019287109375;-0.64288330078125;-0.33270263671875;0.5886022292077268;12.107181836078666;12.41073874858422;1.38671875;0.85693359375;-0.24609375;-13.0625;9.5;43.9375;
1441975301779285;-0.6392822265625;0.25860595703125;-0.6409912109375;-0.33721923828125;0.6374242492017029;12.189894222234617;12.31443064891145;1.39306640625;0.00732421875;0.052734375;-89.0625;0.1875;-9.0;
1441975301800286;-0.6448974609375;0.24859619140625;-0.640625;-0.3345947265625;0.6981077930141812;12.422111356019338;12.137696185614077;1.30224609375;-0.11181640625;0.0185546875;-12.75;4.9375;-43.5625;
1441975301823287;-0.6512451171875;0.236328125;-0.6412353515625;-0.330078125;0.764486241453408;12.621493017636297;12.012050091883312;1.416015625;-0.025390625;-0.06298828125;56.25;2.625;-49.25;
1441975301849289;-0.65771484375;0.225341796875;-0.640380859375;-0.32647705078125;0.8321463538708269;12.834768768675367;11.862202862410374;1.47412109375;0.13330078125;-0.0654296875;73.6875;4.9375;-40.1875;
1441975301860289;-0.66229248046875;0.21710205078125;-0.63873291015625;-0.3260498046875;0.9041056723605171;12.977128711573172;11.75691608361111;1.38525390625;0.203125;-0.10791015625;63.6875;-0.25;-37.8125;
1441975301883290;-0.66595458984375;0.2103271484375;-0.63763427734375;-0.3253173828125;0.9606471066861179;13.074897676610284;11.691326770762599;1.32568359375;0.193359375;-0.03466796875;37.375;-3.0;-39.3125;
1441975301898291;-0.66839599609375;0.2052001953125;-0.63739013671875;-0.3238525390625;0.9949519715827148;13.129451430942364;11.664964711469311;1.30615234375;0.11083984375;-0.041015625;32.4375;-0.6875;-37.25;
1441975301920293;-0.6695556640625;0.1998291015625;-0.6395263671875;-0.32061767578125;1.009817464654177;13.114009408274086;11.71788093701742;1.2802734375;0.017578125;-0.01904296875;28.1875;1.375;-31.9375;
1441975301952294;-0.67169189453125;0.192626953125;-0.642578125;-0.31451416015625;1.0166985681417748;13.116680864766213;11.773294397396512;1.208984375;-0.017578125;0.04150390625;37.3125;9.3125;-22.125;
1441975301958295;-0.67401123046875;0.18768310546875;-0.64495849609375;-0.3076171875;1.0011289290499024;13.151739445975634;11.79004144476814;1.0791015625;0.0556640625;0.033203125;57.125;9.625;-11.625;
1441975301980296;-0.67584228515625;0.18524169921875;-0.64691162109375;-0.30078125;0.9662267673766913;13.194131358704741;11.788370704050125;1.0009765625;0.0458984375;-0.01318359375;51.5625;4.3125;-1.0;
1441975302003297;-0.67779541015625;0.18316650390625;-0.649658203125;-0.2916259765625;0.9088486115401415;13.243135917195461;11.78879526749325;0.982421875;0.03076171875;-0.00537109375;40.4375;-0.5;8.0625;
1441975302018298;-0.68060302734375;0.17926025390625;-0.6529541015625;-0.2799072265625;0.8464876225596643;13.318070400623704;11.781979774965421;0.984375;-0.04541015625;-0.01025390625;49.5625;-0.9375;14.375;
1441975302040299;-0.683837890625;0.17266845703125;-0.65692138671875;-0.26654052734375;0.791897078877914;13.393081254868738;11.793130835558697;0.96435546875;-0.10693359375;-4.8828125E-4;68.125;-2.5625;13.6875;
1441975302072301;-0.68695068359375;0.166015625;-0.6610107421875;-0.25244140625;0.7316092278258124;13.473019733702786;11.80235289657887;0.93701171875;-0.0361328125;0.0341796875;86.5;-1.75;15.8125;
1441975302086302;-0.689208984375;0.1636962890625;-0.6641845703125;-0.2388916015625;0.6424817671201942;13.5920557425885;11.75135169200511;0.91748046875;0.13134765625;0.09912109375;89.75;-6.375;31.0;
1441975302100303;-0.69000244140625;0.166259765625;-0.6671142578125;-0.2265625;0.522786635860094;13.732060795377471;11.653611693373286;0.955078125;0.10302734375;0.11572265625;69.5;-13.875;44.0;
1441975302123304;-0.68927001953125;0.16943359375;-0.67132568359375;-0.2135009765625;0.38560087619941413;13.821860213657446;11.606234004890254;1.00537109375;-0.0068359375;0.1845703125;44.0625;-20.25;53.625;
1441975302138305;-0.6881103515625;0.17034912109375;-0.6767578125;-0.198974609375;0.24952919447689115;13.824573514405719;11.661302823830518;1.05078125;-0.08544921875;0.25244140625;43.75;-15.25;57.3125;
1441975302160306;-0.687255859375;0.16973876953125;-0.68231201171875;-0.18267822265625;0.11223746472444343;13.824017295931995;11.732954260488233;1.068359375;-0.05322265625;0.25390625;58.875;-7.6875;60.1875;
1441975302191308;-0.6861572265625;0.16839599609375;-0.68798828125;-0.1658935546875;0.025125125610977125;5.6260203296195;2.006699599063102;1.05078125;0.00390625;0.2216796875;71.25;-5.5;66.5625;
1441975302198308;-0.68438720703125;0.165771484375;-0.69427490234375;-0.14892578125;0.15827426320810015;5.3776443135324685;2.336536186819924;1.03125;0.05419921875;0.21435546875;76.0625;-3.4375;71.125;
1441975302228310;-0.681396484375;0.16357421875;-0.7010498046875;-0.13262939453125;0.2970526375251548;5.516330076430178;2.2743324199384674;1.02197265625;0.10693359375;0.20166015625;80.9375;4.25;73.6875;
1441975302243311;-0.67767333984375;0.16253662109375;-0.70758056640625;-0.1173095703125;0.43943299901986793;5.602717341194701;2.255176281301404;0.9765625;0.12451171875;0.16259765625;76.0625;14.125;76.9375;
1441975302259312;-0.67352294921875;0.1614990234375;-0.714111328125;-0.10211181640625;0.5830798078779014;5.679719714395452;2.2446416803199534;0.92724609375;0.1279296875;0.15185546875;66.5;18.0625;79.25;
1441975302286314;-0.669189453125;0.15985107421875;-0.72064208984375;-0.0863037109375;0.7277374718395133;5.7466243713280765;2.2490182452394474;0.91015625;0.10986328125;0.13916015625;65.375;21.4375;79.25;
1441975302303315;-0.66436767578125;0.157958984375;-0.72711181640625;-0.07110595703125;0.8689845790779445;5.824841540151702;2.2403412688503184;0.88623046875;0.11669921875;0.14404296875;69.6875;22.1875;81.375;
1441975302318315;-0.6617431640625;0.15667724609375;-0.7310791015625;-0.05584716796875;0.9927553433868801;5.791941211340072;2.3405001766575735;0.935546875;0.14892578125;0.17919921875;67.3125;23.5;82.375;
1441975302340317;-0.65802001953125;0.157470703125;-0.73529052734375;-0.041015625;1.1342261242211724;5.772876856212891;2.4163618962158915;0.353515625;0.185546875;-0.1884765625;67.0625;27.0;79.4375;
1441975302363318;-0.6563720703125;0.1583251953125;-0.737060546875;-0.030029296875;1.2303997897802932;5.72343117952629;2.5067504893742427;0.22412109375;0.11572265625;-0.09716796875;55.75;25.9375;80.4375;
1441975302381319;-0.6480712890625;0.1572265625;-0.744873046875;-0.0225830078125;1.3467483253725694;5.917938837688571;2.3465205233417294;0.69580078125;0.2841796875;-0.22705078125;40.3125;23.125;80.1875;
1441975302400320;-0.64654541015625;0.1627197265625;-0.74530029296875;-0.01239013671875;1.4612870769925301;5.806551589885193;2.476370559464978;1.45849609375;0.26611328125;0.76416015625;25.4375;15.75;75.875;
1441975302423321;-0.64697265625;0.16650390625;-0.744140625;-0.00811767578125;1.5099274804997798;5.718693889699688;2.5658344519537093;0.22265625;0.0146484375;-0.05078125;15.3125;3.5;69.625;
1441975302438322;-0.64306640625;0.1708984375;-0.74652099609375;-0.0059814453125;1.5824350517799488;5.7423223558411145;2.532263625810422;0.9638671875;0.20361328125;0.04638671875;-3.875;-6.4375;61.75;
1441975302462324;-0.64691162109375;0.1785888671875;-0.74139404296875;-0.00592041015625;1.5999912660991098;5.555832111481909;2.6871291293885804;1.13427734375;0.07080078125;0.7373046875;-21.9375;-17.9375;54.0;
1441975302492325;-0.65087890625;0.18890380859375;-0.73529052734375;-0.0086669921875;1.6179888106409326;5.3491854699862165;2.8396409920673498;0.74658203125;0.08935546875;-0.00390625;-38.25;-29.8125;44.375;
1441975302498326;-0.65625;0.201904296875;-0.72698974609375;-0.01275634765625;1.6418396092134349;5.084209340650407;3.0336718324329275;0.85400390625;0.041015625;0.1435546875;-63.125;-41.75;40.875;
1441975302520327;-0.6617431640625;0.216064453125;-0.7177734375;-0.01751708984375;1.677539539460588;4.807443759224573;3.231531576828629;0.85302734375;-0.05419921875;0.07177734375;-80.125;-51.0625;38.1875;
1441975302543328;-0.667236328125;0.22796630859375;-0.70880126953125;-0.02178955078125;1.710534537970951;4.555528652449169;3.415731211607565;0.828125;-0.1904296875;0.05419921875;-87.75;-54.9375;30.0;
1441975302559329;-0.67327880859375;0.23663330078125;-0.7000732421875;-0.02587890625;1.7279354707896344;4.32120449960364;3.5966569465628773;0.80322265625;-0.26123046875;-0.00732421875;-75.4375;-51.75;18.875;
1441975302580330;-0.67962646484375;0.2431640625;-0.69140625;-0.0308837890625;1.7292618210495168;4.093631244226904;3.7760131909451053;0.74658203125;-0.263671875;-0.1005859375;-59.8125;-47.6875;5.4375;
1441975302603332;-0.68353271484375;0.24603271484375;-0.6861572265625;-0.0379638671875;1.6922262976367533;3.950436830202218;3.878169658935;0.931640625;-0.23583984375;-0.142578125;-54.0625;-46.5625;-1.375;
1441975302619333;-0.68701171875;0.24749755859375;-0.68170166015625;-0.04534912109375;1.644167030605663;3.820925509547326;3.9713961248975895;1.482421875;-0.2236328125;0.17529296875;-50.25;-44.25;-8.0625;
1441975302640334;-0.69384765625;0.25;-0.6734619140625;-0.05108642578125;1.6255861245976797;3.5864952520021585;4.17165051028269;1.45556640625;-0.22705078125;0.11474609375;-43.6875;-35.6875;-16.375;
1441975302671336;-0.69891357421875;0.250732421875;-0.66748046875;-0.05694580078125;1.5958034020044072;3.4048326426053386;4.326172910337236;0.94775390625;-0.21875;-0.41943359375;-35.6875;-29.25;-21.25;
1441975302679336;-0.7032470703125;0.2509765625;-0.66229248046875;-0.062255859375;1.5696306851281607;3.2418390117445357;4.466239084673332;0.93505859375;-0.27490234375;-0.48486328125;-26.25;-9.0625;-30.625;
1441975302704337;-0.70654296875;0.25146484375;-0.65826416015625;-0.06591796875;1.558243059894123;3.1161932112133868;4.574674013658581;0.88818359375;-0.302734375;-0.525390625;-21.75;-1.4375;-32.5625;
1441975302731339;-0.709228515625;0.2518310546875;-0.6549072265625;-0.06878662109375;1.5518078176356271;3.0122275073570277;4.665135169361274;0.8466796875;-0.3466796875;-0.54443359375;-15.0625;5.625;-27.5625;
1441975302739339;-0.71197509765625;0.2509765625;-0.65191650390625;-0.071533203125;1.537884233643747;2.909548249065803;4.760056075164677;0.8447265625;-0.3935546875;-0.50146484375;-12.125;6.5625;-27.375;
1441975302760341;-0.7149658203125;0.24871826171875;-0.6492919921875;-0.0733642578125;1.5217166273374678;2.8092240824357955;4.862424157813777;0.8466796875;-0.37548828125;-0.46826171875;-7.1875;5.0;-31.125;
1441975302783342;-0.71807861328125;0.245849609375;-0.6468505859375;-0.07452392578125;1.5077304226216472;2.7107918999316367;4.96828392675675;0.84765625;-0.384765625;-0.447265625;1.3125;3.3125;-34.5625;
1441975302799343;-0.72137451171875;0.24273681640625;-0.644287109375;-0.0753173828125;1.4976696287804194;2.608320032617663;5.080665981641861;0.84130859375;-0.3876953125;-0.41162109375;6.0;0.1875;-35.25;
1441975302820344;-0.72503662109375;0.24005126953125;-0.6409912109375;-0.0765380859375;1.49389980395292;2.4874242887045614;5.2077305326082435;0.83203125;-0.37841796875;-0.39990234375;7.4375;-2.5;-35.4375;
1441975302843345;-0.72900390625;0.23809814453125;-0.6370849609375;-0.0780029296875;1.500044689583524;2.3554592725023977;5.341695546387089;0.81396484375;-0.35986328125;-0.42236328125;3.5625;-5.25;-35.125;
1441975302859346;-0.7330322265625;0.236083984375;-0.63299560546875;-0.0794677734375;1.5101354969780931;2.2212483362092197;5.478037364489619;0.8017578125;-0.3701171875;-0.43115234375;-1.0;-8.5625;-35.1875;
1441975302880348;-0.7373046875;0.234375;-0.62847900390625;-0.08087158203125;1.5291542430352083;2.0834085583052553;5.616867963748336;0.77978515625;-0.3505859375;-0.3974609375;-2.125;-12.1875;-34.8125;
1441975302903349;-0.74176025390625;0.2330322265625;-0.62353515625;-0.0821533203125;1.5579121602475308;1.9459653670354902;5.754105292680021;0.76611328125;-0.2919921875;-0.39013671875;-2.8125;-16.0625;-30.4375;
1441975302919350;-0.7459716796875;0.2318115234375;-0.6187744140625;-0.08355712890625;1.5878444317895177;1.817993746525596;5.880841687499393;0.77392578125;-0.271484375;-0.40966796875;-4.4375;-17.9375;-27.75;
1441975302940351;-0.75018310546875;0.2301025390625;-0.6141357421875;-0.08465576171875;1.6190818754659788;1.696060724466559;6.004814564266395;0.7900390625;-0.2744140625;-0.4052734375;-5.375;-18.0;-27.875;
1441975302971353;-0.75433349609375;0.22760009765625;-0.60986328125;-0.08544921875;1.6478999651265775;1.580608519865766;6.126971213673771;0.79833984375;-0.27978515625;-0.404296875;-2.875;-18.0625;-29.0625;
1441975302979353;-0.75860595703125;0.2239990234375;-0.60589599609375;-0.08544921875;1.6766843093122952;1.471948437050491;6.250283785633002;0.79248046875;-0.27978515625;-0.38671875;1.0625;-18.4375;-31.6875;
1441975303008355;-0.7630615234375;0.21954345703125;-0.6019287109375;-0.0853271484375;1.705476010236941;1.3601194925479436;6.380843451595508;0.7861328125;-0.265625;-0.3876953125;8.6875;-18.1875;-32.9375;
1441975303040357;-0.7674560546875;0.21441650390625;-0.59814453125;-0.08575439453125;1.729554539735055;1.2417363942925912;6.518567226840899;0.78173828125;-0.2255859375;-0.3916015625;12.6875;-18.5;-34.375;
1441975303042357;-0.77142333984375;0.208740234375;-0.5948486328125;-0.0867919921875;1.7455152035778516;1.1212431219959016;6.658220964828721;0.765625;-0.18603515625;-0.39111328125;13.25;-17.0625;-37.0;
1441975303068358;-0.7750244140625;0.20257568359375;-0.59210205078125;-0.08819580078125;1.7548971012600318;1.0005100989637656;6.798769023849951;0.75439453125;-0.15478515625;-0.36572265625;12.875;-14.25;-39.125;
1441975303083359;-0.7781982421875;0.19573974609375;-0.59002685546875;-0.08984375;1.7563575168473515;0.8789699772502606;6.94204770163439;0.75927734375;-0.1298828125;-0.35693359375;13.3125;-10.875;-41.0625;
1441975303101360;-0.78094482421875;0.1881103515625;-0.58856201171875;-0.09161376953125;1.750704301319736;0.7546869833488576;7.09091544220482;0.7958984375;-0.08740234375;-0.35107421875;15.75;-7.1875;-41.5625;
1441975303132362;-0.783203125;0.18011474609375;-0.5877685546875;-0.093505859375;1.738719463777098;0.6307077616714536;7.240604695456546;0.8525390625;-0.04052734375;-0.3525390625;18.875;-3.625;-41.625;
1441975303151363;-0.7850341796875;0.17218017578125;-0.58740234375;-0.09564208984375;1.7236714280942511;0.5064028603473358;7.389383384977752;0.9375;0.0234375;-0.359375;20.875;-0.375;-38.9375;
1441975303159363;-0.78643798828125;0.16485595703125;-0.58721923828125;-0.0980224609375;1.7088998319552136;0.3855846402463701;7.531037954174213;1.0390625;0.08203125;-0.36669921875;20.75;2.125;-35.5625;
1441975303183365;-0.78753662109375;0.15838623046875;-0.587158203125;-0.10015869140625;1.6969194069129565;0.2775889184191796;7.657266516680106;1.0966796875;0.09375;-0.35595703125;17.4375;2.0625;-33.375;
1441975303212366;-0.78802490234375;0.15234375;-0.58782958984375;-0.10162353515625;1.6793560397292453;0.1879256738053548;7.766230895217615;1.02783203125;0.04052734375;-0.30712890625;14.0;1.625;-32.375;
1441975303219367;-0.78857421875;0.14599609375;-0.58868408203125;-0.10198974609375;1.6642140878613927;0.11042954460415799;7.868853356976878;0.9404296875;-0.0126953125;-0.234375;14.75;2.5;-31.75;
1441975303248369;-0.78924560546875;0.1387939453125;-0.58953857421875;-0.1015625;1.6517549294175424;0.033586278557045844;7.977542574628799;0.923828125;-0.0390625;-0.212890625;20.125;2.0625;-32.0;
1441975303263369;-0.790283203125;0.13140869140625;-0.5899658203125;-0.10089111328125;1.6474941151517124;17.955433824946446;8.089215270250225;0.95361328125;-0.0185546875;-0.22509765625;26.875;1.375;-32.0625;
1441975303279370;-0.79156494140625;0.1239013671875;-0.58990478515625;-0.1007080078125;1.6504470477239082;17.8663061961891;8.21021809625861;1.00341796875;0.00146484375;-0.23095703125;29.0625;-2.125;-32.1875;
1441975303308372;-0.79315185546875;0.11724853515625;-0.58905029296875;-0.10137939453125;1.6645638363258692;17.77288271976391;8.328295620657498;1.06640625;0.0341796875;-0.2294921875;27.0625;-6.625;-32.9375;
1441975303323373;-0.7950439453125;0.111572265625;-0.58734130859375;-0.1031494140625;1.690360832995121;17.674659341531136;8.44243813710529;1.1337890625;0.04345703125;-0.21728515625;20.375;-13.0625;-33.1875;
1441975303349374;-0.79730224609375;0.10772705078125;-0.584228515625;-0.1068115234375;1.7330954225440385;17.570959991883033;8.546341504236748;1.169921875;0.0546875;-0.20068359375;11.625;-19.9375;-32.9375;
1441975303360375;-0.80010986328125;0.10693359375;-0.57928466796875;-0.11370849609375;1.7974166714322608;17.45774577622836;8.633473726402922;1.1376953125;0.07275390625;-0.1806640625;-3.75;-28.8125;-31.75;
1441975303391377;-0.80322265625;0.109375;-0.57269287109375;-0.12249755859375;1.8792790441520444;17.35881493082762;8.684610884254816;1.10888671875;0.1259765625;-0.1533203125;-27.9375;-40.5;-27.5;
1441975303405378;-0.806396484375;0.11322021484375;-0.56536865234375;-0.131591796875;1.9682898131838271;17.276123955264485;8.712000053085784;1.0888671875;0.0771484375;-0.1650390625;-49.75;-50.0625;-24.3125;
1441975303420378;-0.8096923828125;0.11614990234375;-0.55810546875;-0.13983154296875;2.0585047907079383;17.201122121032206;8.738857501171298;1.04248046875;-0.03466796875;-0.1689453125;-58.625;-54.0625;-27.5625;
1441975303444380;-0.81317138671875;0.11761474609375;-0.551025390625;-0.14630126953125;2.149266412034271;17.140293763385117;8.764794159082824;0.9931640625;-0.0556640625;-0.19189453125;-52.5;-52.125;-31.25;
1441975303465381;-0.8165283203125;0.1187744140625;-0.54425048828125;-0.15191650390625;2.2365565175022697;17.090469603839093;8.784468898465683;0.9619140625;-0.0166015625;-0.24609375;-38.9375;-48.375;-30.1875;
1441975303480382;-0.81976318359375;0.120361328125;-0.5374755859375;-0.15728759765625;2.322552930951278;17.049299254009007;8.794558390229778;0.974609375;0.03564453125;-0.2880859375;-32.9375;-45.625;-26.25;
1441975303503383;-0.8226318359375;0.12200927734375;-0.53118896484375;-0.16204833984375;2.401195222038429;17.01638449156812;8.798629705760948;0.96826171875;0.05322265625;-0.31689453125;-33.1875;-44.5625;-22.6875;
1441975303525384;-0.824951171875;0.1234130859375;-0.5262451171875;-0.16534423828125;2.46296142443284;16.99731624501214;8.79638991824759;0.95068359375;0.07080078125;-0.32421875;-30.375;-41.25;-19.0625;
1441975303557386;-0.82672119140625;0.12420654296875;-0.52294921875;-0.1666259765625;2.5050369595727258;16.994504953408494;8.789456129739314;0.9580078125;0.06640625;-0.3369140625;-22.9375;-34.1875;-15.0625;
1441975303564387;-0.8280029296875;0.12481689453125;-0.520751953125;-0.1666259765625;2.5329835954017796;17.00289581338523;8.777787046314494;0.9833984375;0.07080078125;-0.34814453125;-10.75;-26.3125;-10.0;
1441975303595388;-0.8287353515625;0.12591552734375;-0.51947021484375;-0.1661376953125;2.547836795856295;17.01835470997732;8.759368392071742;0.978515625;0.11181640625;-0.3359375;-2.5;-21.125;-3.0625;
1441975303602389;-0.8287353515625;0.12811279296875;-0.51898193359375;-0.1658935546875;2.549364390640285;17.036980384806558;8.732384661774079;0.94921875;0.14892578125;-0.3203125;-0.1875;-16.5625;4.625;
1441975303623390;-0.82830810546875;0.13201904296875;-0.5189208984375;-0.16522216796875;2.5419821450750195;17.071629547636856;8.6841776435826;0.93896484375;0.15380859375;-0.3056640625;-4.1875;-12.1875;11.0;
1441975303647391;-0.8267822265625;0.13775634765625;-0.51995849609375;-0.1649169921875;2.5159068271880893;17.11373850282684;8.619613475766826;0.9697265625;0.14892578125;-0.33544921875;-7.75;-9.5;21.125;
1441975303671393;-0.825439453125;0.14410400390625;-0.521240234375;-0.162109375;2.48860187234058;17.19011610319502;8.528851214956532;1.0107421875;0.10400390625;-0.32080078125;-16.375;-4.75;27.4375;
1441975303691394;-0.82403564453125;0.15106201171875;-0.52239990234375;-0.15899658203125;2.46384972240954;17.2762558207747;8.426938419693704;1.009765625;0.037109375;-0.33984375;-7.5625;-4.9375;34.8125;
1441975303705395;-0.82244873046875;0.157958984375;-0.52349853515625;-0.15704345703125;2.440665715627295;17.350158747120105;8.332612115721629;1.02734375;0.03076171875;-0.33203125;-7.6875;-7.5625;39.0625;
1441975303723396;-0.82122802734375;0.1634521484375;-0.5240478515625;-0.156005859375;2.4267440105487568;17.403846327652182;8.260313306574632;1.03076171875;0.037109375;-0.32080078125;-13.0625;-6.6875;36.3125;
1441975303751397;-0.8199462890625;0.16961669921875;-0.52410888671875;-0.1558837890625;2.4175135992259014;17.452206226107137;8.186427341914758;0.99072265625;0.052734375;-0.32861328125;-12.625;-7.0;28.25;
1441975303773399;-0.81829833984375;0.17523193359375;-0.5247802734375;-0.1561279296875;2.4007831724804207;17.493243311682065;8.120851554668631;0.96923828125;0.0166015625;-0.333984375;-20.4375;-7.25;26.125;
1441975303783399;-0.8175048828125;0.1783447265625;-0.5255126953125;-0.1544189453125;2.3910560518676465;17.538412188062562;8.069978225623332;0.9736328125;-0.02099609375;-0.3125;-20.9375;-4.375;21.8125;
1441975303814401;-0.81744384765625;0.18017578125;-0.52569580078125;-0.15185546875;2.392330264782473;17.582947768412062;8.028508267844195;0.9404296875;-0.02294921875;-0.32568359375;-3.4375;-4.0625;15.25;
1441975303825402;-0.81732177734375;0.1837158203125;-0.525146484375;-0.1500244140625;2.4005975628154967;17.630851370836258;7.9730657779732255;0.89990234375;0.046875;-0.36376953125;6.375;-5.375;15.875;
1441975303851403;-0.8162841796875;0.1903076171875;-0.52459716796875;-0.1495361328125;2.4039468958264245;17.686755835574527;7.891041246137992;0.89013671875;0.07275390625;-0.4072265625;-2.1875;-6.1875;22.9375;
1441975303863404;-0.8138427734375;0.198974609375;-0.525146484375;-0.14959716796875;2.3904241137432307;17.755704525529737;7.785132197423987;0.90625;0.0341796875;-0.40380859375;-19.375;-5.5;32.75;
1441975303885405;-0.8111572265625;0.20703125;-0.52618408203125;-0.1495361328125;2.3724529609940053;17.823875871815417;7.683210269950114;0.9423828125;-0.02197265625;-0.375;-29.1875;-0.25;39.5625;
1441975303909406;-0.80877685546875;0.21380615234375;-0.52728271484375;-0.14923095703125;2.3565742666540412;17.885934351828883;7.593914857458778;0.93701171875;-0.0283203125;-0.39013671875;-26.75;4.625;38.375;
1441975303935408;-0.80615234375;0.22076416015625;-0.52838134765625;-0.149169921875;2.340467425699819;17.947986569824455;7.502670721111996;0.92529296875;0.02783203125;-0.41455078125;-19.4375;6.75;36.8125;
1441975303947409;-0.80322265625;0.22857666015625;-0.529296875;-0.14996337890625;2.3250271661916235;0.007705728043655359;7.406423874705122;0.91748046875;0.03564453125;-0.4306640625;-20.9375;8.9375;38.3125;
1441975303963409;-0.80010986328125;0.2369384765625;-0.5301513671875;-0.15069580078125;2.3118982303201596;0.07354827352250887;7.301854723146234;0.89697265625;0.0107421875;-0.43017578125;-28.1875;10.375;38.9375;
1441975303991411;-0.7967529296875;0.24505615234375;-0.53131103515625;-0.1514892578125;2.295750397760236;0.13961197141721415;7.197882923677503;0.86865234375;-0.0224609375;-0.435546875;-30.8125;11.5;40.125;
1441975304005412;-0.793212890625;0.2523193359375;-0.532958984375;-0.1522216796875;2.274218852760963;0.20367445691568134;7.0999233543735;0.8759765625;-0.03564453125;-0.43359375;-29.9375;13.625;39.375;
1441975304031413;-0.7901611328125;0.25872802734375;-0.53411865234375;-0.15313720703125;2.2587353636335292;0.2567392975437597;7.01563522018355;0.8759765625;-0.02490234375;-0.4404296875;-26.0625;17.6875;37.375;
1441975304043414;-0.7874755859375;0.26416015625;-0.53509521484375;-0.1544189453125;2.244201395440098;0.2969293077222147;6.946870075655186;0.86181640625;0.001953125;-0.46875;-23.6875;17.5625;33.75;
1441975304065415;-0.78521728515625;0.26861572265625;-0.53582763671875;-0.1556396484375;2.232480208422669;0.3283261554390635;6.891224651033938;0.869140625;0.01025390625;-0.4716796875;-22.0;17.25;28.6875;
1441975304089417;-0.78289794921875;0.27294921875;-0.53668212890625;-0.15704345703125;2.2187564251368124;0.35800766157297526;6.837142935116647;0.85888671875;-0.00244140625;-0.46923828125;-18.5625;15.6875;23.0;
1441975304103417;-0.7802734375;0.27740478515625;-0.53778076171875;-0.158447265625;2.201996748886469;0.39164231060277355;6.778564188095425;0.85107421875;-0.01806640625;-0.4501953125;-19.5;16.375;21.0625;
1441975304134419;-0.77783203125;0.28143310546875;-0.5390625;-0.158935546875;2.187653306757042;0.4334796232346471;6.717530300257993;0.86083984375;-0.03076171875;-0.451171875;-19.8125;18.0;21.9375;
1441975304143420;-0.77532958984375;0.28472900390625;-0.54071044921875;-0.1597900390625;2.166602031278917;0.46863403710516716;6.6650226298067645;0.876953125;-0.04541015625;-0.4697265625;-14.1875;18.4375;21.75;
1441975304171421;-0.774169921875;0.28729248046875;-0.54095458984375;-0.15985107421875;2.16626268970268;0.4938242780261517;6.628367632597179;0.90087890625;-0.04150390625;-0.4423828125;-12.875;19.125;18.625;
1441975304185422;-0.77301025390625;0.2900390625;-0.54058837890625;-0.1617431640625;2.1639146073636923;0.4959514364453294;6.606100127979111;0.9091796875;-0.0712890625;-0.5126953125;-8.3125;12.625;13.0625;
1441975304203423;-0.77215576171875;0.292236328125;-0.54034423828125;-0.16278076171875;2.164121410420555;0.5030430878853288;6.5849176793546;0.89453125;-0.0615234375;-0.453125;-18.125;9.3125;7.75;
1441975304231425;-0.7725830078125;0.2940673828125;-0.53851318359375;-0.16351318359375;2.184811952823836;0.4955810979679205;6.580489024399038;0.87353515625;-0.10693359375;-0.455078125;-13.4375;8.625;4.375;
1441975304247426;-0.77301025390625;0.294921875;-0.5367431640625;-0.16552734375;2.1961387108577264;0.46692576172647027;6.596140734195776;0.86669921875;-0.10546875;-0.50927734375;-11.875;0.875;0.5625;
1441975304262427;-0.77423095703125;0.29345703125;-0.53564453125;-0.16619873046875;2.2045167934929943;0.4369000298771559;6.629423111717143;0.89453125;-0.08642578125;-0.46728515625;-14.5625;0.75;-6.625;
1441975304283428;-0.776123046875;0.2921142578125;-0.5335693359375;-0.16650390625;2.2271477203131544;0.40396308568455436;6.666152205786568;0.87548828125;-0.09130859375;-0.44580078125;0.375;0.125;-14.0;
1441975304305429;-0.7781982421875;0.29034423828125;-0.531005859375;-0.1678466796875;2.249802692207067;0.35360572526460154;6.717508635058216;0.83544921875;-0.08056640625;-0.47314453125;0.6875;-4.5625;-14.375;
1441975304322430;-0.7806396484375;0.28814697265625;-0.52825927734375;-0.16912841796875;2.275819094744027;0.2995252286343794;6.7747435542574;0.8486328125;-0.03076171875;-0.4560546875;-2.125;-6.8125;-17.25;
1441975304347431;-0.7830810546875;0.28631591796875;-0.5250244140625;-0.17083740234375;2.306312892857138;0.24224047610272;6.831422757733992;0.85107421875;-0.03857421875;-0.4658203125;-1.1875;-8.375;-20.25;
1441975304366433;-0.78607177734375;0.28369140625;-0.52154541015625;-0.172119140625;2.342526218683564;0.18257600485389575;6.895665422235831;0.84521484375;-0.04736328125;-0.4609375;-5.0625;-10.625;-21.75;
1441975304391434;-0.78961181640625;0.27984619140625;-0.5181884765625;-0.17242431640625;2.3823484552202947;0.12578051512469604;6.966551153986668;0.841796875;-0.06787109375;-0.44970703125;-1.8125;-14.375;-26.6875;
1441975304403435;-0.79315185546875;0.27447509765625;-0.515625;-0.1727294921875;2.4127494584030003;0.06342943975745954;7.050058275111426;0.83984375;-0.07275390625;-0.4365234375;6.875;-17.3125;-30.9375;
1441975304425436;-0.7960205078125;0.26788330078125;-0.5145263671875;-0.17315673828125;2.4244779920351127;17.99995405677814;7.140076230451605;0.87060546875;-0.0302734375;-0.40576171875;13.3125;-15.375;-34.9375;
1441975304449437;-0.7987060546875;0.2603759765625;-0.51416015625;-0.17315673828125;2.4295900435936177;17.938360641439115;7.234221453998901;0.8974609375;0.0126953125;-0.3564453125;18.9375;-9.3125;-35.9375;
1441975304465438;-0.80194091796875;0.25213623046875;-0.5133056640625;-0.1728515625;2.4438285227598935;17.872637172917603;7.336673619680214;0.89697265625;0.02197265625;-0.36474609375;24.4375;-4.8125;-37.875;
1441975304493440;-0.80548095703125;0.2437744140625;-0.51171875;-0.17303466796875;2.4673449279786888;17.799008262768844;7.445068393832725;0.896484375;0.02099609375;-0.3857421875;27.8125;-7.125;-42.3125;
1441975304509441;-0.8087158203125;0.23602294921875;-0.5098876953125;-0.1741943359375;2.492172494910871;17.720442442773795;7.551466828076309;0.88330078125;0.0400390625;-0.3935546875;25.375;-9.75;-45.0625;
1441975304527442;-0.81158447265625;0.22869873046875;-0.5081787109375;-0.1759033203125;2.5153438323378436;17.64135498835077;7.654239242237205;0.88818359375;0.02099609375;-0.38623046875;17.3125;-10.3125;-46.6875;
1441975304553443;-0.81414794921875;0.22186279296875;-0.5064697265625;-0.17742919921875;2.539605043785306;17.569739026910632;7.747978922208716;0.8828125;0.015625;-0.3896484375;13.0625;-8.125;-46.875;
1441975304570444;-0.81646728515625;0.21533203125;-0.5050048828125;-0.17901611328125;2.562040868727196;17.501730730831234;7.836675927455966;0.89013671875;0.00537109375;-0.4189453125;11.5;-6.4375;-44.875;
1441975304586445;-0.8184814453125;0.20831298828125;-0.50433349609375;-0.18011474609375;2.5772725796934015;17.438248929391367;7.925330722053982;0.9150390625;-0.01318359375;-0.400390625;9.625;-6.875;-45.0625;
1441975304605446;-0.82049560546875;0.200927734375;-0.50372314453125;-0.18109130859375;2.5937275412601073;17.374553907887936;8.016233182206852;0.93994140625;-0.0126953125;-0.38134765625;13.5625;-4.6875;-45.8125;
1441975304622447;-0.8223876953125;0.19354248046875;-0.5029296875;-0.1824951171875;2.6126125327521663;17.307007366913126;8.10894842416792;0.95166015625;0.02392578125;-0.40380859375;16.125;-2.75;-45.25;
1441975304644448;-0.82415771484375;0.186767578125;-0.501953125;-0.1844482421875;2.6338461258614196;17.238699767761332;8.197457069951433;0.96875;0.07958984375;-0.40625;14.9375;-3.4375;-43.9375;
1441975304665450;-0.82537841796875;0.18084716796875;-0.50115966796875;-0.18701171875;2.65103654975905;17.170582230191343;8.279508746274809;0.98828125;0.12353515625;-0.4130859375;11.5;-4.125;-41.0;
1441975304681451;-0.8260498046875;0.176025390625;-0.5006103515625;-0.19000244140625;2.6632561813411986;17.105824280153854;8.351748420015097;0.9951171875;0.134765625;-0.3974609375;5.8125;-3.5625;-37.625;
1441975304712452;-0.82635498046875;0.17193603515625;-0.5003662109375;-0.1932373046875;2.67101705191395;17.043605234188306;8.417464809092923;0.98095703125;0.13671875;-0.380859375;0.0625;-1.75;-33.875;
1441975304725453;-0.82647705078125;0.16802978515625;-0.500244140625;-0.19622802734375;2.677504781490967;16.98536626951773;8.479379774616696;0.95458984375;0.138671875;-0.35693359375;-2.875;-0.4375;-30.375;
1441975304749454;-0.82684326171875;0.16436767578125;-0.49981689453125;-0.198974609375;2.6891287649030713;16.932141441434982;8.53621474556483;0.92724609375;0.138671875;-0.33984375;-2.6875;0.0625;-28.6875;
1441975304764455;-0.8270263671875;0.16119384765625;-0.49945068359375;-0.2017822265625;2.699322913613676;16.88165040338612;8.587975802423744;0.87890625;0.1328125;-0.34521484375;-2.8125;-0.6875;-27.875;
1441975304785456;-0.82696533203125;0.15789794921875;-0.49951171875;-0.20416259765625;2.7047043713172094;16.834559450274114;8.638746444703362;0.86376953125;0.14013671875;-0.32763671875;-4.0625;-0.75;-25.5625;
1441975304802457;-0.82684326171875;0.15472412109375;-0.49993896484375;-0.20635986328125;2.706613981405485;16.789987030055926;8.687579287024748;0.8876953125;0.16943359375;-0.35205078125;-1.4375;2.3125;-22.9375;
1441975304832459;-0.826416015625;0.1514892578125;-0.5008544921875;-0.2080078125;2.7023636983755157;16.749811341901662;8.734669345757126;0.8984375;0.19287109375;-0.36865234375;-0.125;4.875;-20.375;
1441975304845460;-0.82598876953125;0.148193359375;-0.5018310546875;-0.20977783203125;2.698369967651577;16.707756075349998;8.78345907363264;0.91357421875;0.20458984375;-0.37109375;2.4375;7.5;-18.125;
1441975304863461;-0.82525634765625;0.14508056640625;-0.5032958984375;-0.21136474609375;2.687988292305078;16.667406608688065;8.830739361261129;0.90625;0.23486328125;-0.3779296875;2.8125;8.9375;-16.9375;
1441975304884462;-0.8243408203125;0.142333984375;-0.5050048828125;-0.2127685546875;2.6737907675002646;16.63028460432485;8.874117948145674;0.93408203125;0.26806640625;-0.3798828125;4.1875;11.3125;-13.3125;
1441975304913464;-0.82318115234375;0.139892578125;-0.5072021484375;-0.213623046875;2.6526212240390574;16.59923066059135;8.91266787760148;0.94677734375;0.29296875;-0.40087890625;3.875;13.9375;-9.75;
1441975304929465;-0.82196044921875;0.13787841796875;-0.50958251953125;-0.21392822265625;2.62796689801234;16.575867740656655;8.944141055905424;0.94580078125;0.29931640625;-0.400390625;5.9375;16.3125;-5.4375;
1441975304952466;-0.82073974609375;0.13616943359375;-0.51202392578125;-0.21392822265625;2.6017880768704518;16.557213634287695;8.970961841192135;0.9443359375;0.29931640625;-0.4052734375;6.8125;17.0;-1.6875;
1441975304982468;-0.8194580078125;0.13470458984375;-0.51458740234375;-0.213623046875;2.5731972290416465;16.542673572332472;8.993969234678913;0.92236328125;0.287109375;-0.39501953125;7.25;17.375;0.375;
1441975304989468;-0.8182373046875;0.13323974609375;-0.5172119140625;-0.21295166015625;2.543921246500247;16.53177051068271;9.014929387261404;0.9033203125;0.26025390625;-0.38818359375;7.3125;17.75;1.1875;
1441975305004469;-0.81707763671875;0.13165283203125;-0.519775390625;-0.21197509765625;2.5154581800692135;16.523297533543055;9.035164968946672;0.8896484375;0.24951171875;-0.38134765625;9.125;17.8125;1.8125;
1441975305025470;-0.81622314453125;0.130126953125;-0.5220947265625;-0.2105712890625;2.49026843474838;16.52105591302936;9.050691734942971;0.8837890625;0.2587890625;-0.37158203125;11.0;17.5625;2.875;
1441975305049472;-0.81561279296875;0.128662109375;-0.5240478515625;-0.2091064453125;2.469694338914434;16.521224452962237;9.063671186925557;0.87841796875;0.259765625;-0.37646484375;13.0;15.5;4.1875;
1441975305064472;-0.81488037109375;0.127197265625;-0.52587890625;-0.20806884765625;2.450259576572944;16.516370928984703;9.079697873506298;0.8876953125;0.26171875;-0.380859375;13.0;13.0625;4.3125;
1441975305085474;-0.81427001953125;0.12603759765625;-0.52740478515625;-0.2073974609375;2.4342612530722745;16.51046364840734;9.093887555469628;0.90234375;0.28076171875;-0.36376953125;11.5625;12.0;4.0625;
1441975305109475;-0.8138427734375;0.12481689453125;-0.52838134765625;-0.2071533203125;2.425389302193335;16.50093086534065;9.109860256079598;0.90576171875;0.2763671875;-0.35595703125;8.9375;10.0625;3.4375;
1441975305124476;-0.813720703125;0.12420654296875;-0.52862548828125;-0.20745849609375;2.4245476240074417;16.49214142256329;9.119998719196328;0.9033203125;0.294921875;-0.359375;7.0625;7.5;2.3125;
1441975305145477;-0.81365966796875;0.124267578125;-0.52838134765625;-0.20849609375;2.428173769537284;16.48124596778476;9.126171212065362;0.888671875;0.27783203125;-0.3564453125;2.3125;3.0625;1.5;
1441975305162478;-0.81365966796875;0.1246337890625;-0.52752685546875;-0.21026611328125;2.4383644671903593;16.465929770741;9.132041130240406;0.876953125;0.25341796875;-0.35400390625;-4.125;0.375;0.4375;
1441975305186479;-0.81378173828125;0.1253662109375;-0.5263671875;-0.2122802734375;2.451588271402865;16.45167569094128;9.134205567085743;0.8759765625;0.24951171875;-0.36474609375;-9.25;-1.5;-1.4375;
1441975305208481;-0.8140869140625;0.1258544921875;-0.52490234375;-0.214599609375;2.469967824590384;16.43369630963552;9.139719409106714;0.88623046875;0.236328125;-0.373046875;-11.9375;-3.5;-2.5;
1441975305236482;-0.81451416015625;0.125732421875;-0.52325439453125;-0.2169189453125;2.492486114213497;16.412461146648145;9.150871190703073;0.890625;0.2314453125;-0.373046875;-12.9375;-5.4375;-5.4375;
1441975305244483;-0.81494140625;0.12579345703125;-0.52142333984375;-0.21966552734375;2.517084346131056;16.388540246531388;9.16205629106463;0.88720703125;0.2490234375;-0.36865234375;-10.5625;-6.125;-8.0625;
1441975305268484;-0.81561279296875;0.1256103515625;-0.51934814453125;-0.2222900390625;2.545892907668276;16.366010363556384;9.173309954338114;0.888671875;0.2421875;-0.3681640625;-13.5625;-6.9375;-9.375;
1441975305282485;-0.8165283203125;0.12518310546875;-0.516845703125;-0.224853515625;2.580722166206744;16.34471107365508;9.184354257116365;0.8828125;0.24169921875;-0.3681640625;-12.3125;-8.6875;-10.8125;
1441975305304486;-0.817626953125;0.12451171875;-0.51397705078125;-0.227783203125;2.6215433514996005;16.31989523995132;9.19821471434818;0.91162109375;0.2529296875;-0.39013671875;-11.375;-10.5625;-12.5;
1441975305325487;-0.81915283203125;0.1234130859375;-0.510498046875;-0.23077392578125;2.671964207832019;16.295234382140347;9.21317912893156;0.8955078125;0.25537109375;-0.39697265625;-12.375;-11.875;-15.625;
1441975305341488;-0.82061767578125;0.122314453125;-0.50689697265625;-0.23406982421875;2.723938312576598;16.268275218790375;9.22899569941127;0.83056640625;0.23095703125;-0.3837890625;-12.1875;-14.8125;-19.75;
1441975305389491;-0.82220458984375;0.12091064453125;-0.50323486328125;-0.23712158203125;2.7777235477434754;16.243276218331363;9.245107239929562;0.78857421875;0.22021484375;-0.3603515625;-13.5625;-15.8125;-21.4375;
1441975305394491;-0.8240966796875;0.119140625;-0.499267578125;-0.23974609375;2.8363725934870576;16.222867195416185;9.259807893476397;0.78173828125;0.234375;-0.37451171875;-11.625;-15.625;-21.75;
1441975305434494;-0.82635498046875;0.1168212890625;-0.49481201171875;-0.24237060546875;2.903443028592974;16.202479419365666;9.27655633127105;0.79638671875;0.26416015625;-0.40087890625;-7.875;-17.0625;-21.6875;
1441975305449494;-0.8284912109375;0.11419677734375;-0.49041748046875;-0.2452392578125;2.970990179510362;16.178428410895297;9.297136681818372;0.8271484375;0.31494140625;-0.412109375;-5.3125;-20.0625;-23.375;
1441975305462495;-0.83038330078125;0.11175537109375;-0.486083984375;-0.24847412109375;3.0370757397152612;16.151945005501243;9.317711641567717;0.86279296875;0.33984375;-0.39794921875;-5.125;-21.0;-24.9375;
1441975305465495;-0.83221435546875;0.109619140625;-0.4818115234375;-0.25177001953125;3.1015357170903117;16.127055765466288;9.335189214038422;0.89453125;0.3564453125;-0.4033203125;-6.875;-21.375;-25.625;
1441975305484496;-0.83380126953125;0.1082763671875;-0.4775390625;-0.2552490234375;3.1625061865392814;16.104380006251272;9.346193980392815;0.904296875;0.35302734375;-0.4111328125;-9.0;-21.5;-25.125;
1441975305508498;-0.8353271484375;0.10699462890625;-0.47308349609375;-0.259033203125;3.225479369014135;16.08012926219015;9.356974623180156;0.88916015625;0.34619140625;-0.41552734375;-12.75;-21.75;-22.8125;
1441975305528499;-0.83673095703125;0.10565185546875;-0.46868896484375;-0.26287841796875;3.2877429058114003;16.055158303569826;9.368362795846352;0.88330078125;0.35302734375;-0.427734375;-14.4375;-21.625;-23.3125;
1441975305545500;-0.83837890625;0.10394287109375;-0.46405029296875;-0.26654052734375;3.3545036472767618;16.032127323389453;9.380002272084576;0.86572265625;0.3564453125;-0.42626953125;-15.0;-21.1875;-24.0;
1441975305573502;-0.8402099609375;0.1019287109375;-0.4593505859375;-0.2696533203125;3.4226078222556264;16.013763864234;9.39055930158468;0.8125;0.361328125;-0.41943359375;-12.875;-21.6875;-24.875;
1441975305588502;-0.84197998046875;0.0997314453125;-0.45489501953125;-0.2725830078125;3.4884471612127204;15.995948896113841;9.402248792736735;0.78076171875;0.36376953125;-0.431640625;-9.5;-21.125;-24.875;
1441975305603503;-0.8436279296875;0.09747314453125;-0.45068359375;-0.2752685546875;3.551122946861471;15.97945532227372;9.41398645815503;0.763671875;0.3857421875;-0.43212890625;-7.375;-19.5625;-23.5625;
