1441975188948831;-0.90264892578125;-0.15118408203125;-0.31201171875;-0.25531005859375;6.0922274321472845;16.02817139070285;10.481862203120007;1.951171875;0.46923828125;-0.275390625;327.625;-20.3125;-258.625;
1441975188963832;-0.91143798828125;-0.19757080078125;-0.2904052734375;-0.21466064453125;6.361012779333698;16.280488221964255;10.638044421830113;1.6142578125;0.53125;-0.28173828125;361.125;-19.75;-243.6875;
1441975188986833;-0.91595458984375;-0.2318115234375;-0.2718505859375;-0.1829833984375;6.559832884706799;16.47864763361575;10.756750499374217;1.3662109375;0.90380859375;-0.2509765625;334.375;-40.0625;-197.6875;
1441975189008834;-0.917236328125;-0.253662109375;-0.25927734375;-0.1650390625;6.692983425520701;16.591829094612763;10.838948323697611;1.09423828125;1.02294921875;-0.31787109375;260.125;-39.3125;-145.8125;
1441975189023835;-0.9140625;-0.264892578125;-0.25872802734375;-0.1658935546875;6.735342659528595;16.575302011005636;10.907206223850341;1.05810546875;0.98291015625;-0.29248046875;157.5625;-34.4375;-99.875;
1441975189045837;-0.910888671875;-0.269287109375;-0.259521484375;-0.17462158203125;6.7745939556580055;16.517480197139363;10.944934935703543;1.05859375;0.859375;-0.2197265625;51.8125;-43.4375;-75.1875;
1441975189068838;-0.908447265625;-0.2689208984375;-0.2608642578125;-0.18548583984375;6.802623051074122;16.451208043895086;10.95692855811794;0.94775390625;0.48681640625;-0.26708984375;-25.0625;-47.125;-57.0625;
1441975189084839;-0.9068603515625;-0.2685546875;-0.26409912109375;-0.1890869140625;6.782515117570097;16.4215924268793;10.966653039006689;0.7900390625;0.0830078125;-0.37744140625;-69.6875;-40.5;-40.4375;
1441975189105840;-0.906005859375;-0.2713623046875;-0.2672119140625;-0.18487548828125;6.7428901040938385;16.43404968491225;10.987558528222621;0.7392578125;-0.08349609375;-0.44384765625;-45.75;-15.875;-29.75;
1441975189128841;-0.90545654296875;-0.27685546875;-0.269287109375;-0.1761474609375;6.703905297547601;16.472299029598748;11.017686205437425;0.7275390625;0.00927734375;-0.48046875;4.875;-0.125;-30.3125;
1441975189144842;-0.90435791015625;-0.28302001953125;-0.27203369140625;-0.167724609375;6.660585463796452;16.505742027942023;11.054012931993858;0.669921875;0.18115234375;-0.56103515625;41.5;9.3125;-31.0625;
1441975189174844;-0.90283203125;-0.28875732421875;-0.2755126953125;-0.16033935546875;6.611867451602808;16.531042108631212;11.090922222200152;0.638671875;0.26318359375;-0.5869140625;43.125;16.25;-31.25;
1441975189188845;-0.90118408203125;-0.29443359375;-0.2799072265625;-0.151611328125;6.547115078072083;16.560927414721455;11.128568236907654;0.61181640625;0.251953125;-0.52099609375;37.9375;18.3125;-29.3125;
1441975189203846;-0.899169921875;-0.29998779296875;-0.2852783203125;-0.1419677734375;6.4669821146777595;16.59240277481653;11.167506363008684;0.61376953125;0.203125;-0.505859375;40.875;25.625;-27.5;
1441975189225847;-0.897216796875;-0.30548095703125;-0.29107666015625;-0.13055419921875;6.37354926821725;16.63222037113328;11.205206993810549;0.57666015625;0.25048828125;-0.556640625;45.125;36.625;-21.9375;
1441975189249848;-0.8948974609375;-0.31103515625;-0.2974853515625;-0.1182861328125;6.268889563094625;16.674004921625368;11.244239818160729;0.57470703125;0.3125;-0.57568359375;56.75;43.0;-15.25;
1441975189263849;-0.892578125;-0.315185546875;-0.3043212890625;-0.10693359375;6.158768325498869;16.71039609289774;11.276628489018536;0.5673828125;0.33740234375;-0.6337890625;60.625;51.0625;-12.625;
1441975189285850;-0.89044189453125;-0.31744384765625;-0.3114013671875;-0.09698486328125;6.04634766093852;16.74012634944957;11.299317755255458;0.560546875;0.369140625;-0.71484375;52.9375;54.6875;-4.25;
1441975189308852;-0.88836669921875;-0.318115234375;-0.319580078125;-0.0869140625;5.9171426826288505;16.769047502306062;11.314489866462823;0.54736328125;0.32275390625;-0.73486328125;39.5625;54.5625;3.25;
1441975189323852;-0.8858642578125;-0.31842041015625;-0.32904052734375;-0.07568359375;5.76767181190024;16.8004543195222;11.329431784466168;0.61083984375;0.3193359375;-0.7333984375;35.375;56.8125;11.1875;
1441975189345854;-0.88250732421875;-0.31927490234375;-0.33953857421875;-0.06390380859375;5.605377558559608;16.829611737324008;11.35071353164478;0.666015625;0.3017578125;-0.66162109375;39.5625;62.25;14.5625;
1441975189368855;-0.8785400390625;-0.3192138671875;-0.3514404296875;-0.05340576171875;5.4312839664273245;16.846854789139435;11.372597442702473;0.7158203125;0.3701171875;-0.6474609375;45.625;68.5;14.0625;
1441975189391856;-0.874267578125;-0.318603515625;-0.36395263671875;-0.04302978515625;5.2492549659023;16.861192885958214;11.393511896079474;0.74853515625;0.37939453125;-0.62890625;35.625;73.4375;16.4375;
1441975189405857;-0.86956787109375;-0.31829833984375;-0.37628173828125;-0.03289794921875;5.070017749294337;16.872684098331238;11.417590051430878;0.75146484375;0.2451171875;-0.6181640625;26.0;78.0;14.0625;
1441975189428858;-0.8646240234375;-0.3184814453125;-0.38800048828125;-0.0233154296875;4.900167751600062;16.880703968981976;11.445215170770396;0.7578125;0.2666015625;-0.646484375;26.4375;80.75;13.25;
1441975189443859;-0.85943603515625;-0.3189697265625;-0.39935302734375;-0.01495361328125;4.740247467805917;16.88030109126569;11.47747555884659;0.7587890625;0.24853515625;-0.591796875;26.0625;76.6875;9.0625;
1441975189465861;-0.85406494140625;-0.3182373046875;-0.4114990234375;-0.009033203125;4.580805998267758;16.86236320217491;11.51059726431467;0.80126953125;0.291015625;-0.61083984375;22.75;73.6875;6.125;
1441975189488862;-0.84820556640625;-0.31671142578125;-0.42462158203125;-0.00457763671875;4.416194665948153;16.829914691551675;11.547951644826062;0.83984375;0.33349609375;-0.63671875;8.1875;75.0;8.0625;
1441975189511863;-0.84210205078125;-0.31512451171875;-0.437744140625;-0.00146484375;4.258434080838597;16.785573928332518;11.591467272758841;0.9111328125;0.32421875;-0.609375;-3.5625;75.8125;6.75;
1441975189525864;-0.83599853515625;-0.31280517578125;-0.450927734375;-0.001708984375;4.116466911163166;16.71744135732078;11.641532173950829;0.9140625;0.26708984375;-0.6416015625;-13.8125;77.75;0.3125;
1441975189549865;-0.830810546875;-0.30712890625;-0.4642333984375;-0.00469970703125;3.9788734362494647;16.637923892313037;11.676536802564193;0.853515625;0.36572265625;-0.6416015625;-28.125;76.9375;1.9375;
1441975189563866;-0.82568359375;-0.29949951171875;-0.4781494140625;-0.008544921875;3.8338321558557857;16.5513381369394;11.706625066303515;0.90283203125;0.33447265625;-0.68896484375;-53.8125;72.5625;9.75;
1441975189585867;-0.81939697265625;-0.29302978515625;-0.49267578125;-0.00885009765625;3.6665175207281866;16.474194857260052;11.747888863470784;0.9755859375;0.2548828125;-0.48876953125;-63.875;62.6875;11.125;
1441975189609869;-0.81158447265625;-0.2889404296875;-0.5078125;-0.00506591796875;3.478559110459882;16.403914260244356;11.810321148947295;1.10107421875;0.1845703125;-0.40673828125;-46.625;67.875;6.5;
1441975189623870;-0.80340576171875;-0.28765869140625;-0.5213623046875;0.00360107421875;3.288424833338384;16.359787905381786;11.880173379727879;1.1904296875;0.2314453125;-0.50048828125;-22.3125;87.375;5.8125;
1441975189645871;-0.79571533203125;-0.28924560546875;-0.531982421875;0.01641845703125;3.112686377820317;16.349688732739654;11.946790925847575;1.15673828125;0.18310546875;-0.48974609375;9.1875;92.9375;4.625;
1441975189669872;-0.78759765625;-0.2940673828125;-0.540771484375;0.030029296875;2.9613726658399577;16.33907688580409;12.032043437445553;1.03564453125;0.080078125;-0.416015625;40.3125;86.375;2.5625;
1441975189683873;-0.778564453125;-0.30023193359375;-0.54962158203125;0.04071044921875;2.8328802829680346;16.290736076993237;12.14894893956134;0.99365234375;0.1015625;-0.33935546875;59.0625;79.0625;-7.625;
1441975189705874;-0.7689208984375;-0.3052978515625;-0.559814453125;0.0472412109375;2.716580783083261;16.19387945689952;12.292052239098755;0.9443359375;0.142578125;-0.240234375;53.25;73.5;-20.5625;
1441975189728876;-0.76019287109375;-0.30743408203125;-0.57037353515625;0.04888916015625;2.621587526150324;16.063870787380786;12.435321825115622;1.02880859375;0.29248046875;-0.27001953125;32.4375;75.875;-22.25;
1441975189751877;-0.7530517578125;-0.3052978515625;-0.58111572265625;0.04595947265625;2.541921001210784;15.914678844128085;12.560322522781066;1.1083984375;0.36328125;-0.33056640625;0.375;71.0625;-20.875;
1441975189765878;-0.7479248046875;-0.29827880859375;-0.5916748046875;0.04058837890625;2.4606401404257254;15.771313310998707;12.648270137769485;1.08837890625;0.390625;-0.298828125;-33.9375;59.625;-12.8125;
1441975189788879;-0.7437744140625;-0.28759765625;-0.6025390625;0.03363037109375;2.3714421393301413;15.624945919202622;12.71703092781392;1.064453125;0.29248046875;-0.279296875;-63.3125;50.9375;-2.5625;
1441975189811880;-0.74017333984375;-0.27545166015625;-0.6129150390625;0.02703857421875;2.2764054085032726;15.486348102039226;12.773809778574657;1.0390625;0.22998046875;-0.2216796875;-83.9375;45.375;5.8125;
1441975189825881;-0.73687744140625;-0.26275634765625;-0.62255859375;0.02154541015625;2.175864022390731;15.358508090278667;12.822706505877619;1.0234375;0.18212890625;-0.20556640625;-87.625;43.5;11.625;
1441975189848882;-0.7342529296875;-0.25006103515625;-0.6309814453125;0.017578125;2.0724393327938393;15.252143458819061;12.85701119326531;0.9921875;0.1669921875;-0.2109375;-84.3125;43.625;18.0625;
1441975189871884;-0.73248291015625;-0.2374267578125;-0.637939453125;0.01513671875;1.9668722554846614;15.174151534558607;12.870070120562156;0.95654296875;0.1787109375;-0.22265625;-76.625;41.375;26.875;
1441975189885885;-0.731689453125;-0.22454833984375;-0.6435546875;0.01348876953125;1.861349934217965;15.124221390988946;12.857765647519336;0.931640625;0.1923828125;-0.23046875;-67.9375;36.3125;35.125;
1441975189908886;-0.7318115234375;-0.2109375;-0.64801025390625;0.01226806640625;1.7538829704896988;15.102971480368618;12.81590849531207;0.88916015625;0.19580078125;-0.23193359375;-63.5625;30.125;42.5625;
1441975189931887;-0.73260498046875;-0.1962890625;-0.6517333984375;0.011962890625;1.6364387507027152;15.112208258205754;12.743301658805889;0.84326171875;0.20068359375;-0.23046875;-63.0;23.8125;50.6875;
1441975189945888;-0.73388671875;-0.1812744140625;-0.65460205078125;0.0133056640625;1.509288788778779;15.162281531055536;12.635455133574155;0.8291015625;0.19189453125;-0.21875;-62.0;19.125;59.9375;
1441975189968889;-0.73541259765625;-0.16656494140625;-0.65667724609375;0.01641845703125;1.377005995281051;15.258019887396074;12.4908120651202;0.82958984375;0.17529296875;-0.21240234375;-55.625;15.9375;68.5625;
1441975189991891;-0.73724365234375;-0.15228271484375;-0.657958984375;0.020751953125;1.246846396997318;15.407534978147794;12.29944401012343;0.82275390625;0.177734375;-0.20068359375;-45.375;12.75;75.6875;
1441975190005891;-0.73907470703125;-0.13800048828125;-0.658935546875;0.0252685546875;1.122469941967533;15.60347835048907;12.062642806940893;0.83251953125;0.19677734375;-0.20458984375;-37.5625;10.4375;81.625;
1441975190028893;-0.74078369140625;-0.12286376953125;-0.659912109375;0.02850341796875;1.0081986766113666;15.838300820925955;11.778476575791899;0.8740234375;0.22607421875;-0.23681640625;-36.125;11.1875;85.625;
1441975190051894;-0.7423095703125;-0.10662841796875;-0.660888671875;0.030029296875;0.90672417384118;16.115513402738475;11.440736942610775;0.8984375;0.2236328125;-0.255859375;-45.0625;11.9375;85.375;
1441975190073895;-0.74371337890625;-0.08978271484375;-0.6617431640625;0.031005859375;0.8179769290864286;16.463480512655558;11.027727249410358;0.86962890625;0.21044921875;-0.251953125;-55.6875;12.25;84.1875;
1441975190088896;-0.74493408203125;-0.0731201171875;-0.66241455078125;0.03228759765625;0.7465112576459828;16.89780531519539;10.530529338716274;0.84326171875;0.17041015625;-0.23779296875;-60.25;11.0625;83.5;
1441975190111898;-0.74560546875;-0.0567626953125;-0.6632080078125;0.03350830078125;0.6941175035523643;17.395301054062493;9.971325621215858;0.88427734375;0.1650390625;-0.24658203125;-58.125;11.6875;84.5625;
1441975190127898;-0.7457275390625;-0.04083251953125;-0.6641845703125;0.03411865234375;0.6633091323911;17.916806963037004;9.387491958698742;0.97900390625;0.169921875;-0.265625;-56.25;14.75;84.75;
1441975190148900;-0.745361328125;-0.0255126953125;-0.66534423828125;0.03436279296875;0.6526471712320122;0.4370896317303739;8.8059486775694;1.0341796875;0.1787109375;-0.275390625;-57.125;17.9375;82.4375;
1441975190171901;-0.7445068359375;-0.0108642578125;-0.66668701171875;0.0345458984375;0.6594526625613762;0.9384391687996595;8.245866682582497;1.05615234375;0.18701171875;-0.263671875;-56.0;19.8125;80.3125;
1441975190185902;-0.74310302734375;0.0028076171875;-0.66827392578125;0.03521728515625;0.680508482946511;1.4126581044803497;7.718887964588202;1.07275390625;0.18359375;-0.24560546875;-52.9375;21.0;78.4375;
1441975190208903;-0.74114990234375;0.0155029296875;-0.6702880859375;0.03607177734375;0.7105690458294606;1.8441409600173249;7.239350114572251;1.13525390625;0.18994140625;-0.26318359375;-46.8125;25.0625;78.25;
1441975190231904;-0.73876953125;0.027099609375;-0.67242431640625;0.03759765625;0.7513846856758948;2.2352863385483768;6.807335919532253;1.1767578125;0.1923828125;-0.275390625;-42.0625;29.875;76.5625;
1441975190245905;-0.73602294921875;0.036865234375;-0.6748046875;0.04034423828125;0.7990233460799072;2.5865451353882;6.427583581084099;1.1728515625;0.1865234375;-0.2607421875;-34.3125;31.3125;75.625;
1441975190269907;-0.73284912109375;0.04443359375;-0.6776123046875;0.04345703125;0.8418508121369803;2.8906054721937497;6.105427535181202;1.16796875;0.14697265625;-0.25146484375;-22.25;32.875;71.0;
1441975190291908;-0.72955322265625;0.05096435546875;-0.68048095703125;0.0465087890625;0.8851063078014771;3.154812934957332;5.827082234363402;1.13916015625;0.18408203125;-0.2265625;-11.9375;34.75;66.6875;
1441975190305909;-0.72650146484375;0.05694580078125;-0.68310546875;0.0489501953125;0.928292740978001;3.369563772910137;5.597937129359478;1.064453125;0.1806640625;-0.18505859375;-8.25;33.375;62.625;
1441975190328910;-0.7236328125;0.06219482421875;-0.685546875;0.05072021484375;0.966694726899209;3.5447176450781224;5.408628818499367;1.041015625;0.18212890625;-0.16064453125;-9.0625;30.5625;58.0;
1441975190351911;-0.720947265625;0.066650390625;-0.68798828125;0.05084228515625;0.9899454209966402;3.68436657815816;5.251350870111691;1.06494140625;0.15185546875;-0.15771484375;-9.125;29.125;51.4375;
1441975190373913;-0.71868896484375;0.07086181640625;-0.69000244140625;0.04974365234375;1.0057450419920788;3.788084694615727;5.126027719579861;1.025390625;0.14990234375;-0.1357421875;-13.4375;27.6875;41.6875;
1441975190398914;-0.7171630859375;0.0750732421875;-0.69134521484375;0.046875;1.011284493410599;3.8449708669336973;5.040338685753258;0.9365234375;0.12451171875;-0.123046875;-17.8125;24.5625;32.875;
1441975190411915;-0.71624755859375;0.07952880859375;-0.69207763671875;0.04217529296875;1.0066598861047416;3.8624064517606227;4.985661512538372;0.85791015625;0.10888671875;-0.11474609375;-25.6875;19.625;24.0;
1441975190435916;-0.71588134765625;0.08453369140625;-0.69219970703125;0.0360107421875;0.9966450225531261;3.8455906069764754;4.957044299581737;0.802734375;0.099609375;-0.12060546875;-34.625;15.875;16.4375;
1441975190448917;-0.71563720703125;0.08941650390625;-0.69219970703125;0.0289306640625;0.9787090897395256;3.816897606410737;4.937089995382025;0.76953125;0.06689453125;-0.12451171875;-43.4375;12.875;9.75;
1441975190471918;-0.71588134765625;0.093505859375;-0.691650390625;0.021484375;0.9532753048788399;3.7585710557153735;4.94850969953454;0.7578125;0.0439453125;-0.08837890625;-47.1875;9.125;4.0625;
1441975190485919;-0.716552734375;0.09716796875;-0.690673828125;0.0147705078125;0.9319067957813718;3.6815775111967297;4.9833206181372445;0.7802734375;0.08447265625;-0.0986328125;-45.6875;5.8125;1.5;
1441975190508920;-0.71710205078125;0.10015869140625;-0.68975830078125;0.008544921875;0.9091527399668732;3.607736047556118;5.019683864122706;0.7802734375;0.04296875;-0.12158203125;-41.125;3.5;-0.3125;
1441975190534922;-0.717529296875;0.10235595703125;-0.68902587890625;0.0030517578125;0.8856197116177021;3.5415017053826134;5.054654469949989;0.74951171875;0.001953125;-0.09619140625;-37.125;2.0;-4.375;
1441975190553923;-0.7181396484375;0.10443115234375;-0.68804931640625;-0.00244140625;0.8624171182888029;3.4607996271138948;5.1045790359874985;0.765625;0.0341796875;-0.08642578125;-30.8125;1.625;-3.0625;
1441975190568924;-0.71881103515625;0.10772705078125;-0.686767578125;-0.00823974609375;0.8476803241536678;3.371524793710243;5.156826517848128;0.80029296875;0.0888671875;-0.1279296875;-29.75;2.8125;0.5;
1441975190592925;-0.71929931640625;0.1119384765625;-0.68548583984375;-0.014404296875;0.8371865503848813;3.2870105753218133;5.199068562612765;0.81201171875;0.072265625;-0.15380859375;-35.6875;3.0;3.125;
1441975190613926;-0.71978759765625;0.1160888671875;-0.6842041015625;-0.0203857421875;0.8280049308655222;3.202616178985586;5.24218610220793;0.83203125;0.02880859375;-0.1298828125;-41.375;2.0625;2.375;
1441975190628927;-0.72039794921875;0.11944580078125;-0.68280029296875;-0.026123046875;0.8158738507790986;3.1066936361387265;5.301034253227219;0.84765625;-0.033203125;-0.11962890625;-41.0625;0.75;-1.4375;
1441975190651928;-0.72113037109375;0.1221923828125;-0.6812744140625;-0.03143310546875;0.8038195663449352;3.002016882626814;5.3728329971681035;0.8701171875;-0.04736328125;-0.1201171875;-36.8125;-0.4375;-4.875;
1441975190665929;-0.721923828125;0.12481689453125;-0.67974853515625;-0.0361328125;0.7963095391127197;2.9007668086031884;5.444192355815353;0.888671875;-0.0615234375;-0.12451171875;-32.75;-1.625;-6.8125;
1441975190696931;-0.722900390625;0.12713623046875;-0.67803955078125;-0.04046630859375;0.7913517882566754;2.7905730570419154;5.527206907760416;0.89501953125;-0.08544921875;-0.126953125;-30.125;-2.3125;-7.0625;
1441975190711932;-0.72430419921875;0.1285400390625;-0.676025390625;-0.04449462890625;0.7859345042065533;2.6540586223024927;5.641524763120899;0.9150390625;-0.1162109375;-0.1318359375;-27.5625;-4.125;-8.8125;
1441975190733933;-0.7261962890625;0.12890625;-0.67364501953125;-0.04827880859375;0.7803915108264932;2.4845340040889443;5.79408025302339;0.93115234375;-0.12353515625;-0.12890625;-22.9375;-7.5625;-13.0;
1441975190748934;-0.72833251953125;0.12896728515625;-0.6710205078125;-0.0517578125;0.7797197975289367;2.302740891012216;5.961363039214424;0.92578125;-0.11328125;-0.1416015625;-18.0625;-10.6875;-16.375;
1441975190770935;-0.7305908203125;0.1290283203125;-0.66839599609375;-0.054443359375;0.7874682541331242;2.135225397540042;6.117626741981313;0.92138671875;-0.1123046875;-0.1484375;-16.0625;-12.3125;-16.9375;
1441975190785936;-0.73272705078125;0.12835693359375;-0.666015625;-0.05560302734375;0.8004647832524655;1.9994208878580981;6.251336120656438;0.92822265625;-0.1494140625;-0.16162109375;-12.6875;-13.0;-16.75;
1441975190808937;-0.73504638671875;0.126220703125;-0.6639404296875;-0.05511474609375;0.8154700161968372;1.8807274342835474;6.380727434283549;0.939453125;-0.19873046875;-0.16845703125;-3.625;-12.5;-17.8125;
1441975190839939;-0.73748779296875;0.1231689453125;-0.6619873046875;-0.05322265625;0.834644355062177;1.7814674463761342;6.500157489909561;0.923828125;-0.20361328125;-0.1767578125;8.8125;-12.1875;-18.0;
1441975190853940;-0.73992919921875;0.1197509765625;-0.66009521484375;-0.050048828125;0.8595206620288872;1.710429378233215;6.598045091924488;0.9169921875;-0.1982421875;-0.1806640625;18.3125;-12.9375;-16.25;
1441975190869941;-0.74237060546875;0.1162109375;-0.6583251953125;-0.0458984375;0.8887373466283122;1.6657073564670104;6.674117697426455;0.97607421875;-0.18896484375;-0.181640625;25.25;-14.5;-12.25;
1441975190892942;-0.74462890625;0.11248779296875;-0.65673828125;-0.0408935546875;0.9194779455569909;1.6459728227869503;6.729404202894136;1.07861328125;-0.18359375;-0.1884765625;29.9375;-15.0;-7.6875;
1441975190905943;-0.7469482421875;0.10791015625;-0.6551513671875;-0.03594970703125;0.9461501471595998;1.6117504291813822;6.80242670862603;1.19189453125;-0.208984375;-0.19482421875;34.125;-15.25;-6.25;
1441975190936945;-0.74932861328125;0.10302734375;-0.6534423828125;-0.03076171875;0.9740506782917613;1.5777889197172645;6.877401427124039;1.23974609375;-0.197265625;-0.20751953125;37.375;-15.75;-8.75;
1441975190950946;-0.7518310546875;0.0989990234375;-0.65142822265625;-0.02569580078125;1.0085677446557066;1.552741891895631;6.939456665235696;1.18115234375;-0.20654296875;-0.2294921875;39.125;-14.3125;-10.25;
1441975190965946;-0.7545166015625;0.09600830078125;-0.64898681640625;-0.02069091796875;1.0519491607960347;1.5381301997695145;6.986557300651827;1.0947265625;-0.2412109375;-0.23046875;35.1875;-15.875;-9.9375;
1441975190997948;-0.75738525390625;0.0936279296875;-0.6461181640625;-0.01544189453125;1.1035571030977591;1.5325789161383359;7.023054102744843;1.03662109375;-0.24853515625;-0.2177734375;30.1875;-19.125;-6.5625;
1441975191010949;-0.76055908203125;0.09161376953125;-0.64276123046875;-0.01043701171875;1.1611199529084417;1.5206094896413738;7.063462337385178;1.056640625;-0.2177734375;-0.22119140625;29.4375;-22.5625;-0.4375;
1441975191025950;-0.76385498046875;0.09014892578125;-0.6390380859375;-0.00640869140625;1.2201980978358806;1.4960264143901383;7.110242029069069;1.046875;-0.17138671875;-0.25244140625;27.375;-24.25;3.625;
1441975191056952;-0.7677001953125;0.08929443359375;-0.63458251953125;-0.00384521484375;1.2843907786601572;1.4448349779714154;7.1751644798363845;1.02587890625;-0.13134765625;-0.2578125;21.375;-26.0;5.1875;
1441975191070952;-0.77191162109375;0.0888671875;-0.6295166015625;-0.0025634765625;1.3522907075721773;1.3743371950408216;7.252388062666628;1.01220703125;-0.1328125;-0.25537109375;12.25;-31.375;1.9375;
1441975191093954;-0.7764892578125;0.08831787109375;-0.62396240234375;-0.001953125;1.423885004125327;1.2915795715337712;7.339610722658436;0.91943359375;-0.17333984375;-0.23193359375;4.0;-35.8125;-4.375;
1441975191108955;-0.78118896484375;0.08740234375;-0.61822509765625;-0.001220703125;1.4979388414022479;1.2124001467813466;7.425237142567598;0.83837890625;-0.18017578125;-0.22607421875;0.6875;-39.125;-8.4375;
1441975191130956;-0.7860107421875;0.08612060546875;-0.61224365234375;-6.103515625E-4;1.57414552365104;1.132613065013816;7.512447277907254;0.798828125;-0.15966796875;-0.248046875;3.0;-39.1875;-8.9375;
1441975191145957;-0.7908935546875;0.08489990234375;-0.60614013671875;-6.103515625E-4;1.6510700353250085;1.0510575119940682;7.598680934560627;0.83154296875;-0.10693359375;-0.27490234375;4.375;-40.0625;-7.125;
1441975191168958;-0.79583740234375;0.08416748046875;-0.5997314453125;-0.001708984375;1.7302355440574357;0.9642242256405972;7.6836496395576495;0.9052734375;-0.04345703125;-0.29345703125;2.5625;-41.8125;-4.4375;
1441975191190959;-0.8009033203125;0.08416748046875;-0.5928955078125;-0.00445556640625;1.8124556061899082;0.8664721666588779;7.769709175554656;0.93505859375;-0.017578125;-0.30712890625;-4.0;-43.4375;-4.375;
1441975191208960;-0.805908203125;0.08453369140625;-0.58599853515625;-0.00830078125;1.894449148511978;0.7651708056613332;7.8532549575728705;0.9423828125;-0.017578125;-0.3369140625;-14.0625;-44.5625;-7.0;
1441975191229961;-0.81060791015625;0.084716796875;-0.579345703125;-0.01226806640625;1.9733693593327633;0.670155229011312;7.930706879495181;0.947265625;-0.0400390625;-0.35107421875;-20.875;-44.4375;-10.6875;
1441975191250963;-0.8150634765625;0.08428955078125;-0.572998046875;-0.01593017578125;2.0490180923782306;0.5820021167302278;8.00503200598341;0.943359375;-0.076171875;-0.3486328125;-21.6875;-43.25;-15.0;
1441975191274964;-0.81927490234375;0.08294677734375;-0.567138671875;-0.01910400390625;2.119452176235068;0.4999627393078387;8.079055142067293;0.94140625;-0.09716796875;-0.359375;-18.9375;-41.5625;-18.3125;
1441975191288965;-0.82318115234375;0.08056640625;-0.5616455078125;-0.021728515625;2.1853325086888957;0.42270591311682415;8.154826651707499;0.92041015625;-0.10595703125;-0.36181640625;-13.9375;-38.875;-22.1875;
1441975191310966;-0.82696533203125;0.07733154296875;-0.5565185546875;-0.02398681640625;2.2478431509478556;0.3484815815337539;8.232664999971405;0.89111328125;-0.1162109375;-0.3671875;-8.4375;-36.25;-26.5;
1441975191342968;-0.8304443359375;0.07366943359375;-0.5516357421875;-0.0260009765625;2.3074367129172315;0.2788673823000303;8.30865111632781;0.869140625;-0.10009765625;-0.36865234375;-3.75;-34.0625;-28.5625;
1441975191348968;-0.8336181640625;0.069580078125;-0.54730224609375;-0.02752685546875;2.361475678337036;0.21666227998075277;8.381093421956946;0.86279296875;-0.0791015625;-0.380859375;-0.5;-31.9375;-28.8125;
1441975191379970;-0.83642578125;0.0648193359375;-0.5435791015625;-0.02850341796875;2.408645108019984;0.16002129738314824;8.453105334089852;0.8759765625;-0.07421875;-0.39306640625;3.125;-28.6875;-28.9375;
1441975191385970;-0.83892822265625;0.05950927734375;-0.54034423828125;-0.02911376953125;2.450317970417336;0.10681110674668759;8.52554898578528;0.88330078125;-0.06298828125;-0.40478515625;8.0625;-24.9375;-30.25;
1441975191408972;-0.841064453125;0.05413818359375;-0.5374755859375;-0.02960205078125;2.487346785099078;0.05722112163084219;8.595159413992228;0.88037109375;-0.05615234375;-0.41015625;11.5625;-21.5625;-31.4375;
1441975191430973;-0.84295654296875;0.049072265625;-0.53497314453125;-0.0302734375;2.520336788191025;0.009863630972665884;8.660572448550415;0.8828125;-0.046875;-0.42333984375;12.5;-18.5;-31.125;
1441975191453974;-0.84454345703125;0.04437255859375;-0.5328369140625;-0.0311279296875;2.5488191070788577;17.964778574690637;8.721471159129358;0.88916015625;-0.0537109375;-0.43115234375;10.25;-15.875;-30.6875;
1441975191469975;-0.84588623046875;0.03985595703125;-0.531005859375;-0.031982421875;2.573677566789333;17.922285732222246;8.779048366187498;0.8896484375;-0.06591796875;-0.4228515625;7.75;-14.125;-30.6875;
1441975191490976;-0.8470458984375;0.03515625;-0.5294189453125;-0.03265380859375;2.5958115908083226;17.88155319153222;8.83641333071103;0.87744140625;-0.09033203125;-0.4091796875;6.375;-12.9375;-31.5625;
1441975191509977;-0.84796142578125;0.0302734375;-0.5281982421875;-0.03302001953125;2.6136396712231433;17.843726792102164;8.892939364600304;0.8583984375;-0.09375;-0.39208984375;7.3125;-11.8125;-32.5;
1441975191529979;-0.84857177734375;0.02520751953125;-0.52752685546875;-0.033203125;2.6249554431512028;17.807139871273666;8.949805191897019;0.85302734375;-0.07666015625;-0.3828125;10.125;-9.9375;-31.625;
1441975191559980;-0.848876953125;0.02044677734375;-0.52716064453125;-0.03338623046875;2.6319758195306298;17.772821598954167;9.003141498093377;0.873046875;-0.0322265625;-0.3857421875;12.625;-7.125;-28.9375;
1441975191565981;-0.8489990234375;0.01629638671875;-0.527099609375;-0.03411865234375;2.6353840779807785;17.736641927067215;9.053541888542263;0.90283203125;0.0107421875;-0.40478515625;12.8125;-4.125;-25.4375;
1441975191588982;-0.84893798828125;0.012939453125;-0.5272216796875;-0.0352783203125;2.636194114292299;17.70106253652496;9.098267056273425;0.91064453125;0.03173828125;-0.39990234375;8.8125;-3.125;-22.9375;
1441975191610983;-0.84857177734375;0.0103759765625;-0.52777099609375;-0.03662109375;2.6310555164231832;17.668364725436216;9.136067134811492;0.91064453125;0.04833984375;-0.380859375;4.5625;-2.8125;-20.0625;
1441975191628984;-0.8475341796875;0.0086669921875;-0.5294189453125;-0.03759765625;2.610689565445872;17.64396075603131;9.163601881519146;0.9208984375;0.0576171875;-0.37451171875;1.6875;-0.25;-15.75;
1441975191648985;-0.8458251953125;0.00775146484375;-0.53216552734375;-0.03826904296875;2.5749676803925095;17.626505064948418;9.182216345738034;0.96142578125;0.08447265625;-0.37548828125;1.25;5.6875;-9.4375;
1441975191670987;-0.8436279296875;0.00750732421875;-0.5355224609375;-0.03900146484375;2.5299558836037384;17.611606499105246;9.195249382130815;1.02587890625;0.1142578125;-0.400390625;1.375;12.75;-2.625;
1441975191687988;-0.84124755859375;0.0074462890625;-0.53924560546875;-0.03973388671875;2.4801954453326367;17.597009167220655;9.207251130337017;1.05859375;0.1181640625;-0.39013671875;-1.4375;16.125;0.625;
1441975191708989;-0.83843994140625;0.00732421875;-0.5435791015625;-0.039794921875;2.421520799951994;17.588153887339082;9.216575102930912;0.98828125;0.083984375;-0.3603515625;-2.625;19.8125;-0.25;
1441975191730990;-0.83502197265625;0.00689697265625;-0.54888916015625;-0.03875732421875;2.3491323323260973;17.58784652324611;9.223207079549567;0.91552734375;0.04150390625;-0.34375;-0.75;25.25;-0.75;
1441975191746991;-0.83099365234375;0.00567626953125;-0.55511474609375;-0.03619384765625;2.2636833393199036;17.597871510032185;9.229107985496993;0.90478515625;0.02685546875;-0.3447265625;5.0625;33.375;0.625;
1441975191768992;-0.82659912109375;0.00341796875;-0.56195068359375;-0.03216552734375;2.1698548568999256;17.616628252239536;9.236575571055871;0.9150390625;0.03759765625;-0.35009765625;15.1875;40.875;2.8125;
1441975191790994;-0.822021484375;3.0517578125E-4;-0.56884765625;-0.02716064453125;2.074199523797178;17.640684703266444;9.246186675691728;0.93505859375;0.0673828125;-0.34814453125;26.3125;45.375;4.5;
1441975191807995;-0.81732177734375;-0.0029296875;-0.57586669921875;-0.02203369140625;1.976559292447892;17.665585127005862;9.255853341878261;0.9765625;0.1142578125;-0.35595703125;34.8125;47.1875;7.3125;
1441975191828996;-0.8125;-0.00555419921875;-0.582763671875;-0.01715087890625;1.8789064960110164;17.693976384760173;9.258403547682423;1.0302734375;0.1611328125;-0.35498046875;36.8125;47.75;10.5625;
1441975191852997;-0.80792236328125;-0.0074462890625;-0.58917236328125;-0.01251220703125;1.7870281725094483;17.728953879166237;9.250270546969517;1.07080078125;0.18603515625;-0.3388671875;34.125;46.875;14.125;
1441975191868998;-0.80389404296875;-0.00830078125;-0.59466552734375;-0.008544921875;1.707127792320016;17.769342419373803;9.22965739246296;1.1015625;0.1806640625;-0.31884765625;30.4375;43.0;17.125;
1441975191898000;-0.80059814453125;-0.00811767578125;-0.59918212890625;-0.00543212890625;1.641278962457029;17.81306400567554;9.197928456195225;1.0966796875;0.15478515625;-0.2724609375;23.8125;35.1875;18.375;
1441975191919001;-0.798095703125;-0.0069580078125;-0.6025390625;-0.0032958984375;1.5918016364249419;17.8574140636768;9.157566496446716;1.06689453125;0.12060546875;-0.22119140625;15.4375;25.625;18.25;
1441975191928001;-0.79644775390625;-0.005126953125;-0.604736328125;-0.0025634765625;1.5594135666349525;17.890382827913314;9.120099465307536;1.05126953125;0.06591796875;-0.189453125;6.5625;16.5625;15.9375;
1441975191952003;-0.79559326171875;-0.00299072265625;-0.6058349609375;-0.00323486328125;1.5430501984273042;17.905546699176348;9.093455159994708;1.0380859375;0.02392578125;-0.1884765625;-2.8125;9.1875;11.6875;
1441975191971004;-0.79559326171875;-6.7138671875E-4;-0.60589599609375;-0.00506591796875;1.5423629877787604;17.904399360531816;9.07763494569179;1.02392578125;-0.00146484375;-0.20703125;-10.6875;2.625;6.875;
1441975191988005;-0.79638671875;0.00177001953125;-0.60479736328125;-0.0079345703125;1.5579574433802563;17.888013575005207;9.072304048032061;0.9990234375;-0.0087890625;-0.22802734375;-16.8125;-3.125;2.875;
1441975192009006;-0.7979736328125;0.00433349609375;-0.6026611328125;-0.011474609375;1.5886393809371644;17.86297104694915;9.072365466734595;0.99609375;0.009765625;-0.26953125;-21.375;-8.375;1.0625;
1441975192031007;-0.800048828125;0.0067138671875;-0.59979248046875;-0.015380859375;1.6295623151543506;17.83087740643205;9.078695952806402;0.9970703125;0.0263671875;-0.3115234375;-24.9375;-13.4375;0.25;
1441975192048008;-0.802490234375;0.008544921875;-0.59637451171875;-0.01898193359375;1.6781839706563704;17.79869441667703;9.088573518230861;0.96826171875;0.0380859375;-0.32421875;-25.5625;-17.6875;-1.3125;
1441975192069009;-0.80499267578125;0.0096435546875;-0.5928955078125;-0.02197265625;1.7279346323031424;17.768876205160467;9.101559306803097;0.93115234375;0.05029296875;-0.3310546875;-22.125;-20.3125;-2.5;
1441975192091011;-0.8074951171875;0.01031494140625;-0.58935546875;-0.02423095703125;1.7782007117824956;17.7466553237523;9.111673777165098;0.90283203125;0.07666015625;-0.33154296875;-16.375;-21.3125;-2.1875;
1441975192108012;-0.8099365234375;0.010986328125;-0.5859375;-0.02581787109375;1.8266324162252616;17.735074804751015;9.113891735324861;0.87841796875;0.09619140625;-0.333984375;-11.3125;-21.1875;-0.125;
1441975192129013;-0.8121337890625;0.01190185546875;-0.582763671875;-0.0269775390625;1.8708195147168305;17.732149629364578;9.108193572819452;0.86865234375;0.115234375;-0.34619140625;-7.6875;-19.875;3.0625;
1441975192151014;-0.8143310546875;0.01336669921875;-0.57965087890625;-0.02813720703125;1.9141333760778703;17.73466091980691;9.094799110955009;0.85107421875;0.125;-0.337890625;-6.375;-18.8125;6.3125;
1441975192176016;-0.81622314453125;0.0155029296875;-0.576904296875;-0.0291748046875;1.9516202858863285;17.74467463106541;9.071640194837745;0.8232421875;0.130859375;-0.3447265625;-7.875;-17.875;9.0625;
1441975192189016;-0.817626953125;0.01837158203125;-0.57470703125;-0.02996826171875;1.9803909508130049;17.763921027406063;9.03723609216903;0.81298828125;0.12548828125;-0.34423828125;-9.6875;-15.875;12.6875;
1441975192211018;-0.818603515625;0.02191162109375;-0.57318115234375;-0.03045654296875;1.999906048282609;17.7925547938283;8.991962160190626;0.82861328125;0.13134765625;-0.34716796875;-10.8125;-12.0;17.375;
1441975192242019;-0.8192138671875;0.02593994140625;-0.57220458984375;-0.03045654296875;2.012004804031009;17.83157164357165;8.936326159211179;0.8671875;0.13818359375;-0.35400390625;-11.25;-8.5;22.25;
1441975192249020;-0.8193359375;0.03021240234375;-0.57183837890625;-0.030029296875;2.0156886501253783;17.87814360696065;8.873904709126402;0.91845703125;0.14697265625;-0.3515625;-10.0625;-6.1875;26.875;
1441975192282022;-0.81884765625;0.03497314453125;-0.57220458984375;-0.029541015625;2.009249920578136;17.93031671251352;8.804147444738698;0.99853515625;0.16552734375;-0.365234375;-8.5625;-2.875;31.25;
1441975192311023;-0.8179931640625;0.0404052734375;-0.5731201171875;-0.02947998046875;1.9961420459365053;17.983933848629693;8.728471548412468;1.08935546875;0.1806640625;-0.38916015625;-9.1875;1.8125;35.625;
1441975192314023;-0.81695556640625;0.04638671875;-0.5740966796875;-0.03033447265625;1.9819344813762207;0.031236161540276808;8.653078254902073;1.16796875;0.1787109375;-0.4091796875;-13.3125;5.1875;37.8125;
1441975192347025;-0.81610107421875;0.0526123046875;-0.57464599609375;-0.03228759765625;1.9730789825167911;0.06591126352389018;8.58475297114687;1.14306640625;0.123046875;-0.3916015625;-20.4375;5.75;34.0625;
1441975192354026;-0.81549072265625;0.058837890625;-0.57476806640625;-0.034912109375;1.969772708515251;0.09091284167218536;8.523305773709295;1.01904296875;0.02880859375;-0.33740234375;-28.625;3.125;25.625;
1441975192377027;-0.81549072265625;0.0645751953125;-0.57403564453125;-0.03759765625;1.9783366268414382;0.1084865260460734;8.470970411454047;0.919921875;-0.0625;-0.2783203125;-34.3125;-1.375;16.9375;
1441975192392028;-0.81610107421875;0.06903076171875;-0.57244873046875;-0.0396728515625;1.9986174495543043;0.11970961599273677;8.432659250444575;0.86279296875;-0.1376953125;-0.26708984375;-34.6875;-6.6875;9.75;
1441975192414029;-0.8172607421875;0.07147216796875;-0.5704345703125;-0.04052734375;2.0261299050241717;0.12658283928256542;8.411988781240156;0.85595703125;-0.15576171875;-0.26123046875;-28.1875;-12.75;3.8125;
1441975192429030;-0.8189697265625;0.07177734375;-0.5679931640625;-0.04071044921875;2.0600840857416833;0.12098296113422387;8.415342065909245;0.884765625;-0.15234375;-0.26806640625;-15.875;-17.5;-1.25;
1441975192459032;-0.8212890625;0.07061767578125;-0.564697265625;-0.0411376953125;2.1045303288927952;0.09720436744184174;8.441803480290798;0.904296875;-0.10205078125;-0.27783203125;-4.875;-21.125;-6.375;
1441975192475033;-0.82421875;0.0689697265625;-0.560546875;-0.04229736328125;2.1600633494460917;0.059117434399038514;8.481493077859854;0.904296875;-0.052734375;-0.31689453125;0.0625;-24.6875;-11.25;
1441975192489033;-0.82745361328125;0.0675048828125;-0.55572509765625;-0.0445556640625;2.2234816747972688;0.009787135560761353;8.527033105251085;0.9189453125;-0.02392578125;-0.36083984375;-1.6875;-28.4375;-14.5;
1441975192511035;-0.83074951171875;0.06634521484375;-0.55072021484375;-0.04754638671875;2.2892245533346296;17.956382875823422;8.572323117175289;0.93310546875;9.765625E-4;-0.40478515625;-6.9375;-30.25;-16.5;
1441975192535036;-0.83392333984375;0.06573486328125;-0.545654296875;-0.05078125;2.35541378474964;17.907093462828183;8.610144592013778;0.93408203125;-0.001953125;-0.43212890625;-11.75;-30.3125;-18.1875;
1441975192566038;-0.837158203125;0.0657958984375;-0.5404052734375;-0.05426025390625;2.424227468634022;17.86226636103717;8.639653182432859;0.92138671875;-0.02392578125;-0.4521484375;-15.875;-29.75;-18.125;
1441975192571038;-0.84027099609375;0.0662841796875;-0.53515625;-0.0576171875;2.492708731674102;17.823982885737475;8.661274074304643;0.9130859375;-0.03759765625;-0.47607421875;-19.5625;-29.5625;-16.9375;
1441975192594039;-0.8431396484375;0.06671142578125;-0.53021240234375;-0.060302734375;2.557182165046879;17.794464323320422;8.677140040696207;0.89501953125;-0.06787109375;-0.47509765625;-21.3125;-30.0;-16.8125;
1441975192618041;-0.84576416015625;0.066650390625;-0.52581787109375;-0.0621337890625;2.6152425931556555;17.7722368664269;8.691359222925518;0.8603515625;-0.10302734375;-0.447265625;-19.375;-29.5;-17.4375;
1441975192631042;-0.84814453125;0.066162109375;-0.52191162109375;-0.06292724609375;2.667466998727451;17.75927433313936;8.70246279348084;0.84619140625;-0.10791015625;-0.42431640625;-13.75;-27.6875;-17.125;
1441975192654043;-0.850341796875;0.0655517578125;-0.5184326171875;-0.06280517578125;2.714694894630126;17.755843395441026;8.708431640593592;0.83935546875;-0.09765625;-0.4208984375;-7.3125;-25.625;-15.5625;
1441975192678044;-0.85235595703125;0.0650634765625;-0.5152587890625;-0.062255859375;2.7579378422026246;17.757926093860338;8.71020664940979;0.84814453125;-0.0810546875;-0.4306640625;-1.6875;-23.625;-12.25;
1441975192691045;-0.8541259765625;0.06500244140625;-0.51239013671875;-0.06195068359375;2.796631827148851;17.76019730179715;8.709032579066399;0.87548828125;-0.06396484375;-0.44677734375;0.25;-22.0;-8.8125;
1441975192714046;-0.85546875;0.0655517578125;-0.510009765625;-0.06231689453125;2.8277723837794984;17.7593352041451;8.705685247198298;0.89306640625;-0.04736328125;-0.46875;-1.5;-19.5625;-6.625;
1441975192731047;-0.8564453125;0.06683349609375;-0.50799560546875;-0.06341552734375;2.8528848935296844;17.7554544937255;8.699254445528526;0.9111328125;-0.0439453125;-0.478515625;-6.8125;-16.375;-5.125;
1441975192754049;-0.85723876953125;0.06878662109375;-0.5062255859375;-0.06488037109375;2.8743378436887164;17.751924972583318;8.688165999796986;0.9150390625;-0.05419921875;-0.47998046875;-12.375;-13.75;-3.875;
1441975192782050;-0.85784912109375;0.0714111328125;-0.504638671875;-0.06640625;2.8928189863397176;17.751795657868563;8.670614743417845;0.8974609375;-0.04833984375;-0.48779296875;-16.625;-11.25;-1.375;
1441975192791051;-0.8580322265625;0.0743408203125;-0.50372314453125;-0.067626953125;2.9022758750361173;17.756689650947973;8.648131829151474;0.87744140625;-0.06298828125;-0.50439453125;-19.0;-8.5625;1.4375;
1441975192811052;-0.85791015625;0.076904296875;-0.50347900390625;-0.0682373046875;2.9036293459121105;17.76576541551143;8.62568655204672;0.87451171875;-0.0830078125;-0.5009765625;-19.125;-4.875;2.5;
1441975192834053;-0.857666015625;0.0789794921875;-0.50360107421875;-0.068115234375;2.901056052876956;17.77951202545001;8.603758710822326;0.87255859375;-0.09814453125;-0.4990234375;-15.3125;-0.6875;2.625;
1441975192850054;-0.8572998046875;0.08074951171875;-0.50396728515625;-0.0675048828125;2.89569614138489;17.796559263730668;8.581887201180214;0.859375;-0.08837890625;-0.51025390625;-9.6875;2.4375;2.9375;
1441975192871055;-0.8568115234375;0.08233642578125;-0.50469970703125;-0.0667724609375;2.8861904007197072;17.814048119963466;8.560955388972813;0.8486328125;-0.07421875;-0.49951171875;-6.0;4.0625;3.875;
1441975192895057;-0.856201171875;0.08392333984375;-0.50555419921875;-0.06591796875;2.8749716071514366;17.83300981069049;8.53905989056643;0.8408203125;-0.04052734375;-0.4912109375;-3.3125;5.5;6.0;
1441975192910058;-0.8553466796875;0.085693359375;-0.5068359375;-0.06536865234375;2.8581028542200833;17.850478093602774;8.516714374784312;0.83935546875;-0.02099609375;-0.501953125;-1.9375;7.8125;8.125;
1441975192931059;-0.8543701171875;0.087646484375;-0.50811767578125;-0.06536865234375;2.84030325138416;17.863676765186185;8.495543964702176;0.85498046875;-0.009765625;-0.51025390625;-3.4375;10.375;8.9375;
1441975192954060;-0.85345458984375;0.0899658203125;-0.5091552734375;-0.0660400390625;2.8249491020672126;17.87218904371853;8.47467270428681;0.8564453125;-0.0048828125;-0.5166015625;-6.3125;11.625;8.8125;
1441975192970061;-0.85247802734375;0.09283447265625;-0.51007080078125;-0.0673828125;2.8101399353858354;17.87723272781481;8.452126093170923;0.8515625;4.8828125E-4;-0.5224609375;-10.8125;11.25;8.9375;
1441975192991062;-0.8514404296875;0.095947265625;-0.51104736328125;-0.0687255859375;2.794506818651791;17.88404188897952;8.426813095385363;0.84521484375;-0.0078125;-0.51171875;-15.5625;10.6875;9.3125;
1441975193014064;-0.85040283203125;0.09881591796875;-0.51214599609375;-0.06982421875;2.7778557923101173;17.89216438986751;8.402284467541788;0.85009765625;-0.02099609375;-0.50537109375;-17.25;10.75;9.9375;
1441975193030064;-0.84942626953125;0.10101318359375;-0.51324462890625;-0.0703125;2.7618997207868348;17.902590096791112;8.380802516279587;0.85302734375;-0.0205078125;-0.49658203125;-14.5;10.75;9.3125;
1441975193051066;-0.8485107421875;0.102783203125;-0.51434326171875;-0.0706787109375;2.7462813064527754;17.91171110983585;8.362937291552539;0.8564453125;-0.02197265625;-0.50439453125;-10.0;11.125;8.125;
1441975193074067;-0.84765625;0.10400390625;-0.51544189453125;-0.07110595703125;2.730719490696465;17.91674821050021;8.351213238421344;0.859375;-0.02099609375;-0.5009765625;-7.75;11.0;6.1875;
1441975193098068;-0.846923828125;0.1048583984375;-0.51641845703125;-0.07159423828125;2.716825223647794;17.918632999987373;8.343907259673308;0.85302734375;-0.0205078125;-0.49658203125;-6.6875;10.6875;3.625;
1441975193111069;-0.84613037109375;0.1053466796875;-0.5174560546875;-0.07244873046875;2.701397918494061;17.91435418712413;8.34276815124881;0.83837890625;-0.0205078125;-0.48291015625;-5.75;10.5;1.3125;
1441975193142071;-0.84539794921875;0.10565185546875;-0.51849365234375;-0.073486328125;2.686048992524451;17.90684495726713;8.344895841689775;0.8369140625;-0.01708984375;-0.46875;-6.25;10.125;-0.875;
1441975193150071;-0.8447265625;0.10565185546875;-0.5194091796875;-0.07452392578125;2.6721006527066513;17.897079484436144;8.350509947746815;0.8291015625;-0.0126953125;-0.44775390625;-6.6875;9.4375;-2.625;
1441975193171072;-0.843994140625;0.105224609375;-0.5205078125;-0.07568359375;2.6557041943986537;17.8832743212858;8.361492190869031;0.826171875;-0.0166015625;-0.45703125;-5.75;9.625;-4.125;
1441975193202074;-0.84332275390625;0.10430908203125;-0.52166748046875;-0.0767822265625;2.638975944795038;17.866708285693598;8.377569961386698;0.8408203125;9.765625E-4;-0.44580078125;-4.4375;10.0625;-5.5;
1441975193216075;-0.842529296875;0.103271484375;-0.5228271484375;-0.0784912109375;2.621022952235168;17.84246317710339;8.399246903034456;0.86328125;0.0302734375;-0.46435546875;-2.0625;10.9375;-6.375;
1441975193231076;-0.84173583984375;0.10260009765625;-0.52392578125;-0.08111572265625;2.603217053505927;17.810282993436683;8.42354444879264;0.9013671875;0.06884765625;-0.47265625;-3.5;11.125;-6.375;
1441975193254077;-0.84075927734375;0.10260009765625;-0.52496337890625;-0.08441162109375;2.5848028994729857;17.77495945692333;8.445324745160953;0.9384765625;0.0986328125;-0.47705078125;-8.0625;10.875;-5.8125;
1441975193276079;-0.83966064453125;0.1031494140625;-0.5260009765625;-0.0880126953125;2.5657602947488947;17.739725272986473;8.463439261977546;0.96728515625;0.10107421875;-0.4697265625;-13.875;10.125;-4.625;
1441975193291079;-0.8387451171875;0.10369873046875;-0.52679443359375;-0.0914306640625;2.5504983329826207;17.705992685000023;8.480781962270528;0.962890625;0.0791015625;-0.4521484375;-17.625;9.25;-4.8125;
1441975193314081;-0.837890625;0.10382080078125;-0.527587890625;-0.0943603515625;2.5360390159828246;17.674410955387007;8.499782793358444;0.9375;0.0537109375;-0.431640625;-18.0625;7.5625;-6.1875;
1441975193330082;-0.837158203125;0.10321044921875;-0.5284423828125;-0.09661865234375;2.5222735435095975;17.644908635944923;8.522587480558608;0.91845703125;0.041015625;-0.41162109375;-14.5;6.5625;-7.875;
1441975193351083;-0.8365478515625;0.10186767578125;-0.5294189453125;-0.0982666015625;2.5086173831025644;17.61681948551434;8.5496434899812;0.92431640625;0.04052734375;-0.4150390625;-9.25;6.8125;-9.6875;
1441975193374084;-0.8360595703125;0.0997314453125;-0.53033447265625;-0.099365234375;2.496869237173162;17.588921516330785;8.582058379723494;0.935546875;0.0517578125;-0.41650390625;-3.8125;7.3125;-11.0625;
1441975193390085;-0.83575439453125;0.0970458984375;-0.53125;-0.0999755859375;2.486785604581048;17.562370197220368;8.617493720217102;0.955078125;0.0537109375;-0.4228515625;1.0625;6.75;-13.1875;
1441975193419087;-0.8355712890625;0.09368896484375;-0.531982421875;-0.100341796875;2.4797964812601365;17.53346517307441;8.659002779744167;0.970703125;0.04736328125;-0.42138671875;5.375;5.5;-15.5;
1441975193434088;-0.83563232421875;0.0899658203125;-0.53253173828125;-0.10076904296875;2.4766258978639115;17.501114516031805;8.705243831220297;0.97802734375;0.05029296875;-0.41064453125;8.0;3.9375;-18.0625;
1441975193459089;-0.83575439453125;0.0858154296875;-0.53289794921875;-0.10107421875;2.4762835101262906;17.467002753534643;8.755431676503264;0.96484375;0.05224609375;-0.39697265625;9.25;2.125;-20.5;
1441975193481090;-0.83612060546875;0.08123779296875;-0.53302001953125;-0.1014404296875;2.480636070228781;17.429343057913645;8.810673964205899;0.953125;0.04833984375;-0.37109375;10.6875;0.0625;-22.875;
1441975193494091;-0.83660888671875;0.07623291015625;-0.53289794921875;-0.10174560546875;2.4890449650762454;17.389684600393522;8.869860229373769;0.9296875;0.05908203125;-0.35693359375;12.125;-1.8125;-24.875;
1441975193511092;-0.83709716796875;0.07098388671875;-0.53277587890625;-0.10211181640625;2.4984235221901274;17.347903264203772;8.931930034201566;0.9033203125;0.0791015625;-0.34912109375;14.0;-3.0625;-25.875;
1441975193532093;-0.837646484375;0.065673828125;-0.5325927734375;-0.1024169921875;2.5095452895407626;17.306911652336325;8.993720284776153;0.888671875;0.099609375;-0.33642578125;15.125;-3.1875;-26.0;
1441975193554094;-0.83807373046875;0.0604248046875;-0.53253173828125;-0.1025390625;2.519258007528478;17.268576030214405;9.05336513150556;0.876953125;0.1201171875;-0.34912109375;15.8125;-2.3125;-25.375;
1441975193570095;-0.83837890625;0.0550537109375;-0.53265380859375;-0.102294921875;2.5269559872236034;17.23345145981908;9.111849301513745;0.873046875;0.119140625;-0.36279296875;16.6875;-0.8125;-24.875;
1441975193599097;-0.83843994140625;0.0494384765625;-0.53326416015625;-0.10113525390625;2.528457722858312;17.206050953561054;9.167513967806887;0.8740234375;0.119140625;-0.34228515625;18.375;-0.6875;-24.375;
1441975193614098;-0.83819580078125;0.0435791015625;-0.5345458984375;-0.0992431640625;2.5216559950385884;17.18361478368779;9.222407712986836;0.87646484375;0.12548828125;-0.33740234375;23.75;1.5625;-22.5625;
1441975193630099;-0.837646484375;0.03753662109375;-0.536376953125;-0.09686279296875;2.507813957831246;17.163661637677237;9.277679731086693;0.916015625;0.1484375;-0.34375;28.4375;5.1875;-19.6875;
1441975193655100;-0.8369140625;0.03125;-0.5384521484375;-0.093994140625;2.4906095033806186;17.146236837639243;9.333449117883891;0.9404296875;0.1767578125;-0.345703125;32.375;8.375;-17.375;
1441975193682102;-0.83599853515625;0.0250244140625;-0.5406494140625;-0.09112548828125;2.471331681938848;17.128100283654224;9.389628616274054;0.953125;0.19287109375;-0.3515625;35.375;10.4375;-15.9375;
1441975193690102;-0.8348388671875;0.0191650390625;-0.5430908203125;-0.08880615234375;2.4488104031875353;17.10470772836578;9.44725207146027;0.953125;0.18994140625;-0.34130859375;35.0625;11.375;-16.0;
1441975193714104;-0.83349609375;0.0137939453125;-0.54559326171875;-0.0865478515625;2.424123376431351;17.082830641268313;9.50102168028132;0.9326171875;0.189453125;-0.314453125;31.375;12.0;-15.75;
1441975193733105;-0.83203125;0.00872802734375;-0.54827880859375;-0.08416748046875;2.396448407406075;17.06306604974382;9.551911294584817;0.9326171875;0.17431640625;-0.3076171875;29.125;12.8125;-14.375;
1441975193750106;-0.83062744140625;0.00335693359375;-0.5509033203125;-0.0816650390625;2.3704344009412535;17.041944426239237;9.605890838060652;0.9296875;0.15087890625;-0.29931640625;28.1875;13.8125;-14.25;
1441975193772107;-0.82928466796875;-0.00238037109375;-0.55328369140625;-0.07904052734375;2.347967542800781;17.019507903222383;9.663125481759558;0.91357421875;0.14306640625;-0.2822265625;29.4375;13.0;-15.8125;
1441975193794108;-0.82794189453125;-0.00836181640625;-0.5555419921875;-0.07672119140625;2.3282821034826346;16.99126366040677;9.7258620035265;0.8994140625;0.13427734375;-0.27294921875;30.9375;12.0;-17.5625;
1441975193817109;-0.82659912109375;-0.0145263671875;-0.55767822265625;-0.07476806640625;2.311571309949776;16.956977108349243;9.793837375721656;0.89501953125;0.14111328125;-0.2666015625;30.375;11.5;-19.625;
1441975193839111;-0.8253173828125;-0.020751953125;-0.55963134765625;-0.07305908203125;2.2983300119903314;16.919472860345927;9.864233650123127;0.88916015625;0.14208984375;-0.2578125;29.125;10.8125;-21.8125;
1441975193862112;-0.82403564453125;-0.0272216796875;-0.56146240234375;-0.07147216796875;2.287949920002074;16.878543567126638;9.938525487539053;0.89501953125;0.142578125;-0.263671875;28.5;10.375;-23.25;
1441975193877113;-0.82275390625;-0.0335693359375;-0.56317138671875;-0.070068359375;2.2796664293681093;16.83636000360597;10.012783615784478;0.921875;0.1669921875;-0.27880859375;28.5625;10.3125;-23.625;
1441975193900114;-0.8214111328125;-0.03973388671875;-0.5648193359375;-0.06884765625;2.2724196087729127;16.79301490354884;10.08666953833463;0.9453125;0.18994140625;-0.29052734375;27.875;10.125;-23.0;
1441975193924116;-0.82000732421875;-0.04571533203125;-0.5665283203125;-0.0679931640625;2.2657380095698936;16.745944988450287;10.162004299780733;0.953125;0.20458984375;-0.28125;26.6875;9.5;-21.9375;
1441975193944117;-0.8184814453125;-0.051513671875;-0.5682373046875;-0.0677490234375;2.2607776119363625;16.692372030251335;10.240550588347032;0.966796875;0.21923828125;-0.275390625;24.625;9.0625;-21.9375;
1441975193952117;-0.81707763671875;-0.0565185546875;-0.56976318359375;-0.0682373046875;2.2589750180660175;16.63737787610864;10.314208569396945;0.97119140625;0.2412109375;-0.26611328125;21.5;9.0625;-22.0;
1441975193976119;-0.81561279296875;-0.0604248046875;-0.57122802734375;-0.0697021484375;2.2579782441526812;16.57914353653204;10.38252872567842;0.97900390625;0.25;-0.28125;15.8125;8.0625;-20.875;
1441975193990119;-0.81427001953125;-0.06353759765625;-0.5726318359375;-0.07177734375;2.2584973711936724;16.52056087177059;10.445399436155665;0.97802734375;0.25;-0.27783203125;7.125;7.625;-19.3125;
1441975194013121;-0.81298828125;-0.0662841796875;-0.5738525390625;-0.07403564453125;2.2611277960787803;16.463812292249195;10.504163729994803;0.962890625;0.24462890625;-0.2763671875;1.125;6.8125;-18.125;
1441975194033122;-0.8118896484375;-0.06866455078125;-0.57476806640625;-0.07635498046875;2.26688220414234;16.41164961417019;10.556574364867249;0.9521484375;0.234375;-0.27880859375;-0.6875;5.875;-18.0;
1441975194059123;-0.81072998046875;-0.0709228515625;-0.5758056640625;-0.0787353515625;2.2717823551118057;16.35890255548467;10.608814210958645;0.93505859375;0.22021484375;-0.29150390625;-3.1875;5.4375;-18.0;
1441975194073124;-0.80963134765625;-0.07318115234375;-0.57684326171875;-0.08056640625;2.2753257748481612;16.312579220397144;10.656901657601082;0.9248046875;0.22216796875;-0.287109375;-3.625;6.3125;-17.5625;
1441975194094125;-0.80859375;-0.0758056640625;-0.5777587890625;-0.08203125;2.2807722095574987;16.26898730280649;10.705283498343004;0.9189453125;0.20263671875;-0.2998046875;-1.875;7.3125;-17.5;
1441975194127127;-0.8076171875;-0.078857421875;-0.57855224609375;-0.0831298828125;2.2883559526683865;16.22783452096729;10.754505790487846;0.90869140625;0.2109375;-0.31103515625;1.0;7.75;-17.25;
1441975194132127;-0.80657958984375;-0.08258056640625;-0.57940673828125;-0.0836181640625;2.295992050288188;16.188402820585008;10.807307818530031;0.892578125;0.2333984375;-0.30517578125;4.4375;8.0625;-17.0625;
1441975194162129;-0.8056640625;-0.0863037109375;-0.58013916015625;-0.083984375;2.305152845113302;16.152018597815854;10.857570645032121;0.88037109375;0.251953125;-0.30712890625;10.0;8.9375;-16.625;
1441975194170130;-0.8048095703125;-0.08978271484375;-0.58062744140625;-0.08477783203125;2.317914801414474;16.11503455340558;10.905663422199742;0.8642578125;0.26513671875;-0.3203125;10.375;9.875;-15.8125;
1441975194194131;-0.80413818359375;-0.09295654296875;-0.5809326171875;-0.085693359375;2.332523438922782;16.081363532131835;10.948681571055026;0.8232421875;0.2880859375;-0.30859375;8.25;8.0625;-13.875;
1441975194214132;-0.80328369140625;-0.0963134765625;-0.581298828125;-0.087158203125;2.3499340199840137;16.040246861413685;10.99763826829547;0.8291015625;0.2919921875;-0.3212890625;6.6875;7.5625;-13.5;
1441975194231133;-0.8023681640625;-0.09979248046875;-0.581787109375;-0.088623046875;2.367318431946959;15.997955382219487;11.048278412974065;0.84912109375;0.32470703125;-0.33251953125;4.6875;8.375;-14.6875;
1441975194252134;-0.80157470703125;-0.10369873046875;-0.58209228515625;-0.08917236328125;2.3846308658214466;15.964698543250389;11.095450969617135;0.86962890625;0.3603515625;-0.32861328125;6.125;8.5625;-13.75;
1441975194275136;-0.801025390625;-0.10833740234375;-0.5821533203125;-0.08843994140625;2.4022931468196673;15.943348792632818;11.139067304183323;0.88232421875;0.3857421875;-0.34228515625;12.0625;8.5625;-11.6875;
1441975194290137;-0.80059814453125;-0.1134033203125;-0.58203125;-0.08709716796875;2.4210847490704395;15.927926845330557;11.181071970958959;0.86767578125;0.390625;-0.34521484375;20.1875;8.3125;-10.5;
1441975194313138;-0.79986572265625;-0.1181640625;-0.58221435546875;-0.0858154296875;2.435221440897104;15.909901923179639;11.224178714931886;0.84033203125;0.392578125;-0.33740234375;24.9375;7.5625;-9.75;
1441975194333139;-0.79888916015625;-0.12261962890625;-0.582763671875;-0.08489990234375;2.446247337021239;15.886378107575533;11.270003032959371;0.833984375;0.38232421875;-0.3203125;23.5;9.0625;-9.5625;
1441975194350140;-0.79779052734375;-0.12713623046875;-0.58343505859375;-0.08428955078125;2.4582520080884076;15.858551007332203;11.319127927979842;0.83935546875;0.3818359375;-0.32470703125;20.0;10.9375;-9.75;
1441975194372141;-0.79644775390625;-0.132080078125;-0.58428955078125;-0.08319091796875;2.4679800226169437;15.83053139323539;11.372256840873396;0.81982421875;0.38818359375;-0.3173828125;18.9375;12.3125;-10.5;
1441975194393142;-0.795166015625;-0.1376953125;-0.58502197265625;-0.0814208984375;2.479153193519672;15.806871829177616;11.426610964636792;0.796875;0.37109375;-0.2890625;22.1875;13.0;-12.0;
1441975194410143;-0.79351806640625;-0.14385986328125;-0.5860595703125;-0.07928466796875;2.488169436348965;15.779684487700433;11.488309677374364;0.7705078125;0.35302734375;-0.298828125;27.25;14.1875;-13.5;
1441975194434145;-0.79156494140625;-0.150390625;-0.58740234375;-0.07635498046875;2.491822791997085;15.753660249300573;11.55366112197235;0.7529296875;0.34912109375;-0.27587890625;30.375;16.5;-14.875;
1441975194455146;-0.789306640625;-0.15728759765625;-0.58917236328125;-0.0723876953125;2.4878003075321056;15.729629335897519;11.622807615226927;0.751953125;0.353515625;-0.27978515625;34.9375;19.8125;-14.1875;
1441975194479147;-0.78662109375;-0.16424560546875;-0.5914306640625;-0.0675048828125;2.4742048549990674;15.706059583432033;11.695504184299068;0.806640625;0.40966796875;-0.3056640625;40.625;24.8125;-10.0625;
1441975194493148;-0.78363037109375;-0.17095947265625;-0.59405517578125;-0.06195068359375;2.4519788135271234;15.683382260315778;11.76902562487009;0.89111328125;0.47705078125;-0.3525390625;45.0;30.625;-4.875;
1441975194523150;-0.78057861328125;-0.17724609375;-0.59686279296875;-0.0560302734375;2.4239153516756757;15.662558257816649;11.840353131236554;0.90087890625;0.486328125;-0.33447265625;46.9375;33.0625;-0.9375;
1441975194537151;-0.77734375;-0.1826171875;-0.5999755859375;-0.05023193359375;2.3889112155976657;15.639395269159554;11.909633988928096;0.86474609375;0.435546875;-0.2890625;46.5625;32.5;-0.375;
1441975194553152;-0.77392578125;-0.1868896484375;-0.60357666015625;-0.04449462890625;2.344292856175301;15.613147784967833;11.977033251734964;0.833984375;0.38818359375;-0.259765625;42.4375;33.125;1.1875;
1441975194575153;-0.7705078125;-0.19049072265625;-0.607177734375;-0.03863525390625;2.295160073285831;15.588640814279858;12.040363072288446;0.84033203125;0.35546875;-0.2451171875;37.0;34.6875;3.5;
1441975194591154;-0.76727294921875;-0.19378662109375;-0.610595703125;-0.03253173828125;2.2445468277221647;15.568471584230585;12.099036581955648;0.861328125;0.337890625;-0.25439453125;34.8125;35.625;6.0;
1441975194612155;-0.7642822265625;-0.1962890625;-0.61376953125;-0.02667236328125;2.193012673834199;15.551934955998549;12.149757522993042;0.861328125;0.34716796875;-0.24853515625;35.0;34.625;8.9375;
1441975194635156;-0.76177978515625;-0.197509765625;-0.61669921875;-0.0213623046875;2.1400434948048295;15.541032201867631;12.187169347475436;0.8857421875;0.35498046875;-0.24755859375;31.75;32.1875;12.3125;
1441975194656157;-0.75970458984375;-0.1981201171875;-0.61920166015625;-0.0157470703125;2.084865803381833;15.541880945749007;12.211535749196521;0.8828125;0.296875;-0.2275390625;24.4375;27.9375;13.1875;
1441975194672158;-0.75787353515625;-0.19879150390625;-0.62139892578125;-0.00970458984375;2.0296259396192435;15.550677206458255;12.229934778670186;0.89306640625;0.2275390625;-0.18994140625;23.75;22.4375;13.4375;
1441975194703160;-0.75579833984375;-0.1990966796875;-0.6239013671875;-0.00445556640625;1.974964550317383;15.548613948342478;12.254386998871803;0.95068359375;0.24462890625;-0.236328125;25.3125;23.25;15.25;
1441975194717161;-0.7535400390625;-0.1986083984375;-0.62677001953125;-7.9345703125E-4;1.9235164175275812;15.53009292974774;12.285470941073125;0.94921875;0.2490234375;-0.28125;19.875;28.0625;14.625;
1441975194732162;-0.7513427734375;-0.19677734375;-0.6300048828125;6.103515625E-4;1.8772597877549453;15.493541900238869;12.319680990706871;0.95166015625;0.22216796875;-0.27783203125;9.1875;28.9375;10.5;
1441975194755163;-0.74951171875;-0.19293212890625;-0.63330078125;0.0;1.8327387415232714;15.450250120876033;12.344022063743951;0.96875;0.220703125;-0.27783203125;-5.8125;27.6875;8.4375;
1441975194777164;-0.74798583984375;-0.18865966796875;-0.63641357421875;-0.0013427734375;1.7925871237080493;15.406386505977718;12.364177418591348;0.99609375;0.1630859375;-0.25537109375;-22.3125;23.3125;6.0625;
1441975194792165;-0.7464599609375;-0.18572998046875;-0.63909912109375;-0.00225830078125;1.7609385108469329;15.363695614522797;12.390610025213876;0.9560546875;0.0517578125;-0.197265625;-27.4375;17.6875;-1.0625;
1441975194816167;-0.74493408203125;-0.18505859375;-0.64105224609375;-0.00250244140625;1.7439241704739226;15.324185296894694;12.426170625149444;0.9033203125;-0.03662109375;-0.1357421875;-20.4375;13.4375;-10.125;
1441975194837168;-0.74359130859375;-0.1868896484375;-0.64202880859375;-0.0025634765625;1.7485027491547842;15.28862144516833;12.469123538922112;0.87841796875;-0.08154296875;-0.109375;-8.6875;10.0;-20.0;
1441975194852169;-0.74249267578125;-0.1904296875;-0.64227294921875;-0.002197265625;1.7663579346709568;15.261391419653533;12.51269084313494;0.83984375;-0.06298828125;-0.1162109375;2.75;6.3125;-28.0;
1441975194874170;-0.741455078125;-0.1947021484375;-0.6422119140625;-0.00177001953125;1.7907434949101995;15.236869925816332;12.55691800541225;0.8916015625;-0.048828125;-0.134765625;11.3125;3.625;-33.75;
1441975194905172;-0.74066162109375;-0.19866943359375;-0.641845703125;-0.00201416015625;1.820175804633884;15.215561330469697;12.59401354563056;1.00830078125;4.8828125E-4;-0.16162109375;14.625;2.5;-35.375;
1441975194912172;-0.74029541015625;-0.201904296875;-0.641357421875;-0.00286865234375;1.8506602967862908;15.199268394156979;12.620473348245188;1.11181640625;0.017578125;-0.16943359375;11.0;-1.1875;-38.0625;
1441975194934173;-0.739990234375;-0.20428466796875;-0.64093017578125;-0.0042724609375;1.8791363590079146;15.182404404620693;12.641735202618388;1.138671875;-0.01220703125;-0.13427734375;6.0;-6.875;-39.0625;
1441975194957175;-0.73980712890625;-0.20513916015625;-0.64080810546875;-0.006103515625;1.8989279184570287;15.165683176242434;12.65466625872794;1.11962890625;-0.00537109375;-0.09765625;1.625;-9.8125;-37.1875;
1441975194972176;-0.73968505859375;-0.20343017578125;-0.6414794921875;-0.00860595703125;1.9020656299117147;15.144024730842705;12.658880439298374;1.10546875;0.02880859375;-0.1123046875;-6.5625;-8.5;-29.9375;
1441975194994177;-0.739501953125;-0.19940185546875;-0.64288330078125;-0.0115966796875;1.8888994647345811;15.117009534460152;12.656650796653;1.09716796875;0.04443359375;-0.1337890625;-19.75;-4.5625;-20.25;
1441975195025179;-0.73944091796875;-0.19390869140625;-0.6446533203125;-0.0146484375;1.8643147822025679;15.091049145364192;12.646906338779036;1.06640625;0.00927734375;-0.12548828125;-31.4375;-1.9375;-14.1875;
1441975195032179;-0.73992919921875;-0.18780517578125;-0.64581298828125;-0.01702880859375;1.8342591907142956;15.085161454533509;12.617398939210721;1.07177734375;-0.021484375;-0.10888671875;-37.625;-1.8125;-9.625;
1441975195056180;-0.7406005859375;-0.18170166015625;-0.646728515625;-0.01873779296875;1.8007209669263913;15.089738131682946;12.580221757255293;1.07568359375;-0.05712890625;-0.11962890625;-36.875;-4.625;-6.375;
1441975195078182;-0.74114990234375;-0.17620849609375;-0.64764404296875;-0.01934814453125;1.763188915376735;15.099949462953113;12.544459181672517;1.02587890625;-0.0947265625;-0.1318359375;-34.0625;-4.375;-5.0;
1441975195092182;-0.74163818359375;-0.1712646484375;-0.64837646484375;-0.0194091796875;1.7263221748665138;15.114935481327887;12.508533420413698;0.97021484375;-0.08251953125;-0.1123046875;-27.0;-2.875;-1.5;
1441975195116184;-0.74237060546875;-0.16558837890625;-0.64892578125;-0.02020263671875;1.691217856615254;15.13329881727109;12.463257512235925;0.921875;-0.0419921875;-0.11669921875;-21.75;-1.75;2.5625;
1441975195137185;-0.74383544921875;-0.15716552734375;-0.6492919921875;-0.0225830078125;1.6512975296506063;15.163060829969577;12.38873048710773;0.85595703125;-0.03173828125;-0.13330078125;-27.5625;-2.375;5.125;
1441975195152186;-0.7464599609375;-0.145263671875;-0.6490478515625;-0.02313232421875;1.5812716653203427;15.252487633699582;12.247676301835423;0.8720703125;0.00830078125;-0.08203125;-42.8125;-11.5625;14.3125;
1441975195174187;-0.7486572265625;-0.13299560546875;-0.649169921875;-0.0216064453125;1.4938597481301061;15.365881745678621;12.089730452473406;0.99169921875;-0.1611328125;-0.08984375;-49.4375;-17.8125;24.6875;
1441975195197188;-0.74981689453125;-0.12298583984375;-0.64996337890625;-0.0167236328125;1.3948452314201358;15.494772253844214;11.939347364183572;1.091796875;-0.22802734375;-0.05615234375;-41.9375;-16.5;28.5625;
1441975195212189;-0.75054931640625;-0.11505126953125;-0.6507568359375;-0.009765625;1.2975593049732372;15.646975227200707;11.782703193256486;1.20751953125;-0.17041015625;-0.087890625;-20.0;-5.5625;34.75;
1441975195234191;-0.75146484375;-0.107666015625;-0.6510009765625;-0.00299072265625;1.2132442164722157;15.825218157176243;11.601626688396887;1.28076171875;-0.12255859375;-0.18359375;-3.375;3.375;37.375;
1441975195257192;-0.7528076171875;-0.09918212890625;-0.6507568359375;0.00335693359375;1.1361377249283686;16.049021837349912;11.36881695304589;1.25634765625;-0.0576171875;-0.236328125;-1.75;4.625;40.6875;
1441975195272193;-0.7540283203125;-0.08935546875;-0.6507568359375;0.009033203125;1.0615607937098412;16.306568463215356;11.094066828325177;1.21728515625;-0.0283203125;-0.24853515625;-6.6875;1.75;48.25;
1441975195294194;-0.7548828125;-0.078857421875;-0.6510009765625;0.01373291015625;0.99469121820116;16.584201000305246;10.79260006372704;1.244140625;-0.02099609375;-0.23583984375;-14.125;1.625;53.6875;
1441975195317195;-0.755615234375;-0.0682373046875;-0.6512451171875;0.0181884765625;0.938923855370119;16.89480707586747;10.456728697402358;1.23779296875;-0.01220703125;-0.22119140625;-20.5;2.9375;55.5;
1441975195332196;-0.75640869140625;-0.05853271484375;-0.65118408203125;0.02239990234375;0.9023637408834023;17.216944665977387;10.112127607088524;1.212890625;-0.03515625;-0.1982421875;-21.9375;1.9375;54.9375;
1441975195354197;-0.757080078125;-0.050048828125;-0.65093994140625;0.02630615234375;0.8821232446998232;17.5247505488216;9.785652514379656;1.1884765625;-0.041015625;-0.1826171875;-18.75;-0.6875;51.5;
1441975195378199;-0.7579345703125;-0.04241943359375;-0.650390625;0.02874755859375;0.8792447645039345;17.782391076781774;9.506895999875448;1.203125;-0.03564453125;-0.16552734375;-15.5;-2.625;46.9375;
1441975195394200;-0.759033203125;-0.0350341796875;-0.64947509765625;0.02935791015625;0.8897999892385638;17.9825832419156;9.279170836512312;1.21630859375;-0.02197265625;-0.17236328125;-18.25;-4.6875;40.0625;
1441975195416201;-0.760498046875;-0.0274658203125;-0.648193359375;0.0284423828125;0.9109469961374144;0.1385488043018222;9.08872764304046;1.17333984375;-0.015625;-0.17138671875;-25.125;-7.6875;33.625;
1441975195455203;-0.76177978515625;-0.02099609375;-0.64697265625;0.02716064453125;0.9326056182490795;0.25156853352192377;8.94421489804322;1.11669921875;-0.06884765625;-0.1533203125;-32.75;-11.75;25.875;
1441975195461203;-0.762939453125;-0.0164794921875;-0.64581298828125;0.0260009765625;0.9532405852160353;0.318735024043628;8.853986184284514;1.10595703125;-0.1103515625;-0.14501953125;-30.6875;-11.8125;17.1875;
1441975195474204;-0.7640380859375;-0.01361083984375;-0.6446533203125;0.02386474609375;0.972041153156028;0.3216474591189652;8.830741245253417;1.1435546875;-0.1123046875;-0.18505859375;-22.875;-9.125;9.5625;
1441975195497206;-0.76531982421875;-0.01165771484375;-0.643310546875;0.019287109375;0.9917560231493533;0.24182956836791755;8.884017689373604;1.15673828125;-0.08251953125;-0.20361328125;-20.75;-8.375;0.75;
1441975195513206;-0.76702880859375;-0.00909423828125;-0.6414794921875;0.0111083984375;1.0187613584922406;0.08704290792628715;8.995132429554863;1.1494140625;0.0078125;-0.1962890625;-27.125;-11.0625;-6.625;
1441975195534208;-0.7696533203125;-0.00482177734375;-0.6385498046875;-0.00103759765625;1.0648313973346748;17.87974824095246;9.135648472722401;1.14111328125;0.05810546875;-0.19775390625;-44.625;-15.1875;-14.0625;
1441975195558209;-0.77294921875;0.00146484375;-0.63427734375;-0.01654052734375;1.1320789478013424;17.653120636953375;9.273573791009014;1.0947265625;0.0576171875;-0.22119140625;-68.5625;-21.875;-22.0625;
1441975195574210;-0.77691650390625;0.00958251953125;-0.628662109375;-0.0341796875;1.2199614514081212;17.439822544462967;9.381846623038662;1.0615234375;0.04052734375;-0.23779296875;-91.125;-29.5;-27.75;
1441975195594211;-0.78143310546875;0.01910400390625;-0.62164306640625;-0.0518798828125;1.3245699841502918;17.275607323579205;9.43477101417925;1.05810546875;0.06396484375;-0.240234375;-107.0625;-39.375;-28.625;
1441975195616212;-0.78619384765625;0.029052734375;-0.6136474609375;-0.06817626953125;1.437260041728568;17.16257120047743;9.440106691601498;1.083984375;0.08740234375;-0.26171875;-112.8125;-48.3125;-22.5625;
1441975195633213;-0.79119873046875;0.03790283203125;-0.60479736328125;-0.08282470703125;1.558366505762025;17.07538184737248;9.430346649534906;1.14501953125;0.09326171875;-0.30419921875;-107.6875;-53.625;-16.3125;
1441975195661215;-0.79644775390625;0.04473876953125;-0.595458984375;-0.0958251953125;1.6863748271609071;16.998612714392404;9.424731541035955;1.14453125;0.087890625;-0.30419921875;-97.125;-58.4375;-16.875;
1441975195677216;-0.8021240234375;0.0498046875;-0.58551025390625;-0.10687255859375;1.822638340132577;16.9399291871262;9.415874680493511;1.06982421875;0.080078125;-0.2451171875;-82.3125;-65.25;-21.875;
1441975195693217;-0.80816650390625;0.05438232421875;-0.57489013671875;-0.11627197265625;1.9651062734850826;16.90536287485279;9.391224319645259;1.02734375;0.08056640625;-0.2236328125;-67.125;-70.875;-24.0;
1441975195716218;-0.81414794921875;0.0587158203125;-0.5643310546875;-0.123779296875;2.1034689984307446;16.893023032787912;9.352830796638802;0.95166015625;0.0830078125;-0.24658203125;-58.3125;-73.625;-21.4375;
1441975195737219;-0.82012939453125;0.0625;-0.55413818359375;-0.12860107421875;2.2348410748724614;16.906381064385265;9.301959560310316;0.8857421875;0.09912109375;-0.24462890625;-48.5625;-73.75;-15.5;
1441975195753220;-0.825927734375;0.06585693359375;-0.5443115234375;-0.13140869140625;2.3594898367027284;16.935216884390048;9.24555680749054;0.86328125;0.1376953125;-0.2548828125;-32.9375;-73.0;-7.0;
1441975195776222;-0.83160400390625;0.0689697265625;-0.53485107421875;-0.13287353515625;2.478900251613664;16.972236826498587;9.187505755167825;0.87890625;0.19775390625;-0.26953125;-20.625;-71.6875;1.5;
1441975195797223;-0.83642578125;0.07293701171875;-0.52655029296875;-0.134033203125;2.580784121991333;17.010595736758102;9.125954610302303;0.8759765625;0.26806640625;-0.26904296875;-11.5;-71.375;9.1875;
1441975195813224;-0.84027099609375;0.078369140625;-0.51934814453125;-0.134765625;2.6640617075449797;17.0561918044216;9.052886482843297;0.90234375;0.34765625;-0.2734375;-10.3125;-65.5;19.9375;
1441975195834225;-0.84332275390625;0.08489990234375;-0.513427734375;-0.134521484375;2.7287322221561157;17.112962639449524;8.968371689371914;0.94287109375;0.4111328125;-0.28759765625;-10.625;-60.0625;33.0;
1441975195856226;-0.8455810546875;0.0926513671875;-0.50830078125;-0.13458251953125;2.7810890281766896;17.169280892910468;8.877953876214606;0.98046875;0.4580078125;-0.31298828125;-7.6875;-53.25;45.1875;
1441975195873227;-0.8472900390625;0.10150146484375;-0.50347900390625;-0.1358642578125;2.8281370701075144;17.216290353073028;8.787047542944167;0.9833984375;0.48681640625;-0.32421875;-11.4375;-48.0625;53.5625;
1441975195896228;-0.8482666015625;0.11181640625;-0.498779296875;-0.13873291015625;2.8700164785295588;17.25296903201748;8.693375192265524;0.9326171875;0.4912109375;-0.28955078125;-20.125;-46.25;56.75;
1441975195917230;-0.848388671875;0.1240234375;-0.4942626953125;-0.14385986328125;2.904738384600698;17.27552672709123;8.59613495000937;0.912109375;0.45361328125;-0.29345703125;-33.75;-43.3125;57.875;
1441975195940231;-0.84814453125;0.13702392578125;-0.4896240234375;-0.1490478515625;2.9386705917063836;17.300434001379262;8.492518433608447;0.865234375;0.3916015625;-0.26416015625;-51.8125;-40.9375;57.6875;
1441975195954232;-0.847900390625;0.14990234375;-0.4849853515625;-0.1534423828125;2.973815687882506;17.33099267698978;8.386879824971686;0.83251953125;0.3056640625;-0.259765625;-57.5;-40.625;56.8125;
1441975195977233;-0.84771728515625;0.16119384765625;-0.48052978515625;-0.1566162109375;3.009918787704513;17.36290305477282;8.291477508537705;0.84326171875;0.205078125;-0.26953125;-56.3125;-41.75;52.4375;
1441975195993234;-0.84832763671875;0.16973876953125;-0.475830078125;-0.1588134765625;3.0555055811738963;17.38725421805616;8.219254788365685;0.85546875;0.09765625;-0.240234375;-49.1875;-43.0625;41.75;
1441975196014235;-0.84930419921875;0.17657470703125;-0.4708251953125;-0.16094970703125;3.1071866406761965;17.401108221834882;8.164704494455446;0.8359375;0.09228515625;-0.2294921875;-36.75;-45.5625;29.9375;
1441975196037236;-0.85028076171875;0.1827392578125;-0.4656982421875;-0.16387939453125;3.159684793113397;17.402570356644652;8.121817716626555;0.8154296875;0.1123046875;-0.28271484375;-31.0;-42.8125;22.75;
1441975196054237;-0.85137939453125;0.18804931640625;-0.46063232421875;-0.16644287109375;3.212775502550552;17.402262453261823;8.085766484572224;0.80712890625;0.10546875;-0.28271484375;-33.3125;-42.4375;16.5;
1441975196074239;-0.8525390625;0.19232177734375;-0.4560546875;-0.16827392578125;3.262262394684391;17.403241570302317;8.056152345634498;0.78759765625;0.05224609375;-0.3017578125;-31.25;-40.75;10.25;
1441975196096240;-0.853271484375;0.196044921875;-0.4525146484375;-0.16961669921875;3.299660976827103;17.40645083865701;8.029155644227401;0.7802734375;0.03515625;-0.32177734375;-25.625;-37.5625;6.4375;
1441975196113241;-0.853515625;0.19952392578125;-0.4501953125;-0.1705322265625;3.322750825515425;17.413249603616862;8.00210001271122;0.81298828125;0.05078125;-0.349609375;-20.125;-31.375;6.8125;
1441975196134242;-0.8531494140625;0.20330810546875;-0.448974609375;-0.17108154296875;3.332042332796836;17.425883403714916;7.9700044370588055;0.85498046875;0.076171875;-0.3984375;-16.0625;-23.125;10.0;
1441975196156243;-0.85198974609375;0.2080078125;-0.44854736328125;-0.1722412109375;3.3284323666721765;17.438422365932713;7.931799400065426;0.89306640625;0.076171875;-0.4560546875;-14.75;-15.25;14.1875;
1441975196173244;-0.84979248046875;0.21435546875;-0.448974609375;-0.17425537109375;3.309742179104729;17.45276014395624;7.881441678822343;0.90283203125;0.10107421875;-0.486328125;-19.125;-7.8125;19.875;
1441975196202246;-0.8463134765625;0.22265625;-0.45050048828125;-0.177001953125;3.2726156674729534;17.472555027740523;7.8145953067744225;0.89404296875;0.11474609375;-0.4931640625;-27.25;-0.9375;29.125;
1441975196224247;-0.8414306640625;0.23236083984375;-0.45330810546875;-0.180419921875;3.2148838959182338;17.496968705395055;7.734730669248933;0.9091796875;0.0966796875;-0.48193359375;-36.0625;6.0625;38.5625;
1441975196233248;-0.835205078125;0.24298095703125;-0.45782470703125;-0.18389892578125;3.1339807148751753;17.53139087010284;7.641600677095262;0.94970703125;0.1025390625;-0.45849609375;-42.1875;13.0;47.375;
1441975196254249;-0.82830810546875;0.25421142578125;-0.46246337890625;-0.188232421875;3.047987369800063;17.56514059485615;7.542817494698537;0.97998046875;0.0947265625;-0.453125;-43.8125;23.125;55.0625;
1441975196301252;-0.8214111328125;0.26611328125;-0.46551513671875;-0.1947021484375;2.97432003312999;17.582234099399585;7.447651009727824;0.88916015625;0.03173828125;-0.4169921875;-52.0;28.5;54.0625;
1441975196303252;-0.814453125;0.27978515625;-0.46630859375;-0.202392578125;2.9213356161305994;17.59514221778589;7.341836025283218;0.65869140625;-0.0595703125;-0.26171875;-68.8125;22.375;45.8125;
1441975196317252;-0.806396484375;0.29705810546875;-0.4664306640625;-0.209716796875;2.8741056813311223;17.634922026497975;7.194085305790235;0.57861328125;-0.02001953125;-0.16015625;-80.625;9.125;51.5;
1441975196337254;-0.79669189453125;0.31646728515625;-0.4671630859375;-0.216796875;2.817739529220617;17.697604058572814;7.014739483839975;0.7568359375;0.01708984375;-0.220703125;-89.5625;1.875;72.0;
1441975196352254;-0.78582763671875;0.33599853515625;-0.468505859375;-0.2239990234375;2.7529425693473026;17.769111202087522;6.8250500735810595;1.01171875;0.05517578125;-0.3046875;-94.125;3.5625;88.375;
1441975196374256;-0.77471923828125;0.35565185546875;-0.46875;-0.231689453125;2.6997620360936474;17.838594237485513;6.633077839157738;1.1943359375;0.1279296875;-0.375;-92.8125;8.8125;96.4375;
1441975196397257;-0.7642822265625;0.37762451171875;-0.46490478515625;-0.23907470703125;2.6978179231806587;17.909542633382888;6.426105386310182;1.23876953125;0.1640625;-0.39453125;-96.25;5.4375;97.875;
1441975196412258;-0.75299072265625;0.40191650390625;-0.45709228515625;-0.2501220703125;2.720136609134083;17.942006469445655;6.226246563610564;1.19287109375;0.158203125;-0.38427734375;-112.5;-6.3125;95.9375;
1441975196435259;-0.74072265625;0.427734375;-0.44561767578125;-0.26434326171875;2.759730030943587;17.935697356208472;6.038493977350964;1.07421875;0.07568359375;-0.369140625;-144.9375;-16.5;91.9375;
1441975196457260;-0.7279052734375;0.452880859375;-0.43243408203125;-0.279541015625;2.803500731789768;17.906879196119984;5.867053385089014;0.927734375;-0.0615234375;-0.34130859375;-173.625;-23.6875;84.8125;
1441975196472261;-0.7154541015625;0.47601318359375;-0.41925048828125;-0.29302978515625;2.850293333907858;17.87894273896303;5.708322223403832;0.82080078125;-0.1845703125;-0.3251953125;-182.25;-26.0625;76.4375;
1441975196511264;-0.7039794921875;0.49664306640625;-0.4068603515625;-0.3038330078125;2.9007533933916214;17.860206707917875;5.5621245749538994;0.7705078125;-0.2314453125;-0.3427734375;-169.75;-27.4375;70.5;
1441975196517264;-0.693603515625;0.51507568359375;-0.3953857421875;-0.31195068359375;2.95633685321088;17.852265305566984;5.426271104766039;0.75;-0.189453125;-0.35693359375;-148.375;-29.4375;66.0625;
1441975196540265;-0.68377685546875;0.53179931640625;-0.384521484375;-0.31903076171875;3.0097238647722637;17.84387656826137;5.302619489911043;0.73876953125;-0.09375;-0.37890625;-127.6875;-31.5625;63.1875;
1441975196562266;-0.6744384765625;0.5472412109375;-0.37322998046875;-0.326171875;3.063782035161645;17.822971022988153;5.195322932151047;0.72900390625;0.00732421875;-0.439453125;-116.0;-30.0625;59.625;
1441975196577267;-0.66534423828125;0.56146240234375;-0.362060546875;-0.33319091796875;3.1139029826560183;17.795927286996182;5.099172043335026;0.65966796875;0.0390625;-0.47265625;-113.1875;-28.75;52.625;
1441975196592268;-0.65618896484375;0.574462890625;-0.352294921875;-0.339599609375;3.1516216295738304;17.775509368607118;5.005659584240123;0.611328125;0.03271484375;-0.48388671875;-109.875;-26.5625;47.9375;
1441975196615269;-0.6475830078125;0.58624267578125;-0.3436279296875;-0.34478759765625;3.1863170750131156;17.762802187719423;4.916518291718708;0.61279296875;0.04248046875;-0.51708984375;-100.4375;-20.5625;47.0625;
1441975196644271;-0.6392822265625;0.59649658203125;-0.33636474609375;-0.34991455078125;3.206469633340441;17.750892504854555;4.836251638230617;0.625;0.06787109375;-0.54150390625;-87.625;-11.8125;47.125;
1441975196652272;-0.63092041015625;0.6058349609375;-0.32952880859375;-0.35546875;3.216843656812079;17.734547982495567;4.762904406311141;0.62744140625;0.09912109375;-0.5537109375;-78.25;-4.0625;45.375;
1441975196676273;-0.6217041015625;0.61474609375;-0.3226318359375;-0.36260986328125;3.211486621719815;17.707426753324267;4.694132825353584;0.64892578125;0.13427734375;-0.55517578125;-75.6875;0.3125;44.0625;
1441975196696274;-0.61041259765625;0.623046875;-0.31756591796875;-0.37213134765625;3.16466326729652;17.67946187672714;4.62041435545122;0.77001953125;0.23291015625;-0.560546875;-78.6875;4.0;47.25;
1441975196719275;-0.59716796875;0.6312255859375;-0.3134765625;-0.383056640625;3.0914020769634774;17.654856212065724;4.536961934890664;1.14208984375;0.44970703125;-0.70068359375;-76.75;19.6875;63.8125;
1441975196736276;-0.58453369140625;0.6405029296875;-0.3070068359375;-0.3922119140625;3.053359847202723;17.63107824449091;4.449319098351167;1.60595703125;0.521484375;-0.91796875;-80.5625;29.625;72.5;
1441975196756278;-0.5751953125;0.64788818359375;-0.3038330078125;-0.39642333984375;3.032921775665642;17.645442298653084;4.363390164669466;1.267578125;0.23779296875;-0.57470703125;-93.3125;2.9375;55.375;
1441975196787279;-0.56805419921875;0.65283203125;-0.30389404296875;-0.3985595703125;3.0051547299940617;17.6788615451851;4.28812444944482;0.93017578125;-0.029296875;-0.22900390625;-61.5;-14.0;38.875;
1441975196810281;-0.56195068359375;0.65643310546875;-0.30340576171875;-0.40167236328125;2.97425674671018;17.69275697507436;4.234995666829289;0.99560546875;-0.0166015625;-0.3291015625;-33.625;-5.8125;34.4375;
1441975196816281;-0.5572509765625;0.6590576171875;-0.303955078125;-0.4034423828125;2.9482364134891443;17.714375417074592;4.188263345262532;1.029296875;0.16064453125;-0.40771484375;-27.75;1.875;34.0625;
1441975196840282;-0.5545654296875;0.6607666015625;-0.30413818359375;-0.40423583984375;2.9368201105647915;17.728437749872935;4.1594598887773975;1.02001953125;0.1982421875;-0.3759765625;-13.4375;-1.5625;32.9375;
1441975196855283;-0.55279541015625;0.662353515625;-0.3017578125;-0.40582275390625;2.9404194828483043;17.714013374443027;4.152007375834465;1.07177734375;0.2607421875;-0.38330078125;-3.5625;-9.3125;27.25;
1441975196877284;-0.5506591796875;0.6644287109375;-0.297607421875;-0.40838623046875;2.949341215013459;17.6834869589634;4.149828394037554;1.091796875;0.3291015625;-0.4111328125;-10.75;-14.5625;19.8125;
1441975196892285;-0.548583984375;0.66650390625;-0.2933349609375;-0.41082763671875;2.9602063890003425;17.652751062508862;4.147959874322188;1.03662109375;0.271484375;-0.38232421875;-24.4375;-16.625;13.375;
1441975196915287;-0.54730224609375;0.66796875;-0.28955078125;-0.412841796875;2.97181615773128;17.62284051960092;4.152159774801098;0.97607421875;0.18408203125;-0.35205078125;-27.8125;-17.625;7.8125;
1441975196938288;-0.54656982421875;0.66900634765625;-0.28607177734375;-0.41461181640625;2.983858638562944;17.592958658725138;4.160873661184513;0.91015625;0.15625;-0.34716796875;-22.3125;-15.875;2.6875;
1441975196952289;-0.546142578125;0.669921875;-0.28240966796875;-0.41619873046875;2.9994274687246163;17.56150843476789;4.172328628838836;0.830078125;0.16748046875;-0.35791015625;-18.375;-12.5;0.6875;
1441975196975290;-0.5462646484375;0.67059326171875;-0.27862548828125;-0.41748046875;3.0196418196457175;17.528431625785732;4.188216672799471;0.74951171875;0.14794921875;-0.37353515625;-18.4375;-10.1875;-1.875;
1441975196997291;-0.54693603515625;0.67071533203125;-0.2752685546875;-0.41864013671875;3.0383534688465335;17.495089973402987;4.209323435011668;0.70361328125;0.1240234375;-0.39306640625;-17.125;-9.25;-5.75;
1441975197012292;-0.54803466796875;0.67022705078125;-0.27276611328125;-0.419677734375;3.0518759659406043;17.464581657919506;4.23373683905884;0.6669921875;0.11181640625;-0.38525390625;-13.75;-7.3125;-9.5625;
1441975197041294;-0.549560546875;0.6693115234375;-0.27093505859375;-0.42034912109375;3.0638625179331425;17.438055308050384;4.25985612920111;0.64501953125;0.109375;-0.388671875;-8.125;-3.75;-11.0625;
1441975197056295;-0.551513671875;0.66815185546875;-0.26953125;-0.4205322265625;3.0775035288460106;17.415492518837294;4.286731083762383;0.6240234375;0.13037109375;-0.40234375;-2.5;-0.9375;-10.75;
1441975197073296;-0.5540771484375;0.66668701171875;-0.26849365234375;-0.42010498046875;3.094664982155201;17.396486386818882;4.315647573485304;0.6025390625;0.12939453125;-0.39990234375;2.3125;-0.875;-11.25;
1441975197095297;-0.5570068359375;0.664794921875;-0.267822265625;-0.419677734375;3.1096405653198804;17.377051695420832;4.348540551161074;0.5927734375;0.11328125;-0.4013671875;6.625;-2.25;-13.875;
1441975197124299;-0.55999755859375;0.662353515625;-0.2677001953125;-0.41961669921875;3.11685528891826;17.356171559862577;4.385395698871908;0.60498046875;0.1123046875;-0.38671875;9.5625;-2.0;-16.1875;
1441975197147300;-0.5626220703125;0.65972900390625;-0.268310546875;-0.41986083984375;3.114594716288552;17.338254495336432;4.420201108743608;0.64501953125;0.14208984375;-0.40283203125;12.625;1.8125;-16.0625;
1441975197163301;-0.564697265625;0.65716552734375;-0.26904296875;-0.420654296875;3.1056058965656335;17.319093355894694;4.453256779678786;0.72216796875;0.169921875;-0.44921875;14.0;6.8125;-13.1875;
1441975197178302;-0.566162109375;0.65521240234375;-0.26910400390625;-0.421630859375;3.0996276753338057;17.298895044130088;4.481041368155721;0.81005859375;0.19384765625;-0.478515625;12.0;8.375;-10.5625;
1441975197200303;-0.5670166015625;0.6541748046875;-0.26763916015625;-0.42303466796875;3.1023795253198894;17.2720139432275;4.50495104562506;0.83984375;0.154296875;-0.45703125;5.0625;4.375;-11.1875;
1441975197215304;-0.5667724609375;0.654296875;-0.26544189453125;-0.42449951171875;3.1086108474217857;17.24885427197139;4.515907792039378;0.81005859375;0.12158203125;-0.37646484375;-5.8125;-4.0625;-12.4375;
1441975197237305;-0.5653076171875;0.65557861328125;-0.263916015625;-0.42547607421875;3.110507531096142;17.242528503078724;4.506474593190113;0.81201171875;0.11083984375;-0.35888671875;-13.25;-8.5625;-7.5625;
1441975197252306;-0.56280517578125;0.65771484375;-0.26318359375;-0.42596435546875;3.1071295741415126;17.251803530278522;4.479689806130629;0.91357421875;0.09033203125;-0.419921875;-15.1875;-8.75;1.25;
1441975197275307;-0.55908203125;0.66070556640625;-0.26318359375;-0.42620849609375;3.096757467812294;17.27522735386217;4.435573933220239;1.080078125;0.10107421875;-0.4853515625;-14.5;-10.8125;10.0625;
1441975197305309;-0.5535888671875;0.66400146484375;-0.2652587890625;-0.42694091796875;3.0608334231164145;17.315897423826147;4.373245854706414;1.26708984375;0.16064453125;-0.52001953125;-13.6875;-13.9375;21.4375;
1441975197319310;-0.546142578125;0.66729736328125;-0.26727294921875;-0.4300537109375;3.0009906979922754;17.346837200807304;4.307945564724873;1.5458984375;0.22412109375;-0.65380859375;-10.375;-4.9375;35.8125;
1441975197335311;-0.53765869140625;0.67083740234375;-0.26605224609375;-0.43603515625;2.941337969439674;17.341349845084586;4.2570268130835265;1.7587890625;0.228515625;-0.8037109375;-23.8125;10.0;38.9375;
1441975197356312;-0.52801513671875;0.67596435546875;-0.26275634765625;-0.44189453125;2.8972294970280728;17.335068467355427;4.192483895999145;1.416015625;0.1591796875;-0.7529296875;-50.4375;21.625;29.6875;
1441975197379313;-0.517822265625;0.6824951171875;-0.2586669921875;-0.4462890625;2.8711715531351016;17.343575954364116;4.108827557862834;1.0029296875;-0.0458984375;-0.58837890625;-68.5625;17.0;25.0625;
1441975197395314;-0.50762939453125;0.68939208984375;-0.255615234375;-0.44915771484375;2.850445022420105;17.37328408516445;4.010369953559937;0.77392578125;-0.22705078125;-0.47705078125;-76.125;7.25;22.3125;
1441975197418315;-0.49859619140625;0.695556640625;-0.25445556640625;-0.450439453125;2.8319280224603642;17.421194872094418;3.9097586039460044;0.74609375;-0.3037109375;-0.41650390625;-69.9375;0.3125;24.25;
1441975197439317;-0.49200439453125;0.7001953125;-0.2545166015625;-0.45050048828125;2.820520788446289;17.470453198544437;3.826920766796886;0.892578125;-0.2919921875;-0.39501953125;-52.4375;-5.9375;24.6875;
1441975197455318;-0.48760986328125;0.7034912109375;-0.25531005859375;-0.44970703125;2.8159142463614404;17.516071859813728;3.7629955580501866;0.96142578125;-0.2216796875;-0.3564453125;-33.1875;-11.3125;20.0;
1441975197485319;-0.48443603515625;0.706298828125;-0.25518798828125;-0.44873046875;2.8223954919192016;17.548145251753603;3.7152050329249167;0.95263671875;-0.13720703125;-0.333984375;-17.125;-13.6875;16.0625;
1441975197516321;-0.48126220703125;0.7095947265625;-0.253173828125;-0.4481201171875;2.8404365440965327;17.564584953300827;3.674454781776511;0.9619140625;-0.04296875;-0.36767578125;-13.125;-15.8125;14.3125;
1441975197529322;-0.4775390625;0.7137451171875;-0.2489013671875;-0.4478759765625;2.8712554620089024;17.56631067126281;3.6357427953092323;0.9189453125;0.02392578125;-0.40087890625;-21.0;-17.4375;14.25;
1441975197538322;-0.4730224609375;0.7188720703125;-0.24298095703125;-0.44769287109375;2.9127083468218817;17.561620967311626;3.592417467634294;0.8154296875;0.0361328125;-0.40234375;-32.8125;-20.4375;14.1875;
1441975197559323;-0.4674072265625;0.7247314453125;-0.23590087890625;-0.44793701171875;2.9565765183214343;17.552233474905734;3.5430895436943617;0.7197265625;0.02880859375;-0.41015625;-43.875;-23.1875;15.5625;
1441975197581325;-0.4609375;0.73095703125;-0.22857666015625;-0.44830322265625;2.998993699851631;17.54461493660797;3.486870190158436;0.634765625;0.015625;-0.4111328125;-54.125;-21.9375;17.875;
1441975197607326;-0.4542236328125;0.7371826171875;-0.221923828125;-0.4483642578125;3.038728140597855;17.54435517667572;3.425365721520997;0.5615234375;-0.00390625;-0.41357421875;-58.875;-19.6875;21.1875;
1441975197619327;-0.44769287109375;0.7431640625;-0.21630859375;-0.44781494140625;3.076896103681327;17.55323542832506;3.3608438035391317;0.5078125;-0.01220703125;-0.423828125;-56.1875;-17.0625;23.5;
1441975197635328;-0.44158935546875;0.74853515625;-0.21197509765625;-0.447021484375;3.1087858896143827;17.568652498627717;3.297719190624325;0.48291015625;-0.01416015625;-0.4375;-49.6875;-14.5;25.8125;
1441975197658329;-0.4359130859375;0.7530517578125;-0.208984375;-0.44635009765625;3.1302196374402755;17.588419362063945;3.2381950750554176;0.48486328125;-0.013671875;-0.453125;-41.5;-11.0625;26.25;
1441975197686331;-0.4306640625;0.7568359375;-0.20703125;-0.44598388671875;3.1420469373905204;17.60995532095985;3.1831503619626447;0.515625;-0.00390625;-0.46923828125;-34.0625;-5.8125;26.0625;
1441975197726333;-0.42572021484375;0.75982666015625;-0.20599365234375;-0.44610595703125;3.1427325222210243;17.632014785872407;3.1327127790497147;0.533203125;0.01318359375;-0.47705078125;-27.375;-0.5;25.625;
1441975197728333;-0.420654296875;0.76226806640625;-0.20538330078125;-0.447021484375;3.1319727162140123;17.65211753044066;3.0848993805028617;0.5693359375;0.03564453125;-0.49462890625;-21.9375;5.0;25.3125;
1441975197739334;-0.41522216796875;0.76416015625;-0.2056884765625;-0.44866943359375;3.1067958178352395;17.676004016589168;3.035023136157649;0.60986328125;0.0576171875;-0.51025390625;-21.125;10.5625;26.1875;
1441975197755335;-0.40985107421875;0.7652587890625;-0.20672607421875;-0.4512939453125;3.0664725802448944;17.698770056989176;2.988924865961506;0.69091796875;0.06494140625;-0.5341796875;-18.5;16.9375;27.9375;
1441975197785336;-0.40435791015625;0.76556396484375;-0.20855712890625;-0.4549560546875;3.009503962833783;17.721909675297052;2.944557725155753;0.76416015625;0.08984375;-0.5546875;-15.625;23.625;28.3125;
1441975197799337;-0.39837646484375;0.76531982421875;-0.21044921875;-0.459716796875;2.939038913781989;17.74188680401545;2.9007851316373223;0.84912109375;0.11083984375;-0.572265625;-13.5;31.0;29.0625;
1441975197815338;-0.39190673828125;0.76470947265625;-0.2119140625;-0.46551513671875;2.858798242542785;17.75560281536399;2.858677315538513;0.95361328125;0.12890625;-0.607421875;-15.25;37.5;29.6875;
1441975197839340;-0.38494873046875;0.7637939453125;-0.21331787109375;-0.47216796875;2.768704338989464;17.767557695245458;2.815369753710782;1.0068359375;0.1142578125;-0.6103515625;-21.125;42.0625;28.25;
1441975197859341;-0.37786865234375;0.7623291015625;-0.21527099609375;-0.47930908203125;2.668836046429419;17.78281879727076;2.770595962514612;1.02392578125;0.08056640625;-0.58251953125;-25.0625;46.125;26.1875;
1441975197875342;-0.37078857421875;0.76007080078125;-0.2176513671875;-0.4873046875;2.555779597095674;17.797218905649203;2.7283051234692617;1.04931640625;0.04541015625;-0.57470703125;-24.75;51.375;24.6875;
1441975197898343;-0.3636474609375;0.7569580078125;-0.22052001953125;-0.49615478515625;2.4286766518928133;17.811795898667164;2.6875708249812034;1.08544921875;0.060546875;-0.56201171875;-22.8125;57.6875;24.125;
1441975197920344;-0.35589599609375;0.75341796875;-0.2235107421875;-0.5057373046875;2.290806379885689;17.82926361383414;2.6417128893890345;1.20703125;0.1318359375;-0.58447265625;-19.75;65.0;27.875;
1441975197935345;-0.3475341796875;0.75030517578125;-0.22479248046875;-0.5155029296875;2.159582955029456;17.83658462346652;2.596393964665055;1.38232421875;0.19580078125;-0.64599609375;-20.0625;71.8125;33.0625;
1441975197958346;-0.33880615234375;0.748779296875;-0.2237548828125;-0.52392578125;2.057619022214219;17.83744129361552;2.5471971966045475;1.421875;0.185546875;-0.6259765625;-30.625;68.625;31.3125;
1441975197980348;-0.33056640625;0.7484130859375;-0.2225341796875;-0.5301513671875;1.983231519174851;17.852960090630106;2.4863466601581;1.19873046875;0.0703125;-0.44189453125;-43.875;49.375;23.25;
1441975197995348;-0.32373046875;0.74835205078125;-0.22161865234375;-0.53485107421875;1.9266988886362866;17.873224279472538;2.429278754897137;0.9794921875;-0.10693359375;-0.2568359375;-44.375;29.5625;15.0;
1441975198018350;-0.31927490234375;0.747802734375;-0.2215576171875;-0.538330078125;1.8813327659559207;17.88993018015019;2.390796929954106;0.9296875;-0.1904296875;-0.20263671875;-38.5;19.0;6.8125;
1441975198046351;-0.31884765625;0.7462158203125;-0.22344970703125;-0.53997802734375;1.8492422177017669;17.901910862597227;2.3842618193314533;1.001953125;-0.16552734375;-0.201171875;-23.375;12.8125;1.375;
1441975198055352;-0.32208251953125;0.74383544921875;-0.226806640625;-0.5399169921875;1.8315818424950676;17.90533699238875;2.4096545006683443;1.01708984375;-0.0888671875;-0.208984375;3.5;7.1875;-3.9375;
1441975198093354;-0.32794189453125;0.7413330078125;-0.2293701171875;-0.538818359375;1.8327569320263153;17.878591817526935;2.4739911609898666;1.0517578125;-0.01708984375;-0.21240234375;27.125;-0.125;-9.6875;
1441975198099354;-0.33465576171875;0.739501953125;-0.22930908203125;-0.5372314453125;1.8559842436420104;17.816040101121636;2.5671836972889492;1.1181640625;0.08935546875;-0.25390625;35.9375;-7.625;-15.4375;
1441975198115355;-0.3409423828125;0.73870849609375;-0.2266845703125;-0.53546142578125;1.8979010345524996;17.733466704571725;2.667771427992152;1.13427734375;0.169921875;-0.30517578125;29.0625;-15.125;-20.3125;
1441975198154358;-0.34686279296875;0.73876953125;-0.222412109375;-0.53338623046875;1.955282749063365;17.644723184286374;2.766072866199785;1.052734375;0.15673828125;-0.2958984375;15.625;-22.8125;-25.8125;
1441975198159358;-0.3526611328125;0.7392578125;-0.21722412109375;-0.53094482421875;2.023861560371267;17.556668160174848;2.859703945764655;0.94677734375;0.08837890625;-0.27587890625;5.4375;-29.0;-32.0;
1441975198183359;-0.358642578125;0.739990234375;-0.21185302734375;-0.528076171875;2.1006087350523743;17.47564803730362;2.9466219313753155;0.8369140625;0.05859375;-0.27001953125;0.1875;-31.75;-35.75;
1441975198199360;-0.365234375;0.7406005859375;-0.20703125;-0.524658203125;2.1822236481743547;17.405483941545953;3.0281989409725214;0.73681640625;0.03369140625;-0.25830078125;0.125;-34.0;-37.75;
1441975198219361;-0.37274169921875;0.7408447265625;-0.20281982421875;-0.5206298828125;2.2686301605711265;17.34354562228241;3.1089902935674107;0.69677734375;0.03564453125;-0.25732421875;5.25;-35.4375;-38.625;
1441975198235362;-0.38116455078125;0.74072265625;-0.1993408203125;-0.51605224609375;2.358555964630897;17.290466053747878;3.1887593834467194;0.671875;0.05859375;-0.255859375;12.875;-36.75;-39.4375;
1441975198257363;-0.38995361328125;0.74041748046875;-0.19659423828125;-0.510986328125;2.449783551850408;17.24948074595789;3.2618237483863823;0.63623046875;0.09619140625;-0.24853515625;21.0;-37.5;-39.125;
1441975198279365;-0.39886474609375;0.73992919921875;-0.19464111328125;-0.50543212890625;2.5405040255081683;17.22142966213985;3.326692190171007;0.6103515625;0.1201171875;-0.2509765625;27.1875;-37.9375;-37.625;
1441975198295366;-0.40753173828125;0.73944091796875;-0.19317626953125;-0.4998779296875;2.627670796331628;17.2019199302648;3.384064925888284;0.61083984375;0.13818359375;-0.2724609375;32.5;-36.9375;-34.4375;
1441975198324367;-0.41558837890625;0.7388916015625;-0.19207763671875;-0.494384765625;2.7094356943675924;17.18996423270439;3.4330974926265165;0.61181640625;0.1591796875;-0.27880859375;34.25;-35.875;-31.1875;
1441975198339368;-0.42279052734375;0.7384033203125;-0.191650390625;-0.4891357421875;2.7817680310836894;17.187552889083594;3.471458655358374;0.6337890625;0.1845703125;-0.30322265625;35.0625;-33.9375;-26.5;
1441975198355369;-0.428466796875;0.73828125;-0.19140625;-0.4844970703125;2.843018136831984;17.19167842893557;3.4965407379031017;0.68359375;0.2021484375;-0.31787109375;34.6875;-31.5;-20.625;
1441975198377370;-0.43267822265625;0.73846435546875;-0.19110107421875;-0.48065185546875;2.8933250637697228;17.197964827221938;3.511759604373765;0.7451171875;0.19580078125;-0.3251953125;29.5625;-30.1875;-14.9375;
1441975198401372;-0.43524169921875;0.73876953125;-0.19158935546875;-0.4776611328125;2.9253465924446083;17.212143669546514;3.514077587460907;0.8154296875;0.19287109375;-0.2939453125;23.25;-30.6875;-9.8125;
1441975198415372;-0.43560791015625;0.73931884765625;-0.1923828125;-0.47607421875;2.936139404674242;17.22944389223742;3.5030852847508567;0.94091796875;0.205078125;-0.30224609375;20.0;-27.6875;-1.8125;
1441975198437374;-0.4337158203125;0.74029541015625;-0.19281005859375;-0.47607421875;2.9290825497576525;17.244739067657406;3.480463281613025;1.11279296875;0.22265625;-0.3408203125;12.1875;-23.0625;7.25;
1441975198461375;-0.42999267578125;0.74169921875;-0.192626953125;-0.47735595703125;2.9099284486903247;17.256654987341467;3.4488646074187144;1.24755859375;0.2119140625;-0.3583984375;-0.5625;-19.0;13.375;
1441975198481376;-0.42474365234375;0.74346923828125;-0.19232177734375;-0.4794921875;2.8800451824399245;17.27056391176524;3.4068344810417193;1.2734375;0.16455078125;-0.357421875;-13.375;-15.125;16.4375;
1441975198497377;-0.4178466796875;0.74505615234375;-0.19281005859375;-0.48284912109375;2.828411012244964;17.290218293279395;3.353970320664443;1.2412109375;0.11083984375;-0.37744140625;-22.5;-8.4375;19.6875;
1441975198520378;-0.4090576171875;0.74615478515625;-0.1953125;-0.4876708984375;2.743872231267782;17.325461027941184;3.284258661023283;1.2900390625;0.111328125;-0.4140625;-26.5625;2.6875;27.25;
1441975198535379;-0.3995361328125;0.74639892578125;-0.19915771484375;-0.49359130859375;2.637049475774459;17.368573521316574;3.208651047451883;1.47314453125;0.1630859375;-0.5341796875;-24.9375;19.8125;40.8125;
1441975198557381;-0.39178466796875;0.745361328125;-0.201904296875;-0.500244140625;2.532853871069838;17.38602585961114;3.162346215241137;1.4775390625;0.09033203125;-0.6005859375;-25.6875;36.75;40.9375;
1441975198580382;-0.3856201171875;0.7431640625;-0.20562744140625;-0.5067138671875;2.425903939054439;17.40183943127734;3.129782635679572;0.99658203125;-0.03759765625;-0.42236328125;-28.1875;44.125;22.25;
1441975198609384;-0.380126953125;0.739990234375;-0.21185302734375;-0.512939453125;2.3053812649596437;17.437321059304995;3.0916428573187233;0.65673828125;-0.1044921875;-0.2744140625;-18.4375;48.125;13.9375;
1441975198617384;-0.37457275390625;0.73602294921875;-0.2197265625;-0.5194091796875;2.170377096531035;17.488649633298866;3.04455485887227;0.6357421875;-0.12353515625;-0.30810546875;-4.6875;58.8125;15.875;
1441975198640385;-0.36981201171875;0.73138427734375;-0.22802734375;-0.525634765625;2.035383931196643;17.543228433591402;3.0003517017089862;0.791015625;-0.0927734375;-0.3828125;3.5625;67.5625;20.4375;
1441975198661387;-0.36688232421875;0.72613525390625;-0.23724365234375;-0.5308837890625;1.9078693977958678;17.60432832971399;2.9625753241599657;0.88427734375;-0.04150390625;-0.3427734375;11.0625;65.125;20.9375;
1441975198684388;-0.36517333984375;0.7205810546875;-0.2469482421875;-0.53521728515625;1.7886922839672235;17.672826545671047;2.925801492634973;0.9033203125;-0.00390625;-0.27880859375;24.375;58.9375;18.875;
1441975198700389;-0.364013671875;0.7147216796875;-0.2562255859375;-0.53948974609375;1.6728999744132511;17.735859658027206;2.895496283717346;0.990234375;0.01953125;-0.263671875;33.3125;53.9375;18.0625;
1441975198721390;-0.36334228515625;0.70849609375;-0.26507568359375;-0.54388427734375;1.5581613762282767;17.790551742051242;2.874101170656045;1.09619140625;0.06005859375;-0.26416015625;34.9375;52.5;16.625;
1441975198745391;-0.36279296875;0.7022705078125;-0.2734375;-0.548095703125;1.4477685329250711;17.84365997800442;2.8531998934083704;1.125;0.07861328125;-0.25244140625;35.125;52.6875;14.5;
1441975198760392;-0.36224365234375;0.69671630859375;-0.2808837890625;-0.55181884765625;1.3495995870044784;17.896952838854865;2.8283720593991966;1.08203125;0.06494140625;-0.2294921875;34.0625;51.0625;12.3125;
1441975198789394;-0.361083984375;0.69207763671875;-0.28680419921875;-0.55535888671875;1.263291013035452;17.946543780128454;2.7980829108117495;1.041015625;0.03759765625;-0.2353515625;29.6875;47.875;10.5;
1441975198797394;-0.359375;0.688232421875;-0.29132080078125;-0.5589599609375;1.1858026853005688;17.989410872902596;2.7658223717085195;1.0;0.02197265625;-0.25927734375;20.125;45.125;9.0625;
1441975198834396;-0.35791015625;0.6845703125;-0.2952880859375;-0.562255859375;1.1151613118847072;0.02690897507789087;2.738044884849767;0.98486328125;0.0107421875;-0.275390625;11.5;43.375;7.9375;
1441975198841397;-0.35736083984375;0.68084716796875;-0.29931640625;-0.56500244140625;1.0513435461018834;0.05900104645869329;2.7203341200082756;0.9482421875;-0.01416015625;-0.26513671875;10.1875;40.6875;4.6875;
1441975198873399;-0.3577880859375;0.67694091796875;-0.303466796875;-0.56719970703125;0.9934010084779895;0.08276399626258295;2.7162794016095027;0.90234375;-0.015625;-0.25048828125;14.5;37.8125;1.8125;
1441975198881399;-0.359130859375;0.6728515625;-0.30755615234375;-0.5689697265625;0.9408155606338573;0.09132181954990234;2.731645541018943;0.8876953125;-0.0048828125;-0.25634765625;20.0;35.9375;0.125;
1441975198901400;-0.36114501953125;0.66864013671875;-0.31201171875;-0.57025146484375;0.8919884913338862;0.09905068603953501;2.7527116352287457;0.873046875;0.02587890625;-0.25927734375;23.9375;34.125;-1.25;
1441975198917401;-0.36383056640625;0.66436767578125;-0.31671142578125;-0.5709228515625;0.8487522858708675;0.10458860694728846;2.7805210141493073;0.857421875;0.0244140625;-0.25341796875;28.75;32.5;-2.0;
1441975198940402;-0.3670654296875;0.66009521484375;-0.321533203125;-0.57110595703125;0.8106441069190375;0.10604260699778163;2.8157427146125413;0.8349609375;0.03271484375;-0.259765625;33.6875;30.6875;-2.5;
1441975198961404;-0.37060546875;0.65594482421875;-0.3262939453125;-0.57098388671875;0.7769871751604903;0.10261710629129611;2.8570541894330446;0.81689453125;0.03369140625;-0.26416015625;36.6875;28.9375;-3.0;
1441975198977405;-0.37408447265625;0.65185546875;-0.3306884765625;-0.57080078125;0.7454977835136251;0.08980596914120083;2.906228065384999;0.82568359375;0.04345703125;-0.26708984375;37.9375;27.375;-3.1875;
1441975199000406;-0.37713623046875;0.64825439453125;-0.33453369140625;-0.5706787109375;0.7175846674081261;0.07519661389990606;2.952640689362486;0.853515625;0.06591796875;-0.28125;36.5;27.1875;-2.125;
1441975199021407;-0.3797607421875;0.64483642578125;-0.3377685546875;-0.57086181640625;0.6896616146622038;0.04841230033914517;3.0065827014169435;0.88427734375;0.07568359375;-0.3017578125;32.1875;27.25;-0.875;
1441975199037408;-0.38226318359375;0.64178466796875;-0.3404541015625;-0.571044921875;0.6661914339312086;0.01031083467566468;3.06873315084676;0.9208984375;0.08056640625;-0.2861328125;27.5;25.875;-0.8125;
1441975199060409;-0.38427734375;0.63916015625;-0.3424072265625;-0.57147216796875;0.6452510267251712;17.9617232015271;3.1357143262559686;0.9384765625;0.07568359375;-0.28662109375;24.1875;23.9375;-2.0625;
1441975199081411;-0.3857421875;0.636962890625;-0.343505859375;-0.572265625;0.626364981555701;17.897757728752396;3.2115292447190056;0.9501953125;0.06494140625;-0.26416015625;18.6875;21.5625;-3.25;
1441975199105412;-0.386962890625;0.6351318359375;-0.3443603515625;-0.572998046875;0.6107156760831824;17.837559168618547;3.281239338170649;0.98291015625;0.07177734375;-0.22607421875;11.75;17.6875;-3.375;
1441975199120413;-0.3878173828125;0.63409423828125;-0.34503173828125;-0.57318115234375;0.6034200182180212;17.808725229069893;3.3171641503633653;1.08544921875;0.11669921875;-0.234375;9.625;16.5;0.625;
1441975199141414;-0.388671875;0.6337890625;-0.34527587890625;-0.57275390625;0.6071005415067369;17.794979402418917;3.3362620954673634;1.2158203125;0.13232421875;-0.2919921875;7.8125;15.375;5.0;
1441975199157415;-0.39056396484375;0.63427734375;-0.345703125;-0.5706787109375;0.630941112100414;17.811405976149498;3.331221872064863;1.24658203125;0.10009765625;-0.26904296875;5.875;7.75;4.25;
1441975199180416;-0.3941650390625;0.63494873046875;-0.34686279296875;-0.56671142578125;0.6731586774250518;17.846555433312513;3.3195337323793463;1.1708984375;0.01708984375;-0.17919921875;11.625;-8.5625;0.5;
1441975199202417;-0.399658203125;0.63525390625;-0.34912109375;-0.5611572265625;0.7272125417160177;17.887245682472066;3.3168119701397543;1.08984375;-0.05322265625;-0.0810546875;22.9375;-24.1875;-4.1875;
1441975199217418;-0.40692138671875;0.63531494140625;-0.35125732421875;-0.55450439453125;0.7957176361870019;17.89731279756367;3.353304388347799;1.13671875;-0.06103515625;-0.04833984375;37.25;-34.0625;-5.6875;
1441975199240420;-0.4156494140625;0.63555908203125;-0.3524169921875;-0.54693603515625;0.8830034814252625;17.874856980948316;3.4256374934970792;1.17333984375;-0.02099609375;-0.0546875;45.9375;-41.8125;-7.8125;
1441975199269421;-0.42529296875;0.63653564453125;-0.35205078125;-0.53851318359375;0.9927398348836938;17.835964196490362;3.5126654243355904;1.15478515625;0.037109375;-0.0595703125;49.5625;-51.625;-10.4375;
1441975199277422;-0.4349365234375;0.638427734375;-0.349853515625;-0.52996826171875;1.1187392061364727;17.788773650168842;3.6000792970360527;1.162109375;0.07763671875;-0.087890625;47.9375;-61.875;-12.5625;
1441975199308424;-0.44415283203125;0.640869140625;-0.3460693359375;-0.5218505859375;1.2521150422844596;17.735464031727403;3.684666276927737;1.12841796875;0.08154296875;-0.1318359375;39.5;-68.1875;-15.625;
1441975199323424;-0.45318603515625;0.64337158203125;-0.34161376953125;-0.51385498046875;1.3885180495854188;17.68692678894706;3.7612570217079835;1.0712890625;0.078125;-0.171875;30.1875;-69.9375;-18.75;
1441975199337425;-0.46246337890625;0.64520263671875;-0.33758544921875;-0.50592041015625;1.520170301776056;17.646054278758136;3.83393722627972;1.03076171875;0.06787109375;-0.1875;26.875;-70.375;-21.6875;
1441975199360427;-0.47222900390625;0.64599609375;-0.33441162109375;-0.49786376953125;1.6450728451919836;17.612854403981515;3.906263367027269;0.95654296875;0.0654296875;-0.20751953125;30.25;-66.75;-23.4375;
1441975199383428;-0.48236083984375;0.6458740234375;-0.33233642578125;-0.4896240234375;1.762118159001919;17.59115840861977;3.9747103254728;0.8876953125;0.08349609375;-0.21044921875;37.375;-62.75;-24.3125;
1441975199397429;-0.49261474609375;0.6451416015625;-0.33111572265625;-0.48126220703125;1.8725341589130626;17.57984348596871;4.037928356751499;0.8291015625;0.10107421875;-0.2001953125;45.0625;-59.5;-23.6875;
1441975199435431;-0.5028076171875;0.643798828125;-0.33026123046875;-0.472900390625;1.977619073919446;17.572419446110178;4.0999114342852;0.7890625;0.1103515625;-0.1875;50.625;-57.0625;-22.9375;
1441975199443431;-0.5126953125;0.64202880859375;-0.32989501953125;-0.46484375;2.074155362124738;17.569300538935416;4.158666158784539;0.7451171875;0.12353515625;-0.1728515625;53.375;-55.0625;-22.5;
1441975199457432;-0.52203369140625;0.63983154296875;-0.33026123046875;-0.457275390625;2.1580462355763474;17.571584975470746;4.212623866086465;0.71826171875;0.13818359375;-0.158203125;54.4375;-52.1875;-21.0625;
1441975199488434;-0.53057861328125;0.63726806640625;-0.33154296875;-0.449951171875;2.2286776212271633;17.58378338853173;4.2575182684062876;0.73095703125;0.14892578125;-0.150390625;55.75;-47.4375;-18.5625;
1441975199503435;-0.538330078125;0.6346435546875;-0.3333740234375;-0.44305419921875;2.288502396731038;17.601867114262316;4.294925858379015;0.76416015625;0.14990234375;-0.15771484375;56.9375;-42.375;-15.125;
1441975199526436;-0.54498291015625;0.63232421875;-0.33544921875;-0.43670654296875;2.338827856501659;17.62534875705637;4.3220692165899;0.80078125;0.1845703125;-0.1826171875;57.0;-37.6875;-9.6875;
1441975199539437;-0.5504150390625;0.63018798828125;-0.337890625;-0.4310302734375;2.376956674399329;17.653588613304567;4.33955405731588;0.85302734375;0.19921875;-0.2001953125;53.25;-34.1875;-4.4375;
1441975199570439;-0.554443359375;0.6282958984375;-0.341064453125;-0.42608642578125;2.3994564978398456;17.690119121169364;4.3440713046208375;0.91259765625;0.18896484375;-0.21240234375;48.625;-30.3125;-0.0625;
1441975199600440;-0.55694580078125;0.626708984375;-0.3447265625;-0.42218017578125;2.4058013559571916;17.73133272193124;4.337051071804982;0.99853515625;0.1826171875;-0.21875;45.25;-25.1875;5.5625;
1441975199603440;-0.55804443359375;0.62554931640625;-0.34857177734375;-0.4193115234375;2.3993513708769045;17.77510190028246;4.319685882428043;1.09814453125;0.20458984375;-0.25341796875;39.875;-18.75;12.3125;
1441975199632442;-0.5579833984375;0.62457275390625;-0.35272216796875;-0.41741943359375;2.379954737923067;17.82082285478018;4.294536681873191;1.16162109375;0.19482421875;-0.2822265625;32.9375;-12.375;17.375;
1441975199645443;-0.55670166015625;0.62347412109375;-0.3568115234375;-0.417236328125;2.3434836484532497;17.858570292250416;4.269026019276302;1.17626953125;0.1357421875;-0.2841796875;25.9375;-6.4375;17.5;
1441975199660444;-0.55401611328125;0.622314453125;-0.3621826171875;-0.41790771484375;2.286538449612645;17.909508215944005;4.227761888223675;1.21728515625;0.1494140625;-0.27783203125;18.4375;1.3125;19.3125;
1441975199690445;-0.5509033203125;0.62091064453125;-0.36676025390625;-0.42010498046875;2.221519775184866;17.943747398527506;4.195895964892355;1.37744140625;0.14404296875;-0.4013671875;16.625;16.125;25.4375;
1441975199711447;-0.5489501953125;0.6181640625;-0.37030029296875;-0.423583984375;2.1530221978635424;17.943478202305087;4.199077099390244;1.18017578125;-0.005859375;-0.4091796875;4.5;27.125;12.0625;
1441975199720447;-0.5484619140625;0.61309814453125;-0.37554931640625;-0.42694091796875;2.0699400329004187;17.936579339032043;4.225334225952351;0.83642578125;-0.1474609375;-0.26611328125;-1.3125;30.375;-10.625;
1441975199743448;-0.5487060546875;0.6065673828125;-0.38140869140625;-0.4307861328125;1.9760244061697128;17.914834312038302;4.273178190821424;0.755859375;-0.20068359375;-0.25341796875;12.3125;39.75;-22.1875;
1441975199764450;-0.54986572265625;0.599609375;-0.3865966796875;-0.43438720703125;1.890684881657959;17.87534683504382;4.341280626582349;0.84326171875;-0.1826171875;-0.2919921875;18.5;46.3125;-28.0;
1441975199780451;-0.5526123046875;0.5924072265625;-0.3916015625;-0.436279296875;1.8249744920640982;17.83331056380025;4.421518805243451;0.921875;-0.12158203125;-0.283203125;21.6875;41.5;-29.875;
1441975199803452;-0.5570068359375;0.5853271484375;-0.39599609375;-0.43634033203125;1.784633782015529;17.7893624126576;4.5114851398384435;0.99560546875;-0.091796875;-0.2109375;31.4375;26.1875;-31.375;
1441975199825453;-0.56243896484375;0.57830810546875;-0.39971923828125;-0.435302734375;1.762214765270229;17.740935082615827;4.609889952610985;1.14453125;-0.017578125;-0.17236328125;40.9375;8.8125;-29.4375;
1441975199848454;-0.56854248046875;0.57073974609375;-0.4024658203125;-0.43475341796875;1.7460305860358534;17.66558121005487;4.734462543774993;1.26025390625;0.01708984375;-0.19970703125;45.375;0.1875;-30.25;
1441975199863455;-0.5751953125;0.56256103515625;-0.4044189453125;-0.43487548828125;1.7344096403172369;17.563406684850637;4.884945024040186;1.232421875;0.04150390625;-0.21240234375;43.5;0.25;-37.0;
1441975199885457;-0.5816650390625;0.554931640625;-0.40533447265625;-0.43524169921875;1.7334316919856587;17.453798266523393;5.037004419234421;1.13037109375;0.05224609375;-0.22216796875;41.625;3.125;-44.0625;
1441975199899457;-0.58697509765625;0.549072265625;-0.4049072265625;-0.43603515625;1.7431009989654442;17.351524235480973;5.168110251353597;1.04541015625;0.052734375;-0.2568359375;35.625;4.125;-45.125;
1441975199930459;-0.59075927734375;0.54534912109375;-0.40301513671875;-0.43731689453125;1.76201189714785;17.2619559351663;5.2702462823371885;0.99169921875;0.04541015625;-0.31884765625;22.3125;4.125;-41.125;
1441975199944460;-0.593505859375;0.542724609375;-0.40081787109375;-0.43890380859375;1.7806084061094727;17.184201023045823;5.352610486683736;0.9609375;0.01953125;-0.3701171875;6.3125;3.375;-35.875;
1441975199974462;-0.5960693359375;0.5401611328125;-0.3994140625;-0.4398193359375;1.796215191345483;17.124111059780482;5.420852263602003;0.919921875;-0.0087890625;-0.3740234375;-1.8125;3.5625;-32.9375;
1441975199983462;-0.59918212890625;0.53680419921875;-0.39947509765625;-0.43963623046875;1.8070164868457055;17.079490939526185;5.484955241570495;0.88232421875;-0.03271484375;-0.36328125;1.9375;4.8125;-30.375;
1441975200005463;-0.60272216796875;0.53253173828125;-0.40106201171875;-0.43853759765625;1.810294360320567;17.04696821856423;5.547937607431749;0.84375;-0.03173828125;-0.3623046875;12.8125;7.6875;-28.25;
1441975200020464;-0.60662841796875;0.52734375;-0.40399169921875;-0.43670654296875;1.8061584938117363;17.022472008545986;5.612626985690724;0.80810546875;-0.01025390625;-0.35400390625;24.75;11.75;-25.6875;
1441975200043466;-0.61065673828125;0.52178955078125;-0.40765380859375;-0.43438720703125;1.7982178535405517;17.004828321698337;5.6754123647807795;0.767578125;0.00390625;-0.34521484375;34.5;15.8125;-23.3125;
1441975200064467;-0.614501953125;0.51629638671875;-0.411376953125;-0.43206787109375;1.7889622250010553;16.98852231657479;5.736322434426284;0.71728515625;0.01708984375;-0.3369140625;39.9375;18.0625;-21.1875;
1441975200079468;-0.61767578125;0.5111083984375;-0.41558837890625;-0.4295654296875;1.7728298215442293;16.982990870856295;5.785566179922403;0.673828125;0.04443359375;-0.33447265625;40.1875;19.75;-17.875;
1441975200103469;-0.6202392578125;0.50628662109375;-0.42034912109375;-0.427001953125;1.749178710003338;16.987342479758105;5.823810707564059;0.66357421875;0.060546875;-0.341796875;40.0625;22.1875;-12.25;
1441975200127470;-0.6220703125;0.5015869140625;-0.42584228515625;-0.4244384765625;1.7148275250999734;16.999802483429317;5.853540276364404;0.68603515625;0.078125;-0.349609375;39.8125;24.875;-6.5625;
1441975200155472;-0.6231689453125;0.49725341796875;-0.431640625;-0.422119140625;1.6729200225717142;17.017203105297707;5.8752545687298605;0.73779296875;0.11376953125;-0.35791015625;40.5;28.6875;0.125;
1441975200186474;-0.623291015625;0.49365234375;-0.43707275390625;-0.4205322265625;1.626454640192903;17.033591968204394;5.889806133642115;0.80712890625;0.16064453125;-0.3662109375;38.6875;30.875;6.5;
1441975200188474;-0.62225341796875;0.490966796875;-0.4417724609375;-0.42022705078125;1.5756894871613412;17.041359455972483;5.901083371622267;0.8388671875;0.16748046875;-0.33544921875;31.1875;30.375;9.5625;
1441975200200475;-0.6197509765625;0.48919677734375;-0.447265625;-0.42022705078125;1.5095424263714532;17.06766446880254;5.888222675496568;0.87158203125;0.18408203125;-0.28466796875;20.1875;28.5;12.6875;
1441975200229476;-0.6156005859375;0.48834228515625;-0.45416259765625;-0.41998291015625;1.4241460497618113;17.13077560003793;5.835799130773408;1.0400390625;0.24365234375;-0.32666015625;16.25;34.3125;24.25;
1441975200244477;-0.61053466796875;0.48846435546875;-0.4609375;-0.41986083984375;1.3365100296499879;17.2173251678112;5.753761411732382;1.29443359375;0.2568359375;-0.45361328125;14.375;45.9375;37.0;
1441975200266478;-0.6063232421875;0.4884033203125;-0.46832275390625;-0.4178466796875;1.2583449845884158;17.346935132167246;5.6389681233477305;1.322265625;0.20703125;-0.44384765625;8.125;46.125;39.625;
1441975200296480;-0.60406494140625;0.48687744140625;-0.4775390625;-0.412353515625;1.1919739979861197;17.537923449716367;5.488108782263233;1.21923828125;0.1005859375;-0.27685546875;18.1875;32.375;37.1875;
1441975200305481;-0.603759765625;0.48333740234375;-0.4873046875;-0.405517578125;1.136745323356015;17.729189923853752;5.353950855420109;1.2275390625;-0.01318359375;-0.1552734375;43.125;19.375;34.0;
1441975200319481;-0.6051025390625;0.47802734375;-0.49688720703125;-0.39813232421875;1.0915533061406437;17.897557500670768;5.253724644725787;1.21435546875;-0.07421875;-0.10107421875;58.4375;14.125;23.6875;
1441975200342483;-0.60845947265625;0.4710693359375;-0.505859375;-0.38995361328125;1.061257776962337;0.031851258113531546;5.198858673840584;1.18310546875;-0.1005859375;-0.07861328125;68.875;11.0;13.125;
1441975200365484;-0.6138916015625;0.462646484375;-0.51348876953125;-0.38134765625;1.0482728890304334;0.10891347912368617;5.209112767883005;1.2041015625;-0.0927734375;-0.11474609375;79.125;7.25;3.75;
1441975200388485;-0.62091064453125;0.453369140625;-0.51947021484375;-0.37298583984375;1.050183935656494;0.1232862847204026;5.2838897000433;1.19140625;-0.060546875;-0.1689453125;86.3125;2.8125;-5.625;
1441975200402486;-0.62884521484375;0.4437255859375;-0.52410888671875;-0.36474609375;1.064402300520436;0.09901874327256889;5.397099905584195;1.10986328125;-0.0205078125;-0.1875;87.9375;-2.6875;-14.25;
1441975200425487;-0.637451171875;0.43402099609375;-0.52716064453125;-0.3570556640625;1.0913466392696916;0.036108060373874054;5.545213784262767;1.03125;0.021484375;-0.203125;87.25;-7.3125;-18.6875;
1441975200448489;-0.6466064453125;0.42425537109375;-0.5289306640625;-0.34967041015625;1.1306621068156228;17.950397759971008;5.713674232447103;0.97607421875;0.06640625;-0.2119140625;83.625;-12.5625;-22.3125;
1441975200470490;-0.6563720703125;0.4140625;-0.52972412109375;-0.34228515625;1.181631113670273;17.850874842335863;5.896648279888709;0.896484375;0.0927734375;-0.19482421875;80.5625;-18.625;-26.5625;
1441975200491491;-0.66668701171875;0.40350341796875;-0.5299072265625;-0.3345947265625;1.2434216848700603;17.753550567778817;6.079686240101557;0.81884765625;0.10400390625;-0.16357421875;81.25;-24.9375;-31.0;
1441975200506492;-0.6768798828125;0.3929443359375;-0.52972412109375;-0.32696533203125;1.3095395434440167;17.66637962637991;6.251416038306488;0.74853515625;0.12158203125;-0.15673828125;83.0625;-28.75;-33.0625;
1441975200529493;-0.6866455078125;0.38287353515625;-0.529296875;-0.3192138671875;1.3786006333414917;17.60124578310501;6.3985324953779195;0.70458984375;0.1640625;-0.158203125;82.6875;-29.6875;-31.3125;
1441975200545494;-0.69586181640625;0.373779296875;-0.5283203125;-0.31146240234375;1.4522657622270418;17.558225409913153;6.517962006340543;0.69775390625;0.212890625;-0.16796875;80.875;-30.0625;-25.5;
1441975200574496;-0.704345703125;0.3663330078125;-0.526611328125;-0.30413818359375;1.5302342237133113;17.53552634867687;6.6068723043936695;0.716796875;0.25390625;-0.193359375;76.625;-31.75;-18.875;
1441975200582496;-0.712158203125;0.36041259765625;-0.5240478515625;-0.29730224609375;1.6129802093042656;17.52657595306796;6.671934046024056;0.73046875;0.26318359375;-0.18701171875;67.5;-36.0;-13.125;
1441975200606498;-0.71917724609375;0.35595703125;-0.52105712890625;-0.29095458984375;1.6956505901491532;17.530886110601177;6.7144398541285675;0.75048828125;0.26220703125;-0.16650390625;58.125;-41.375;-8.875;
1441975200644500;-0.72509765625;0.35302734375;-0.51800537109375;-0.28521728515625;1.7727007081816386;17.54765982594832;6.7346141412376666;0.79541015625;0.25732421875;-0.1689453125;49.25;-43.5;-4.0;
1441975200649500;-0.72998046875;0.3515625;-0.51483154296875;-0.2801513671875;1.8447936028402154;17.5727506928194;6.73657327519664;0.87548828125;0.25390625;-0.18212890625;40.625;-43.6875;1.625;
1441975200666501;-0.7340087890625;0.351806640625;-0.5113525390625;-0.27587890625;1.9149437171142878;17.604043124028994;6.721060472801191;0.98779296875;0.2626953125;-0.20849609375;32.125;-43.375;8.25;
1441975200686502;-0.7373046875;0.3533935546875;-0.5072021484375;-0.27264404296875;1.9857908626939103;17.631658130483302;6.697916139939028;1.11181640625;0.2607421875;-0.25146484375;21.75;-44.5;13.875;
1441975200702503;-0.73980712890625;0.35589599609375;-0.50262451171875;-0.27105712890625;2.0519680214661298;17.645275762606765;6.677091790076522;1.19091796875;0.2109375;-0.26220703125;9.75;-47.0625;13.125;
1441975200733505;-0.74127197265625;0.35894775390625;-0.49847412109375;-0.27069091796875;2.1050354105467055;17.652559732544493;6.654942985879903;1.2529296875;0.1484375;-0.25390625;-3.125;-47.875;9.1875;
1441975200747506;-0.7420654296875;0.36236572265625;-0.4942626953125;-0.2716064453125;2.1509147297198;17.64837182483287;6.636815056890678;1.50732421875;0.17041015625;-0.36083984375;-10.1875;-41.625;11.4375;
1441975200776508;-0.7440185546875;0.36322021484375;-0.4901123046875;-0.272705078125;2.1975529582095157;17.617971522959664;6.655905299285744;1.45556640625;-0.00390625;-0.41455078125;-22.4375;-33.9375;-1.375;
