1441976034072169;0.00640869140625;-0.68548583984375;-0.72637939453125;-0.0504150390625;9.44977521257537;13.326813169982907;17.814669711645074;-0.08056640625;0.1044921875;0.22900390625;-64.8125;-5.75;-17.1875;
1441976034095171;0.01434326171875;-0.6715087890625;-0.738525390625;-0.059326171875;9.578839839435338;13.21792410249668;17.80300475615205;-0.01806640625;0.33984375;0.17041015625;-80.5625;-7.8125;-39.5;
1441976034116172;0.023681640625;-0.65753173828125;-0.74981689453125;-0.070556640625;9.737054805372685;13.110916873157302;17.78413479036692;-0.18701171875;0.3544921875;0.20556640625;-96.125;-6.25;-54.8125;
1441976034132173;0.03436279296875;-0.64642333984375;-0.75762939453125;-0.08441162109375;9.927493899613536;13.02745419600857;17.75743229664064;-0.2978515625;0.37451171875;0.19775390625;-95.0;-10.3125;-63.625;
1441976034155174;0.04547119140625;-0.63800048828125;-0.76226806640625;-0.09991455078125;10.134898560249447;12.965415836674149;17.724071019907875;-0.3974609375;0.39306640625;0.16357421875;-73.0625;-14.125;-75.75;
1441976034176175;0.05572509765625;-0.63226318359375;-0.76397705078125;-0.1163330078125;10.342889556390801;12.923784620018784;17.683383378395888;-0.484375;0.43994140625;0.1826171875;-49.5;-17.9375;-81.375;
1441976034192176;0.0657958984375;-0.6309814453125;-0.761474609375;-0.133544921875;10.558655027039556;12.915446445966309;17.64117338281536;-0.47509765625;0.375;0.2158203125;-23.6875;-22.0625;-84.25;
1441976034215177;0.0760498046875;-0.6331787109375;-0.7552490234375;-0.151611328125;10.78689478051661;12.934452635013786;17.59929641835559;-0.53125;0.3623046875;0.22216796875;11.5625;-21.5625;-85.875;
1441976034236179;0.08489990234375;-0.63714599609375;-0.74737548828125;-0.16845703125;10.997010398521534;12.967286165180615;17.56058239282392;-0.55126953125;0.38623046875;0.2197265625;40.0;-19.5;-92.25;
1441976034260180;0.09576416015625;-0.6392822265625;-0.74017333984375;-0.18536376953125;11.225550927757922;12.988553838419765;17.527512767558843;-0.5283203125;0.51513671875;0.14892578125;46.25;-16.8125;-104.6875;
1441976034275181;0.10919189453125;-0.6390380859375;-0.73394775390625;-0.2027587890625;11.479599761099978;12.994084669384108;17.498650730683973;-0.5693359375;0.54833984375;0.107421875;33.25;-10.375;-112.4375;
1441976034296182;0.125244140625;-0.63720703125;-0.72784423828125;-0.22064208984375;11.760879863838952;12.990736385099726;17.474793679377154;-0.67578125;0.53076171875;0.04296875;16.375;-5.25;-123.3125;
1441976034312183;0.1446533203125;-0.63177490234375;-0.7230224609375;-0.2392578125;12.076070296300015;12.963693207787813;17.45263109539392;-0.7783203125;0.60546875;-0.05419921875;4.5625;1.1875;-135.5;
1441976034337184;0.16644287109375;-0.624267578125;-0.71856689453125;-0.25750732421875;12.410235711822793;12.924502525802339;17.43499298395311;-0.82470703125;0.55029296875;-0.1005859375;-19.25;6.6875;-151.1875;
1441976034356186;0.1904296875;-0.6165771484375;-0.7125244140625;-0.27557373046875;12.767329353539735;12.890276942661117;17.424758023014046;-0.802734375;0.48974609375;-0.07275390625;-32.375;14.4375;-160.4375;
1441976034372186;0.2154541015625;-0.61004638671875;-0.70343017578125;-0.29443359375;13.147519037012389;12.872066576595792;17.41732841862562;-0.8447265625;0.462890625;-0.02197265625;-29.75;25.9375;-170.0625;
1441976034395188;0.240966796875;-0.60333251953125;-0.69244384765625;-0.3138427734375;13.542879194493755;12.858279202845658;17.40854399954259;-0.9248046875;0.47802734375;-0.10595703125;-16.375;31.6875;-180.875;
1441976034416189;0.26593017578125;-0.59588623046875;-0.67962646484375;-0.335205078125;13.954480413648417;12.838725027417244;17.38288813543804;-1.05517578125;0.56298828125;-0.13916015625;-11.3125;32.625;-188.8125;
1441976034432190;0.291748046875;-0.5865478515625;-0.666259765625;-0.35638427734375;14.378238256454237;12.80596214344786;17.351400450888153;-1.00927734375;0.62353515625;-0.162109375;-4.0625;24.9375;-201.5;
1441976034455191;0.3182373046875;-0.57568359375;-0.65228271484375;-0.37677001953125;14.808837251545661;12.761709650289736;17.315537656937497;-0.97265625;0.56982421875;-0.107421875;-10.875;26.8125;-209.125;
1441976034476192;0.34307861328125;-0.565673828125;-0.63641357421875;-0.3966064453125;15.229731247797249;12.722484708287954;17.27327048396938;-0.982421875;0.5322265625;-0.06689453125;-16.375;30.5625;-212.75;
1441976034492193;0.36572265625;-0.55609130859375;-0.6197509765625;-0.4158935546875;15.632221286023515;12.674970345778346;17.214452017233867;-0.97314453125;0.5283203125;-0.041015625;-4.125;32.1875;-209.375;
1441976034515195;0.3880615234375;-0.5455322265625;-0.603271484375;-0.43359375;16.02477121824438;12.60628134922662;17.141775740602615;-1.08447265625;0.51123046875;0.0029296875;4.4375;28.8125;-201.625;
1441976034544196;0.41009521484375;-0.5345458984375;-0.5859375;-0.4503173828125;16.41512618298464;12.513568691724291;17.045875012886583;-1.26806640625;0.544921875;-0.02001953125;-2.25;29.75;-197.125;
1441976034552197;0.42706298828125;-0.52740478515625;-0.5650634765625;-0.46923828125;16.784266069772233;12.399264858854764;16.88625270443953;-1.3251953125;0.4375;0.08837890625;-1.5625;34.375;-195.6875;
1441976034575198;0.43572998046875;-0.52593994140625;-0.5408935546875;-0.490966796875;17.101108173514085;12.227632591201512;16.61187094520111;-1.26611328125;0.31787109375;0.12744140625;40.375;30.1875;-187.375;
1441976034596199;0.43975830078125;-0.52655029296875;-0.5155029296875;-0.5135498046875;17.377008624275565;11.85868747629096;16.115223649729383;-1.33154296875;0.35400390625;0.13525390625;98.0625;18.25;-168.0625;
1441976034612200;0.4422607421875;-0.52734375;-0.49102783203125;-0.5341796875;17.600932153760652;11.03493474744879;15.1671196045546;-1.2958984375;0.53271484375;0.078125;123.1875;9.875;-159.125;
1441976034635201;0.4459228515625;-0.52618408203125;-0.46929931640625;-0.551513671875;17.720700529049857;9.118223298172826;13.152142223643574;-1.22216796875;0.638671875;0.07373046875;120.3125;9.5;-148.875;
1441976034656203;0.44940185546875;-0.52386474609375;-0.45062255859375;-0.566162109375;17.6570764656387;7.105347393942922;11.05996250566869;-1.14111328125;0.59912109375;0.0771484375;94.625;9.9375;-139.625;
1441976034672204;0.4505615234375;-0.52264404296875;-0.433837890625;-0.57940673828125;17.520395401262427;6.241831035194312;10.116546909266155;-1.08203125;0.46728515625;0.150390625;76.0625;7.4375;-123.625;
1441976034695205;0.44622802734375;-0.52471923828125;-0.4228515625;-0.58892822265625;17.446126001663046;6.101345122828893;9.89815803081396;-1.04296875;0.4521484375;0.205078125;76.8125;5.4375;-104.375;
1441976034716206;0.442626953125;-0.52703857421875;-0.41644287109375;-0.59405517578125;17.41675099163198;6.059836676633731;9.806052965285316;-1.01171875;0.54248046875;0.1884765625;74.25;5.9375;-85.5625;
1441976034732207;0.44403076171875;-0.52642822265625;-0.41650390625;-0.593505859375;17.412240667631846;6.0075064150160085;9.761301002698266;-0.93603515625;0.693359375;0.13134765625;46.625;6.4375;-71.25;
1441976034755208;0.4488525390625;-0.5238037109375;-0.4200439453125;-0.5897216796875;17.416857459415894;5.921378525265962;9.717910509932182;-0.861328125;0.6259765625;0.12158203125;-10.875;7.9375;-53.5;
1441976034776210;0.4537353515625;-0.521728515625;-0.42510986328125;-0.58416748046875;17.443225447080106;5.844840613842772;9.692224376565953;-0.86962890625;0.44189453125;0.12109375;-45.25;10.25;-36.3125;
1441976034792210;0.45721435546875;-0.52105712890625;-0.43121337890625;-0.57757568359375;17.495759966186224;5.816710684550058;9.712842022361972;-0.8408203125;0.361328125;0.09619140625;-52.75;12.375;-20.1875;
1441976034823212;0.45867919921875;-0.52166748046875;-0.43829345703125;-0.57049560546875;17.571174897044088;5.897192814750058;9.836753555050016;-0.85107421875;0.3388671875;0.06005859375;-50.0625;11.25;-4.0625;
1441976034836213;0.458251953125;-0.5235595703125;-0.4461669921875;-0.56292724609375;17.666281196526864;6.157994176017564;10.13547897293199;-0.8642578125;0.33056640625;0.03759765625;-44.125;8.5625;10.9375;
1441976034852214;0.4564208984375;-0.5262451171875;-0.4549560546875;-0.55487060546875;17.76774663116936;6.846989896045978;10.86006761104086;-0.86669921875;0.33544921875;0.01220703125;-38.1875;5.875;24.4375;
1441976034875215;0.45343017578125;-0.52935791015625;-0.4642333984375;-0.54656982421875;17.83533883843529;8.5826910278906;12.628792032139053;-0.88818359375;0.32958984375;-0.0068359375;-35.375;2.5;36.5625;
1441976034896216;0.44879150390625;-0.532958984375;-0.47344970703125;-0.5389404296875;17.794400202239114;10.782841539034536;14.85364719006375;-0.927734375;0.27685546875;-0.029296875;-32.6875;-1.125;48.4375;
1441976034912217;0.4417724609375;-0.5379638671875;-0.4818115234375;-0.53228759765625;17.67228754595764;11.863804071089534;15.943091355600346;-0.953125;0.2119140625;-0.03125;-24.0;-6.125;59.0625;
1441976034934219;0.43206787109375;-0.54486083984375;-0.4892578125;-0.52642822265625;17.512991029875575;12.358417306318142;16.4280229516176;-0.9541015625;0.177734375;-0.04150390625;-7.625;-9.8125;68.9375;
1441976034958220;0.42034912109375;-0.55316162109375;-0.4959716796875;-0.52099609375;17.333775958354057;12.628798697559866;16.675414968209154;-0.95703125;0.18115234375;-0.048828125;10.0625;-12.1875;78.5;
1441976034972221;0.4072265625;-0.5625;-0.50201416015625;-0.515625;17.142420556830327;12.80854459919145;16.822817978515012;-0.9697265625;0.1748046875;-0.05224609375;23.375;-13.375;87.875;
1441976034994222;0.3924560546875;-0.5723876953125;-0.5078125;-0.5103759765625;16.937268791838427;12.925949663967216;16.900147290871267;-0.9814453125;0.16357421875;-0.052734375;32.875;-13.3125;96.125;
1441976035018223;0.3770751953125;-0.58319091796875;-0.51312255859375;-0.50445556640625;16.723733897831263;13.038021365168028;16.967924902707782;-0.98779296875;0.1640625;-0.0400390625;40.6875;-11.25;103.0625;
1441976035032224;0.36187744140625;-0.59429931640625;-0.51806640625;-0.49755859375;16.507187886616762;13.14537582824751;17.031959412574086;-1.0009765625;0.18505859375;-0.037109375;45.4375;-6.875;108.0625;
1441976035054225;0.3475341796875;-0.60504150390625;-0.52301025390625;-0.48956298828125;16.291614070389322;13.242649367159729;17.092189947087174;-1.017578125;0.212890625;-0.04345703125;44.875;-1.5625;110.3125;
1441976035085227;0.33447265625;-0.61517333984375;-0.52813720703125;-0.48046875;16.079604827430796;13.330353844016306;17.151724708070176;-1.0322265625;0.23388671875;-0.033203125;39.3125;4.125;110.375;
1441976035092228;0.32318115234375;-0.6241455078125;-0.53387451171875;-0.47015380859375;15.873289883697272;13.404714261512856;17.21152040706335;-1.02880859375;0.2626953125;-0.0361328125;30.5625;9.6875;108.5625;
1441976035115229;0.3135986328125;-0.6319580078125;-0.54022216796875;-0.4588623046875;15.6735105923192;13.466062180207402;17.271207264570958;-1.01220703125;0.27001953125;-0.0263671875;18.0625;15.0;106.1875;
1441976035138230;0.30682373046875;-0.63824462890625;-0.54620361328125;-0.44744873046875;15.49987388892037;13.519983542318718;17.335649299038074;-0.9970703125;0.26953125;-0.0205078125;6.1875;20.125;102.75;
1441976035159231;0.3018798828125;-0.64337158203125;-0.55267333984375;-0.43536376953125;15.335987880182222;13.56433458931263;17.40289283078395;-0.9814453125;0.2744140625;-0.0205078125;-5.6875;24.875;98.625;
1441976035174232;0.299072265625;-0.647216796875;-0.55926513671875;-0.42303466796875;15.189068217604353;13.600935363399607;17.47388274579487;-0.9541015625;0.2900390625;-0.029296875;-16.8125;29.4375;93.0625;
1441976035198234;0.29827880859375;-0.64959716796875;-0.5660400390625;-0.4107666015625;15.060700571228441;13.627373541323973;17.545774256416582;-0.9541015625;0.30615234375;-0.04736328125;-27.6875;32.875;85.375;
1441976035219235;0.29937744140625;-0.65057373046875;-0.57275390625;-0.39886474609375;14.953168622700831;13.645445909532794;17.618258975937227;-0.94873046875;0.3193359375;-0.0634765625;-38.0625;34.875;75.8125;
1441976035234236;0.30206298828125;-0.650390625;-0.5791015625;-0.38787841796875;14.86874992302945;13.656849431370047;17.688929955887104;-0.9453125;0.3271484375;-0.07470703125;-46.6875;35.6875;65.75;
1441976035258237;0.3057861328125;-0.6494140625;-0.5848388671875;-0.37786865234375;14.803834100201081;13.664723397752141;17.757159495446743;-0.93359375;0.31103515625;-0.09033203125;-51.8125;35.1875;55.625;
1441976035279238;0.31036376953125;-0.6480712890625;-0.58966064453125;-0.368896484375;14.757256606482272;13.673919853767693;17.82482777948694;-0.90625;0.30224609375;-0.0927734375;-52.9375;34.125;46.125;
1441976035294239;0.31561279296875;-0.64630126953125;-0.5936279296875;-0.36102294921875;14.728099647715574;13.683419631054095;17.89045424409991;-0.88232421875;0.2939453125;-0.09912109375;-51.125;33.3125;36.625;
1441976035318241;0.32171630859375;-0.64404296875;-0.59686279296875;-0.3543701171875;14.718265560900793;13.692898645619254;17.954425648019658;-0.86083984375;0.2939453125;-0.10693359375;-49.1875;32.1875;27.6875;
1441976035339242;0.32830810546875;-0.64141845703125;-0.5992431640625;-0.34893798828125;14.725200492453755;13.703277126304899;0.01571929791840688;-0.84912109375;0.28173828125;-0.10302734375;-47.125;31.0625;18.375;
1441976035355243;0.33551025390625;-0.63848876953125;-0.60089111328125;-0.34466552734375;14.748561236213824;13.715345533440482;0.07582282545851401;-0.8427734375;0.27685546875;-0.09228515625;-44.1875;29.6875;9.5625;
1441976035378244;0.34320068359375;-0.63531494140625;-0.6016845703125;-0.34149169921875;14.787199149967371;13.730636774639354;0.1354710226442189;-0.8388671875;0.279296875;-0.095703125;-41.0625;28.375;1.0;
1441976035399245;0.3514404296875;-0.6318359375;-0.6016845703125;-0.339599609375;14.842850640630695;13.748570702263649;0.1940603152068463;-0.841796875;0.28564453125;-0.0986328125;-37.9375;27.125;-7.4375;
1441976035414246;0.360107421875;-0.6280517578125;-0.60089111328125;-0.33892822265625;14.914193512027671;13.769501777347063;0.2517261398348996;-0.86181640625;0.2958984375;-0.09765625;-34.4375;25.4375;-16.1875;
1441976035438247;0.3690185546875;-0.623779296875;-0.599609375;-0.33953857421875;15.000253935186949;13.789588137846895;0.30533615625026805;-0.8955078125;0.30419921875;-0.10546875;-31.25;23.125;-24.5;
1441976035459249;0.378173828125;-0.61920166015625;-0.5975341796875;-0.3414306640625;15.101307746960304;13.81275946566307;0.357367098762742;-0.91845703125;0.30810546875;-0.09326171875;-28.125;20.5625;-32.25;
1441976035474249;0.38671875;-0.6148681640625;-0.594482421875;-0.3450927734375;15.21371140286222;13.838596994968182;0.40128764890980434;-0.9423828125;0.28662109375;-0.08935546875;-24.0625;18.125;-38.5625;
1441976035498251;0.3936767578125;-0.61163330078125;-0.59014892578125;-0.350341796875;15.326990393043207;13.870805964451106;0.43514419192718085;-0.96240234375;0.24755859375;-0.06884765625;-14.125;13.875;-42.4375;
1441976035519252;0.399658203125;-0.60906982421875;-0.58514404296875;-0.35638427734375;15.438964914053363;13.907538495606012;0.464378749306272;-0.9658203125;0.2666015625;-0.04443359375;1.75;9.75;-44.5625;
1441976035534253;0.4052734375;-0.60650634765625;-0.58001708984375;-0.3626708984375;15.550716403094148;13.945026379699971;0.4922618525115832;-0.95654296875;0.29296875;-0.03759765625;10.8125;6.875;-46.8125;
1441976035558254;0.41107177734375;-0.60369873046875;-0.574951171875;-0.36883544921875;15.66334187767302;13.98497078423421;0.5244303095459282;-0.93603515625;0.31201171875;-0.01025390625;13.4375;6.8125;-50.1875;
1441976035579255;0.41748046875;-0.5999755859375;-0.5706787109375;-0.3743896484375;15.776640789191875;14.020818747745908;0.5610894230651973;-0.927734375;0.3203125;-9.765625E-4;11.6875;8.0;-52.875;
1441976035594256;0.4244384765625;-0.5953369140625;-0.5673828125;-0.37896728515625;15.88690178845556;14.051942113355969;0.6029881309431044;-0.9287109375;0.33984375;0.02001953125;4.5;10.0;-56.125;
1441976035618258;0.43218994140625;-0.58929443359375;-0.56536865234375;-0.382568359375;15.99729706544477;14.073085848988077;0.647837621835786;-0.93603515625;0.36181640625;0.0205078125;-5.75;10.8125;-57.75;
1441976035639259;0.44085693359375;-0.58209228515625;-0.5645751953125;-0.38494873046875;16.10556850669862;14.088723472683691;0.7002266923862703;-0.958984375;0.37255859375;0.03466796875;-18.1875;11.5625;-59.1875;
1441976035655260;0.4503173828125;-0.57366943359375;-0.56475830078125;-0.38623046875;16.21328205812937;14.099677659417576;0.7597058303035928;-0.98486328125;0.36474609375;0.02490234375;-31.25;12.1875;-59.0625;
1441976035678261;0.45989990234375;-0.5648193359375;-0.56561279296875;-0.38671875;16.315750807157052;14.108281393025395;0.8225630222744074;-0.98974609375;0.33935546875;0.02099609375;-43.625;13.1875;-58.25;
1441976035699262;0.46844482421875;-0.55645751953125;-0.56640625;-0.38751220703125;16.412559714473435;14.113175283770168;0.8761329589695107;-0.96923828125;0.30126953125;0.03076171875;-49.3125;13.6875;-55.125;
1441976035714263;0.474365234375;-0.55035400390625;-0.56610107421875;-0.38946533203125;16.495044657217587;14.119973073072368;0.9109254982656829;-0.958984375;0.23486328125;0.05078125;-44.5625;12.125;-48.625;
1441976035738265;0.4765625;-0.54736328125;-0.5645751953125;-0.39312744140625;16.55729105137582;14.11908794083074;0.9098435518391026;-0.9609375;0.23876953125;0.05615234375;-24.9375;7.6875;-41.5625;
1441976035759266;0.47674560546875;-0.5465087890625;-0.56292724609375;-0.39654541015625;16.59505354732744;14.116242752427029;0.8952254481310653;-0.9482421875;0.27783203125;0.056640625;2.3125;0.4375;-32.9375;
1441976035774267;0.47705078125;-0.54498291015625;-0.5628662109375;-0.3983154296875;16.61980158181882;14.09394363496292;0.872857751684118;-0.93994140625;0.39404296875;-0.0283203125;12.1875;-6.0625;-28.8125;
1441976035797268;0.47857666015625;-0.541259765625;-0.565185546875;-0.3983154296875;16.642616132277514;14.039079828970952;0.8397847997956216;-0.91748046875;0.48193359375;-0.08203125;-0.125;-10.25;-29.0;
1441976035819269;0.48162841796875;-0.534912109375;-0.56939697265625;-0.3970947265625;16.67309229301959;13.953721237671738;0.7971897036334283;-0.9189453125;0.478515625;-0.07763671875;-22.8125;-12.625;-27.6875;
1441976035834270;0.48504638671875;-0.528076171875;-0.573486328125;-0.396240234375;16.71095395794261;13.863630441636603;0.7508669455339896;-0.93359375;0.384765625;-0.05712890625;-43.75;-14.125;-24.875;
1441976035857271;0.487548828125;-0.5224609375;-0.5765380859375;-0.39617919921875;16.745728949010996;13.781628439950381;0.7011812169402525;-0.94482421875;0.275390625;-0.04248046875;-45.1875;-14.0625;-21.375;
1441976035879273;0.48919677734375;-0.518310546875;-0.578857421875;-0.3963623046875;16.771269813767915;13.712592110744483;0.6549442790305837;-0.93994140625;0.22412109375;-0.0400390625;-33.625;-14.0625;-17.375;
1441976035901274;0.49053955078125;-0.5145263671875;-0.581298828125;-0.39599609375;16.788143957116763;13.645314571218586;0.6105376527865287;-0.9462890625;0.228515625;-0.052734375;-24.625;-13.75;-13.25;
1441976035925275;0.49200439453125;-0.51043701171875;-0.584228515625;-0.39508056640625;16.80111841456214;13.571758265517325;0.5641098756905575;-0.96484375;0.2392578125;-0.05859375;-24.375;-13.1875;-10.125;
1441976035940276;0.49346923828125;-0.50628662109375;-0.5872802734375;-0.39404296875;16.812558900524444;13.495406317932245;0.5157723227529097;-0.974609375;0.21923828125;-0.04833984375;-28.75;-12.875;-7.1875;
1441976035955277;0.49432373046875;-0.50311279296875;-0.59002685546875;-0.39300537109375;16.815838899832528;13.428708206580332;0.4716414523230295;-0.97119140625;0.16064453125;-0.03173828125;-29.875;-12.25;-2.4375;
1441976035977278;0.4937744140625;-0.501953125;-0.591796875;-0.3924560546875;16.807039880037713;13.382511323949283;0.4339783465836753;-0.96826171875;0.09521484375;-0.021484375;-23.5625;-10.9375;5.3125;
1441976036000280;0.49151611328125;-0.50347900390625;-0.592529296875;-0.39227294921875;16.780399824615287;13.365844241114543;0.40913555920676853;-0.95458984375;0.046875;-0.01318359375;-9.75;-9.4375;15.0;
1441976036014280;0.48779296875;-0.50750732421875;-0.59222412109375;-0.3922119140625;16.737007161315198;13.38134932153688;0.40171595245851094;-0.9287109375;0.02783203125;-0.0166015625;7.25;-7.5625;24.6875;
1441976036037282;0.4827880859375;-0.51397705078125;-0.5909423828125;-0.391845703125;16.67519153665904;13.431249567061005;0.4160776948338303;-0.9150390625;0.02587890625;-0.02392578125;22.1875;-4.8125;33.875;
1441976036060283;0.47698974609375;-0.5220947265625;-0.58905029296875;-0.39111328125;16.599813210713783;13.501802879288368;0.44334877733758915;-0.91943359375;0.06201171875;-0.0478515625;35.1875;-1.75;41.4375;
1441976036081284;0.470703125;-0.53094482421875;-0.5867919921875;-0.39019775390625;16.517572329153193;13.577093439209673;0.4713087782576833;-0.92626953125;0.10107421875;-0.0703125;42.875;1.0;46.625;
1441976036097285;0.46417236328125;-0.5400390625;-0.58428955078125;-0.389404296875;16.434113746330258;13.649366851056433;0.4937234862721032;-0.94140625;0.1328125;-0.0908203125;46.6875;1.9375;48.875;
1441976036120286;0.457763671875;-0.548583984375;-0.58172607421875;-0.3887939453125;16.35572076094374;13.711970311386253;0.5076593582529229;-0.953125;0.16796875;-0.1025390625;48.75;1.375;48.0625;
1441976036134287;0.451416015625;-0.5565185546875;-0.5791015625;-0.38885498046875;16.28600616527591;13.762059481754038;0.508802741942122;-0.9462890625;0.1875;-0.11572265625;47.25;0.0;44.9375;
1441976036157289;0.4449462890625;-0.56414794921875;-0.576171875;-0.38970947265625;16.224237842989748;13.80481281411422;0.4998667579662735;-0.9365234375;0.1826171875;-0.0966796875;47.5;-1.8125;41.6875;
1441976036181290;0.438720703125;-0.57159423828125;-0.5726318359375;-0.39111328125;16.171325667062362;13.85070780021852;0.491868164373867;-0.91357421875;0.1787109375;-0.07861328125;49.8125;-2.6875;38.25;
1441976036201291;0.4327392578125;-0.57904052734375;-0.56829833984375;-0.39312744140625;16.127377236913652;13.903200145624128;0.487022627631993;-0.908203125;0.17724609375;-0.0546875;53.0;-0.875;34.6875;
1441976036217292;0.42718505859375;-0.58612060546875;-0.5634765625;-0.39556884765625;16.09290905473129;13.958262359874563;0.4843258644182763;-0.9326171875;0.1982421875;-0.041015625;56.6875;1.4375;29.75;
1441976036240293;0.42218017578125;-0.592529296875;-0.5584716796875;-0.3985595703125;16.070055614058287;14.01048737290526;0.48015929120849477;-0.94970703125;0.22314453125;-0.03857421875;57.5;2.5625;23.5625;
1441976036261294;0.41778564453125;-0.59796142578125;-0.5533447265625;-0.40228271484375;16.062035979699925;14.056664533919687;0.4720547931322095;-0.9580078125;0.25927734375;-0.0341796875;56.3125;2.25;16.125;
1441976036277295;0.41436767578125;-0.60186767578125;-0.54852294921875;-0.40643310546875;16.070127131214274;14.092609494665544;0.4606410729843622;-0.9423828125;0.28662109375;-0.0244140625;54.625;0.5625;7.0625;
1441976036300297;0.4122314453125;-0.60467529296875;-0.54400634765625;-0.41058349609375;16.09034529111092;14.127048444743282;0.4555724045414895;-0.92822265625;0.29541015625;-0.02490234375;47.5625;-1.625;-1.6875;
1441976036321298;0.4112548828125;-0.6060791015625;-0.53997802734375;-0.41473388671875;16.123031610268818;14.154547121057357;0.45247313673657863;-0.91259765625;0.3095703125;-0.0322265625;40.125;-1.625;-9.6875;
1441976036337299;0.4114990234375;-0.6060791015625;-0.5364990234375;-0.41900634765625;16.16920433825039;14.174348015819984;0.4506100151459869;-0.89697265625;0.318359375;-0.04052734375;31.0625;-2.6875;-17.3125;
1441976036360300;0.41259765625;-0.6051025390625;-0.533203125;-0.42352294921875;16.22669928738183;14.190494922701863;0.45028714137226766;-0.89306640625;0.31640625;-0.041015625;22.3125;-4.0;-24.3125;
1441976036381301;0.414306640625;-0.60345458984375;-0.52984619140625;-0.428466796875;16.29473176175456;14.205374396689953;0.4510588052172581;-0.8896484375;0.3154296875;-0.04931640625;17.0;-5.5625;-30.6875;
1441976036397302;0.4161376953125;-0.60125732421875;-0.52679443359375;-0.4334716796875;16.365951627258536;14.212611594719181;0.44685316928859187;-0.9013671875;0.31787109375;-0.06591796875;14.3125;-7.875;-36.25;
1441976036420304;0.419189453125;-0.5975341796875;-0.5242919921875;-0.43865966796875;16.45181226767638;14.20974598310237;0.44161358019752367;-0.91455078125;0.36376953125;-0.076171875;11.75;-10.5625;-41.25;
1441976036441305;0.42218017578125;-0.59332275390625;-0.52197265625;-0.44415283203125;16.541830209860436;14.195717707228594;0.426088335712546;-0.9404296875;0.310546875;-0.07763671875;1.875;-12.875;-45.4375;
1441976036457306;0.42498779296875;-0.58880615234375;-0.5196533203125;-0.4501953125;16.636717146748012;14.169599353294219;0.3972530383335639;-0.97314453125;0.31982421875;-0.0791015625;1.0;-16.0625;-47.75;
1441976036480307;0.42718505859375;-0.584228515625;-0.5174560546875;-0.45660400390625;16.730782220289353;14.125062603425953;0.34769525171420557;-1.00537109375;0.2890625;-0.06103515625;2.0;-18.375;-47.9375;
1441976036501308;0.42816162109375;-0.58026123046875;-0.5152587890625;-0.46319580078125;16.81563198460765;14.061646531734684;0.27341333847056476;-1.01953125;0.2392578125;-0.0341796875;4.0;-20.4375;-44.625;
1441976036517309;0.42755126953125;-0.577880859375;-0.5125732421875;-0.4696044921875;16.882730472684454;13.997586185365417;0.1884032237621504;-1.02294921875;0.2060546875;0.00927734375;10.0625;-20.875;-38.125;
1441976036540310;0.4259033203125;-0.5767822265625;-0.5098876953125;-0.47540283203125;16.931765604590932;13.935593549723606;0.1005149309735104;-1.00927734375;0.19873046875;0.029296875;19.9375;-18.5;-29.8125;
1441976036561312;0.4239501953125;-0.57635498046875;-0.5078125;-0.4798583984375;16.962700536090264;13.879460293060028;0.02124642333325239;-0.9912109375;0.20947265625;0.0361328125;25.0;-15.9375;-23.375;
1441976036577313;0.42303466796875;-0.57550048828125;-0.50726318359375;-0.4822998046875;16.98080832542005;13.828218071012735;17.96126633191809;-0.95751953125;0.2666015625;0.01171875;22.5625;-14.1875;-19.5;
1441976036600314;0.4239501953125;-0.5732421875;-0.5086669921875;-0.48272705078125;16.994208740723188;13.772235423408103;17.917284387770938;-0.9326171875;0.30712890625;-0.0244140625;7.625;-12.0;-17.625;
1441976036621315;0.42596435546875;-0.57000732421875;-0.51129150390625;-0.48199462890625;17.005514368796938;13.709446831594919;17.87931417614467;-0.9248046875;0.2978515625;-0.03173828125;-12.4375;-9.75;-15.375;
1441976036637316;0.42791748046875;-0.56719970703125;-0.5137939453125;-0.48089599609375;17.012291194006337;13.660127801132758;17.85408948470294;-0.92822265625;0.255859375;-0.03271484375;-25.5625;-8.5;-11.75;
1441976036660317;0.42889404296875;-0.56549072265625;-0.51556396484375;-0.4801025390625;17.012949212983866;13.624123943961724;17.833194640167818;-0.9375;0.21435546875;-0.0537109375;-25.0;-7.6875;-6.6875;
1441976036681319;0.428466796875;-0.565185546875;-0.5166015625;-0.47979736328125;17.004460643992974;13.598370757466334;17.810947048019433;-0.943359375;0.189453125;-0.06201171875;-16.0625;-7.5;-1.6875;
1441976036697319;0.42681884765625;-0.56597900390625;-0.5172119140625;-0.4796142578125;16.985687934776628;13.580832020057048;17.78861318155674;-0.95068359375;0.18896484375;-0.0751953125;-4.8125;-8.25;2.75;
1441976036719321;0.42437744140625;-0.5675048828125;-0.51776123046875;-0.4793701171875;16.95812148182545;13.567894365102784;17.766467966079226;-0.951171875;0.20458984375;-0.0869140625;3.5;-9.3125;7.0;
1441976036741322;0.42138671875;-0.5694580078125;-0.51849365234375;-0.47894287109375;16.922793920593257;13.55559703468412;17.743186308413943;-0.9560546875;0.216796875;-0.0888671875;7.75;-9.5;11.0625;
1441976036757323;0.418212890625;-0.57159423828125;-0.5194091796875;-0.47821044921875;16.882521638436103;13.546573788970036;17.723503918309707;-0.96240234375;0.22314453125;-0.08203125;9.5625;-9.375;14.6875;
1441976036779324;0.41497802734375;-0.57366943359375;-0.52069091796875;-0.4771728515625;16.838300916218156;13.53542700475628;17.703610746524603;-0.970703125;0.22509765625;-0.0849609375;9.0625;-9.0;17.875;
1441976036801325;0.4114990234375;-0.57586669921875;-0.522216796875;-0.47576904296875;16.788340702903255;13.525758638745321;17.68584978571176;-0.96533203125;0.21484375;-0.0712890625;7.5;-8.4375;21.1875;
1441976036817326;0.407958984375;-0.57843017578125;-0.52386474609375;-0.47393798828125;16.73298071638739;13.52560502491426;17.67794667182193;-0.9560546875;0.2021484375;-0.05517578125;6.75;-7.0625;25.0625;
1441976036839328;0.40435791015625;-0.5814208984375;-0.52545166015625;-0.47161865234375;16.67256806455347;13.537826814856167;17.682202749949383;-0.94091796875;0.1875;-0.05126953125;6.625;-4.875;29.25;
1441976036863329;0.4005126953125;-0.5848388671875;-0.52703857421875;-0.4688720703125;16.605906445993565;13.557508134690973;17.693161076477047;-0.9365234375;0.173828125;-0.0498046875;7.625;-2.1875;33.375;
1441976036877330;0.396728515625;-0.58856201171875;-0.52850341796875;-0.4658203125;16.5369124776424;13.585001554632223;17.71173183797046;-0.94384765625;0.17626953125;-0.04931640625;8.1875;0.3125;37.125;
1441976036899331;0.39276123046875;-0.5927734375;-0.52972412109375;-0.46246337890625;16.46365921851579;13.620712146178464;17.7366993491254;-0.95947265625;0.158203125;-0.0458984375;8.5625;2.6875;40.5625;
1441976036923332;0.38861083984375;-0.5975341796875;-0.53057861328125;-0.45880126953125;16.386331383444237;13.665549336668873;17.76842452953993;-0.9716796875;0.1630859375;-0.0458984375;11.125;5.25;43.3125;
1441976036937333;0.384521484375;-0.6025390625;-0.5313720703125;-0.4547119140625;16.305467357336102;13.714379280879909;17.804608480433135;-0.9755859375;0.17822265625;-0.0498046875;13.4375;8.3125;45.0;
1441976036959334;0.38079833984375;-0.607421875;-0.5322265625;-0.4503173828125;16.224864763959232;13.762685609891589;17.84271313258319;-0.96630859375;0.20654296875;-0.05029296875;13.5625;11.0;45.6875;
1441976036983336;0.3775634765625;-0.612060546875;-0.5330810546875;-0.44580078125;16.147343429176154;13.809450557826516;17.88175417506217;-0.955078125;0.208984375;-0.04296875;11.3125;13.4375;45.375;
1441976037004337;0.3746337890625;-0.6165771484375;-0.53387451171875;-0.44110107421875;16.07096692484027;13.85577622115337;17.921917832399274;-0.9443359375;0.21044921875;-0.04150390625;9.125;15.5;44.375;
1441976037019338;0.37225341796875;-0.6207275390625;-0.53466796875;-0.436279296875;15.99854067824003;13.90024066117365;17.963229739871903;-0.93408203125;0.234375;-0.03515625;8.375;17.5625;42.3125;
1441976037043339;0.37066650390625;-0.62420654296875;-0.53564453125;-0.431396484375;15.932683132390729;13.939978640283053;0.004824613530124933;-0.927734375;0.25537109375;-0.0380859375;5.4375;19.1875;39.3125;
1441976037064340;0.3697509765625;-0.626953125;-0.5367431640625;-0.4267578125;15.875437559307425;13.973097827935321;0.04359706403145017;-0.92431640625;0.271484375;-0.04345703125;0.875;19.6875;35.25;
1441976037079341;0.36944580078125;-0.629150390625;-0.537841796875;-0.4224853515625;15.82699635248531;14.002016540200874;0.08057999789833362;-0.91748046875;0.27392578125;-0.04443359375;-3.125;19.25;31.125;
1441976037103343;0.36968994140625;-0.6307373046875;-0.53875732421875;-0.418701171875;15.788986556072071;14.027585181677834;0.11569797730989712;-0.90673828125;0.2744140625;-0.05029296875;-5.8125;18.3125;26.8125;
1441976037124344;0.37030029296875;-0.63177490234375;-0.53936767578125;-0.41571044921875;15.762797124505362;14.049264251215355;0.14646793511606668;-0.90869140625;0.27197265625;-0.060546875;-7.1875;16.8125;22.125;
1441976037139345;0.37127685546875;-0.6324462890625;-0.53961181640625;-0.41363525390625;15.748711407248429;14.069009478372093;0.1738223841656219;-0.912109375;0.27001953125;-0.0576171875;-6.75;14.75;17.0;
1441976037162346;0.372314453125;-0.63275146484375;-0.53936767578125;-0.41253662109375;15.74590830953063;14.086098198268974;0.19553542787230302;-0.91455078125;0.2734375;-0.0654296875;-5.8125;12.25;11.4375;
1441976037184347;0.37335205078125;-0.63275146484375;-0.53857421875;-0.41253662109375;15.754925676987497;14.100898424206479;0.2110956132946547;-0.91259765625;0.27001953125;-0.0634765625;-3.25;9.1875;6.0625;
1441976037199348;0.374267578125;-0.63262939453125;-0.537353515625;-0.41357421875;15.773244036396179;14.113239919943855;0.22000251540033613;-0.9140625;0.26806640625;-0.05615234375;0.375;6.25;0.875;
1441976037223350;0.3751220703125;-0.63232421875;-0.53558349609375;-0.41546630859375;15.800639828098912;14.125236999650289;0.2248481356062561;-0.90771484375;0.2734375;-0.05029296875;4.5625;3.25;-3.9375;
1441976037237350;0.3759765625;-0.6318359375;-0.5335693359375;-0.4180908203125;15.83542992228807;14.134835071557504;0.22505583480031438;-0.90087890625;0.2802734375;-0.04736328125;7.75;0.8125;-8.8125;
1441976037259352;0.37689208984375;-0.63092041015625;-0.531494140625;-0.42132568359375;15.877654526689179;14.13915727649206;0.21950600033344417;-0.88916015625;0.2880859375;-0.04150390625;9.75;-1.5;-13.4375;
1441976037291353;0.3780517578125;-0.6295166015625;-0.52935791015625;-0.425048828125;15.927761914270144;14.139396688203194;0.21045919974617636;-0.8857421875;0.3017578125;-0.0361328125;10.3125;-3.875;-18.0625;
1441976037304354;0.3795166015625;-0.6275634765625;-0.52728271484375;-0.42913818359375;15.985032854537327;14.134545612377815;0.19797117808743725;-0.8876953125;0.30419921875;-0.0361328125;9.5625;-6.3125;-22.375;
1441976037319355;0.38128662109375;-0.62530517578125;-0.5250244140625;-0.43365478515625;16.049543985044807;14.128576621996316;0.1844336134192813;-0.8974609375;0.31298828125;-0.04638671875;7.4375;-8.5625;-26.4375;
1441976037342356;0.38336181640625;-0.622314453125;-0.52294921875;-0.43853759765625;16.12167024491303;14.113676211021195;0.16448116338568292;-0.91015625;0.30908203125;-0.052734375;6.9375;-10.6875;-29.9375;
1441976037364358;0.38555908203125;-0.61907958984375;-0.52069091796875;-0.44390869140625;16.200044453876366;14.095157449297;0.1400804866922365;-0.92333984375;0.30517578125;-0.04541015625;4.5;-12.8125;-33.75;
1441976037379358;0.387451171875;-0.61566162109375;-0.51837158203125;-0.44964599609375;16.280435109123264;14.06831647476211;0.10574193003789459;-0.94140625;0.296875;-0.0556640625;4.6875;-15.1875;-36.4375;
1441976037403360;0.38922119140625;-0.6123046875;-0.51580810546875;-0.4556884765625;16.36280304250407;14.038719959328198;0.0665512191314739;-0.9482421875;0.29833984375;-0.04150390625;6.375;-16.9375;-38.3125;
1441976037424361;0.39080810546875;-0.60888671875;-0.51312255859375;-0.46185302734375;16.445560221237415;14.003607711266563;0.02075146239686133;-0.94970703125;0.28857421875;-0.03662109375;8.1875;-18.25;-39.375;
1441976037439362;0.39208984375;-0.60565185546875;-0.510498046875;-0.46795654296875;16.524509099141483;13.962643641083492;17.968036853089743;-0.9462890625;0.275390625;-0.03076171875;9.25;-18.9375;-39.25;
1441976037462363;0.39300537109375;-0.6026611328125;-0.50787353515625;-0.4737548828125;16.597485535175643;13.918451463701317;17.911130190006276;-0.93701171875;0.26025390625;-0.0224609375;10.1875;-18.9375;-37.875;
1441976037484364;0.39385986328125;-0.60003662109375;-0.50537109375;-0.47900390625;16.66348634712238;13.876906592044186;17.857559332902415;-0.92822265625;0.25439453125;-0.00830078125;11.375;-17.875;-35.75;
1441976037499365;0.39471435546875;-0.59771728515625;-0.50311279296875;-0.483642578125;16.722324756042653;13.837975758447278;17.80817929469528;-0.92724609375;0.255859375;-0.01123046875;11.125;-16.0;-33.5;
1441976037523367;0.395751953125;-0.59539794921875;-0.501220703125;-0.487548828125;16.775400075301544;13.800269102517898;17.763663448576008;-0.9404296875;0.26416015625;-0.017578125;9.1875;-14.0;-31.5;
1441976037544368;0.39703369140625;-0.59320068359375;-0.49981689453125;-0.49066162109375;16.82156531436004;13.76627710224517;17.72691008532793;-0.94677734375;0.26904296875;-0.0166015625;5.8125;-12.5;-29.875;
1441976037559369;0.3984375;-0.59112548828125;-0.49884033203125;-0.4930419921875;16.86086900894402;13.735935606752268;17.697116652326375;-0.951171875;0.28173828125;-0.037109375;2.0;-11.0625;-28.0625;
1441976037583370;0.39996337890625;-0.589111328125;-0.49822998046875;-0.49481201171875;16.894784088619126;13.708644688277015;17.673329990490608;-0.9443359375;0.28564453125;-0.04443359375;-1.6875;-9.5625;-25.875;
1441976037604371;0.40142822265625;-0.5872802734375;-0.4979248046875;-0.49609375;16.92268190579814;13.684096501543648;17.653841599164096;-0.9482421875;0.28515625;-0.044921875;-4.1875;-8.25;-23.3125;
1441976037619372;0.40283203125;-0.58575439453125;-0.49774169921875;-0.49688720703125;16.94499083637619;13.668106312650746;17.643576202289857;-0.94677734375;0.27978515625;-0.052734375;-5.8125;-7.3125;-20.75;
1441976037643374;0.4041748046875;-0.58441162109375;-0.49798583984375;-0.49725341796875;16.961074768932196;13.653244843801858;17.63621792698762;-0.951171875;0.28466796875;-0.06494140625;-6.75;-6.375;-18.375;
1441976037664375;0.40545654296875;-0.58306884765625;-0.4984130859375;-0.4971923828125;16.9731758820978;13.640656301996938;17.63262556821729;-0.9501953125;0.28759765625;-0.0634765625;-8.125;-5.625;-16.0;
1441976037679376;0.40655517578125;-0.58197021484375;-0.4991455078125;-0.49688720703125;16.979761045990806;13.628351791075513;17.629697287258853;-0.93701171875;0.27294921875;-0.06494140625;-9.6875;-5.0;-13.1875;
1441976037702377;0.40740966796875;-0.5814208984375;-0.50006103515625;-0.49603271484375;16.977777487409814;13.6279294878203;17.638459983638228;-0.92578125;0.25927734375;-0.05859375;-9.9375;-4.125;-9.75;
1441976037715378;0.408203125;-0.5809326171875;-0.501220703125;-0.49462890625;16.970456411856343;13.632008364533522;17.653573892616333;-0.9306640625;0.2734375;-0.06982421875;-9.8125;-2.875;-6.375;
1441976037739379;0.40899658203125;-0.58056640625;-0.50274658203125;-0.49298095703125;16.959055516012864;13.635617903355143;17.66967842723923;-0.9482421875;0.27392578125;-0.0712890625;-11.625;-1.5625;-3.625;
1441976037753380;0.4095458984375;-0.58056640625;-0.5042724609375;-0.490966796875;16.9420437209482;13.647437451201583;17.69323788317491;-0.962890625;0.26904296875;-0.0615234375;-12.6875;-0.375;-0.75;
1441976037777381;0.4097900390625;-0.5809326171875;-0.50579833984375;-0.48870849609375;16.91973274982817;13.664276184453707;17.720553261935237;-0.95947265625;0.25732421875;-0.0595703125;-12.0625;1.0625;2.625;
1441976037799382;0.40972900390625;-0.58184814453125;-0.5074462890625;-0.48590087890625;16.88861067251666;13.690721334133189;17.75691398440086;-0.95947265625;0.24560546875;-0.05078125;-10.5625;2.9375;6.6875;
1441976037813383;0.40972900390625;-0.5830078125;-0.50946044921875;-0.48248291015625;16.850747371017267;13.72214830034247;17.80055335268746;-0.962890625;0.2470703125;-0.04443359375;-9.75;5.3125;10.75;
1441976037835385;0.40997314453125;-0.5841064453125;-0.511962890625;-0.478271484375;16.806958464865698;13.755419750651043;17.850577967315196;-0.9619140625;0.25146484375;-0.04638671875;-11.75;7.875;14.375;
1441976037859386;0.4105224609375;-0.585205078125;-0.51483154296875;-0.47332763671875;16.75820680339897;13.79227668460645;17.90822518754354;-0.95654296875;0.2470703125;-0.04345703125;-16.125;10.1875;17.8125;
1441976037873387;0.41094970703125;-0.58648681640625;-0.517822265625;-0.468017578125;16.70443706985054;13.828673957130984;17.965925257628633;-0.95947265625;0.232421875;-0.044921875;-19.5625;12.75;21.4375;
1441976037897388;0.4112548828125;-0.58819580078125;-0.52081298828125;-0.4622802734375;16.644461559890843;13.86958399696172;0.027788762634861706;-0.9521484375;0.220703125;-0.03466796875;-20.3125;14.9375;25.3125;
1441976037919389;0.4112548828125;-0.59033203125;-0.52374267578125;-0.456298828125;16.578609921534024;13.910956852365853;0.0885268908721939;-0.94970703125;0.2109375;-0.041015625;-19.4375;16.875;29.0;
1441976037933390;0.4110107421875;-0.59271240234375;-0.52655029296875;-0.4500732421875;16.508454135646847;13.951680111518206;0.1475282217237666;-0.947265625;0.2119140625;-0.04150390625;-17.9375;18.3125;32.25;
1441976037964392;0.41058349609375;-0.5953369140625;-0.529296875;-0.4437255859375;16.434905686133618;13.99039236415135;0.20347319567050018;-0.9482421875;0.212890625;-0.04931640625;-16.625;19.375;34.8125;
1441976037978393;0.4100341796875;-0.59814453125;-0.53192138671875;-0.43731689453125;16.35934515910846;14.02748757358005;0.2567554382006006;-0.953125;0.22216796875;-0.05029296875;-15.375;20.0;36.6875;
1441976037993394;0.40936279296875;-0.600830078125;-0.53448486328125;-0.4310302734375;16.284573280878757;14.058246798230279;0.3031775170362237;-0.958984375;0.22412109375;-0.06591796875;-14.6875;20.125;37.9375;
1441976038015395;0.4088134765625;-0.6033935546875;-0.5369873046875;-0.4248046875;16.21157343330548;14.086154378086489;0.34713259146907066;-0.95654296875;0.23388671875;-0.0654296875;-14.25;19.9375;38.0;
1441976038039396;0.4083251953125;-0.60577392578125;-0.53936767578125;-0.41888427734375;16.14243598237338;14.10987320880305;0.3864062766646111;-0.95751953125;0.2373046875;-0.07177734375;-14.375;19.5;37.3125;
1441976038053397;0.40789794921875;-0.60791015625;-0.54156494140625;-0.413330078125;16.078245479100183;14.129937791202652;0.42134616099861283;-0.9521484375;0.240234375;-0.0712890625;-14.1875;18.75;36.1875;
1441976038075398;0.40740966796875;-0.6099853515625;-0.54345703125;-0.40826416015625;16.01871879884966;14.14814367032631;0.4521549912773678;-0.94775390625;0.23583984375;-0.07470703125;-13.1875;17.875;34.625;
1441976038099400;0.406982421875;-0.61187744140625;-0.5450439453125;-0.4036865234375;15.965226677677197;14.164963198838578;0.48000744214412494;-0.9423828125;0.236328125;-0.07080078125;-11.4375;16.9375;32.8125;
1441976038113400;0.40667724609375;-0.61358642578125;-0.54644775390625;-0.3995361328125;15.9172285245267;14.180202127166346;0.5054255297741365;-0.93212890625;0.2431640625;-0.068359375;-9.5625;16.1875;30.25;
1441976038136402;0.4066162109375;-0.61492919921875;-0.547607421875;-0.3958740234375;15.877100919613202;14.194129785888354;0.529201949229144;-0.9326171875;0.251953125;-0.068359375;-8.625;15.25;27.0625;
1441976038159403;0.4068603515625;-0.6158447265625;-0.5487060546875;-0.3927001953125;15.84492753967638;14.205114515775152;0.5506064960842589;-0.92724609375;0.26123046875;-0.07080078125;-8.5;14.0625;23.5;
1441976038181404;0.40740966796875;-0.6163330078125;-0.549560546875;-0.39007568359375;15.821801161417149;14.215123591340392;0.5708815604206714;-0.9248046875;0.25830078125;-0.06787109375;-9.125;12.75;19.6875;
1441976038197405;0.40826416015625;-0.616455078125;-0.55023193359375;-0.38812255859375;15.80815309117543;14.223653714452409;0.58918127558217;-0.92236328125;0.2587890625;-0.078125;-9.25;11.0625;15.75;
1441976038219406;0.40924072265625;-0.6162109375;-0.5506591796875;-0.38677978515625;15.802748919640923;14.23042212787916;0.604662413453599;-0.923828125;0.26123046875;-0.076171875;-8.6875;9.4375;11.5625;
1441976038241408;0.4105224609375;-0.6156005859375;-0.55078125;-0.38629150390625;15.808677789442484;14.23660084904777;0.6181607246079824;-0.92333984375;0.2607421875;-0.0751953125;-7.9375;7.4375;7.375;
1441976038257409;0.41168212890625;-0.61480712890625;-0.550537109375;-0.3865966796875;15.822388756623475;14.241235820623023;0.6269158870699358;-0.92578125;0.25146484375;-0.0771484375;-6.375;5.3125;3.1875;
1441976038278410;0.412841796875;-0.61395263671875;-0.5498046875;-0.38775634765625;15.84469068281782;14.247205825521716;0.6332844156907181;-0.923828125;0.24853515625;-0.06298828125;-3.5;3.3125;-0.625;
1441976038293411;0.41400146484375;-0.6131591796875;-0.5487060546875;-0.389404296875;15.871614849955568;14.255654300551955;0.6394736241010637;-0.92578125;0.24560546875;-0.0634765625;-0.125;1.625;-4.25;
1441976038315412;0.4150390625;-0.61212158203125;-0.5474853515625;-0.3916015625;15.904020982787253;14.260546928931927;0.6405128053172736;-0.923828125;0.25732421875;-0.0712890625;2.6875;-0.0625;-7.8125;
1441976038339413;0.41632080078125;-0.6107177734375;-0.5462646484375;-0.39410400390625;15.942198795551349;14.263541487520195;0.640557712408387;-0.92724609375;0.2763671875;-0.0673828125;4.0;-2.0;-11.4375;
1441976038353414;0.41796875;-0.60882568359375;-0.54510498046875;-0.39691162109375;15.987289123014497;14.26400296317449;0.6398640697949507;-0.92724609375;0.28466796875;-0.07080078125;3.375;-3.6875;-15.375;
1441976038375415;0.41986083984375;-0.60638427734375;-0.5440673828125;-0.400146484375;16.039790250326007;14.259007905020148;0.6351501911618642;-0.9228515625;0.2861328125;-0.0791015625;0.9375;-5.5625;-19.0625;
1441976038398417;0.42181396484375;-0.603759765625;-0.54278564453125;-0.40374755859375;16.09730627535108;14.253997730337941;0.6293572702593784;-0.92138671875;0.279296875;-0.068359375;-0.375;-7.3125;-22.4375;
1441976038421418;0.42364501953125;-0.60101318359375;-0.54144287109375;-0.40771484375;16.15796257893575;14.245402405006237;0.6187447808449156;-0.91845703125;0.27392578125;-0.0732421875;0.4375;-8.875;-25.0625;
1441976038435419;0.425537109375;-0.59808349609375;-0.53997802734375;-0.4119873046875;16.222750668717534;14.235115283426374;0.6059172183434675;-0.91748046875;0.27783203125;-0.068359375;1.4375;-10.4375;-27.625;
1441976038458420;0.42742919921875;-0.594970703125;-0.5384521484375;-0.41644287109375;16.29020511350604;14.222123945256737;0.5902092060638487;-0.92236328125;0.279296875;-0.0673828125;1.9375;-11.625;-29.6875;
1441976038481421;0.42919921875;-0.59185791015625;-0.536865234375;-0.42108154296875;16.35860413905277;14.206373433107048;0.5706871132693322;-0.92431640625;0.271484375;-0.06884765625;2.1875;-12.875;-31.125;
1441976038495422;0.43072509765625;-0.58880615234375;-0.53521728515625;-0.42584228515625;16.426468171888946;14.18703918224696;0.5461676303701997;-0.927734375;0.26953125;-0.064453125;3.0;-13.9375;-32.0625;
1441976038518424;0.4322509765625;-0.5858154296875;-0.5335693359375;-0.4305419921875;16.49341244096161;14.166770126667059;0.5207218754826907;-0.93017578125;0.26953125;-0.0615234375;4.0625;-14.5625;-32.5;
1441976038541425;0.43353271484375;-0.5828857421875;-0.53192138671875;-0.4351806640625;16.55817254032459;14.142559518789174;0.4906197559586282;-0.93212890625;0.26513671875;-0.06298828125;4.4375;-14.875;-32.3125;
1441976038555426;0.43463134765625;-0.5802001953125;-0.5302734375;-0.439697265625;16.619495159781952;14.117173802602437;0.4584656828385386;-0.93701171875;0.26171875;-0.05615234375;4.9375;-15.0;-31.6875;
1441976038578427;0.435546875;-0.5777587890625;-0.5286865234375;-0.44390869140625;16.675794616536354;14.091222077260845;0.42556358350233925;-0.94287109375;0.2587890625;-0.0537109375;5.625;-14.75;-30.625;
1441976038601428;0.43634033203125;-0.57550048828125;-0.52716064453125;-0.4478759765625;16.728208055626176;14.064482528429213;0.3918712355023558;-0.95166015625;0.2587890625;-0.05859375;6.0;-14.25;-28.875;
1441976038615429;0.43682861328125;-0.573486328125;-0.52581787109375;-0.45147705078125;16.774029276813014;14.034504874346112;0.3549260805611864;-0.955078125;0.25732421875;-0.05859375;6.0;-13.75;-26.9375;
1441976038638430;0.4371337890625;-0.5718994140625;-0.524658203125;-0.45465087890625;16.812392636186544;14.00622872629754;0.3196880953872123;-0.9560546875;0.2490234375;-0.05078125;6.0;-12.9375;-24.3125;
1441976038661432;0.437255859375;-0.57061767578125;-0.5235595703125;-0.45733642578125;16.844143716909727;13.981571008839044;0.2882201886207047;-0.9599609375;0.25;-0.0517578125;6.1875;-11.8125;-21.1875;
1441976038675433;0.43707275390625;-0.56988525390625;-0.52252197265625;-0.4595947265625;16.867689612206647;13.962248484560849;0.2610250871299138;-0.9580078125;0.2392578125;-0.04736328125;6.3125;-10.25;-17.75;
1441976038698434;0.43658447265625;-0.56964111328125;-0.521728515625;-0.4613037109375;16.88177774126883;13.946335118849955;0.23722949969616375;-0.95849609375;0.2353515625;-0.0458984375;6.875;-8.4375;-13.875;
1441976038721435;0.4359130859375;-0.56988525390625;-0.52099609375;-0.46240234375;16.887515834040997;13.94025684187245;0.22324463758819763;-0.95068359375;0.23779296875;-0.0458984375;7.375;-6.5625;-10.0625;
1441976038737436;0.43511962890625;-0.570556640625;-0.52056884765625;-0.46282958984375;16.884120345541533;13.940773719372395;0.21707718447697633;-0.9501953125;0.23876953125;-0.04736328125;7.3125;-4.375;-6.0625;
1441976038758437;0.43426513671875;-0.571533203125;-0.5203857421875;-0.462646484375;16.87333235015116;13.947437793404397;0.21844701075263556;-0.9453125;0.244140625;-0.04833984375;6.5;-2.4375;-2.5;
1441976038773438;0.43341064453125;-0.57269287109375;-0.52044677734375;-0.4619140625;16.85660221560425;13.95848065572088;0.2259361049005533;-0.94189453125;0.25;-0.04736328125;5.0625;-0.375;0.6875;
1441976038795439;0.4326171875;-0.5740966796875;-0.52069091796875;-0.460693359375;16.83458596727448;13.975627395761595;0.2409327696012206;-0.94189453125;0.2529296875;-0.04931640625;3.6875;1.4375;3.5625;
1441976038818441;0.431884765625;-0.57562255859375;-0.5211181640625;-0.458984375;16.807946484840816;13.99667194444037;0.26156843272511615;-0.939453125;0.25244140625;-0.05908203125;2.1875;3.0625;6.1875;
1441976038833442;0.43115234375;-0.57720947265625;-0.521728515625;-0.4569091796875;16.77752375843754;14.018224552917271;0.2841031160115096;-0.935546875;0.25390625;-0.05859375;0.6875;4.6875;8.1875;
1441976038855443;0.4305419921875;-0.578857421875;-0.52252197265625;-0.45458984375;16.744827212745943;14.040459876873939;0.30874144737119563;-0.9248046875;0.2587890625;-0.05419921875;-0.625;5.9375;9.9375;
1441976038878444;0.43017578125;-0.58038330078125;-0.5234375;-0.451904296875;16.710943008783175;14.064655919632392;0.33778909422568393;-0.931640625;0.2568359375;-0.064453125;-2.1875;6.5;11.1875;
1441976038893445;0.429931640625;-0.58184814453125;-0.52447509765625;-0.44903564453125;16.67614182583378;14.08803170657165;0.36742687976857286;-0.92919921875;0.2578125;-0.06689453125;-4.25;7.75;12.1875;
1441976038915446;0.42974853515625;-0.583251953125;-0.52569580078125;-0.44598388671875;16.63985592554908;14.108831605847616;0.39590081844074326;-0.935546875;0.25;-0.0673828125;-5.875;8.375;13.125;
1441976038938448;0.42962646484375;-0.58465576171875;-0.52685546875;-0.44287109375;16.60358627815934;14.130519404464465;0.42543787040025205;-0.93359375;0.25439453125;-0.06591796875;-7.0625;9.0625;14.0625;
1441976038953448;0.42950439453125;-0.5859375;-0.5281982421875;-0.439697265625;16.566789416562134;14.14736369121507;0.45119418025473423;-0.9423828125;0.24755859375;-0.06640625;-7.375;9.6875;14.9375;
1441976038984450;0.4293212890625;-0.5872802734375;-0.5294189453125;-0.4365234375;16.529701678039306;14.164839790365171;0.4768729542609011;-0.93798828125;0.24072265625;-0.0517578125;-7.9375;10.25;15.8125;
1441976038998451;0.4290771484375;-0.58868408203125;-0.5306396484375;-0.433349609375;16.49186052698384;14.181159445321237;0.501050046152847;-0.93603515625;0.23779296875;-0.05419921875;-7.5625;10.6875;16.625;
1441976039021452;0.42889404296875;-0.5902099609375;-0.53179931640625;-0.43011474609375;16.453293430329108;14.199612320980387;0.5271962668126069;-0.93408203125;0.23828125;-0.04443359375;-6.6875;11.375;17.25;
1441976039035453;0.42889404296875;-0.5916748046875;-0.53289794921875;-0.42669677734375;16.414757616874148;14.220445484894789;0.5567776972825453;-0.93603515625;0.248046875;-0.04833984375;-6.5625;12.3125;17.375;
1441976039058454;0.42919921875;-0.59283447265625;-0.53411865234375;-0.4232177734375;16.37857979958712;14.239325552837775;0.5867142484621232;-0.94482421875;0.255859375;-0.05810546875;-7.5;13.0625;16.9375;
1441976039081456;0.42974853515625;-0.59368896484375;-0.535400390625;-0.4197998046875;16.345607752580914;14.255870577536568;0.6159198330820226;-0.95458984375;0.25732421875;-0.0576171875;-9.6875;13.375;16.125;
1441976039095457;0.430419921875;-0.5943603515625;-0.53680419921875;-0.4163818359375;16.313846567199796;14.269603904737819;0.6435653911932067;-0.9521484375;0.2509765625;-0.0498046875;-11.0625;13.625;15.375;
1441976039119458;0.43133544921875;-0.59478759765625;-0.538330078125;-0.412841796875;16.28333953471067;14.282097674626144;0.6721038584877974;-0.9345703125;0.2470703125;-0.04736328125;-12.5;13.9375;14.75;
1441976039141459;0.43243408203125;-0.59515380859375;-0.53985595703125;-0.4091796875;16.253068263559356;14.29586388970247;0.702988640068791;-0.9150390625;0.2451171875;-0.04052734375;-14.0625;14.4375;14.125;
1441976039155460;0.433837890625;-0.59521484375;-0.54144287109375;-0.405517578125;16.225848087719545;14.308702655235786;0.7349080021908896;-0.9072265625;0.255859375;-0.046875;-15.3125;15.0;13.125;
1441976039178461;0.435546875;-0.594970703125;-0.5430908203125;-0.40179443359375;16.201196420866232;14.321023150403077;0.7684466978190297;-0.90478515625;0.26513671875;-0.05517578125;-17.25;14.8125;11.5625;
1441976039201463;0.43756103515625;-0.59429931640625;-0.54473876953125;-0.3983154296875;16.18245121007715;14.331316009189031;0.8013908038546739;-0.9150390625;0.27685546875;-0.06640625;-19.25;14.4375;9.25;
1441976039215463;0.4398193359375;-0.59320068359375;-0.5465087890625;-0.39508056640625;16.168992793973892;14.337690572602206;0.832023336120717;-0.9189453125;0.2861328125;-0.0771484375;-21.0;13.125;6.4375;
1441976039238465;0.4422607421875;-0.591552734375;-0.5482177734375;-0.39239501953125;16.164281906920326;14.339817890806891;0.858769407237532;-0.9267578125;0.29541015625;-0.0830078125;-22.5;11.3125;3.25;
1441976039261466;0.44488525390625;-0.58953857421875;-0.5498046875;-0.39019775390625;16.166911220687588;14.340340324600547;0.8837333123058344;-0.931640625;0.29150390625;-0.0869140625;-23.25;9.125;0.1875;
1441976039275467;0.44744873046875;-0.5872802734375;-0.55126953125;-0.38861083984375;16.175985041949236;14.337348688548783;0.9035815861469025;-0.943359375;0.28466796875;-0.0888671875;-23.125;6.875;-2.5625;
1441976039298468;0.449951171875;-0.584716796875;-0.552734375;-0.3875732421875;16.191072917085393;14.329121724735806;0.9172948061989613;-0.95068359375;0.2763671875;-0.09033203125;-22.3125;4.8125;-4.8125;
1441976039321470;0.4522705078125;-0.58203125;-0.5540771484375;-0.38702392578125;16.210333511705986;14.317547821804423;0.9257003424795879;-0.96533203125;0.2685546875;-0.07763671875;-21.0625;2.5625;-6.25;
1441976039335470;0.454345703125;-0.57928466796875;-0.55535888671875;-0.38677978515625;16.23146684281762;14.302365436216633;0.9288978950864072;-0.96533203125;0.2509765625;-0.07861328125;-19.875;0.5625;-6.8125;
1441976039358472;0.4560546875;-0.57684326171875;-0.55645751953125;-0.3868408203125;16.251954810529845;14.286566837831938;0.9281052262309855;-0.96337890625;0.23681640625;-0.06640625;-17.875;-0.75;-6.5625;
1441976039381473;0.4573974609375;-0.57476806640625;-0.557373046875;-0.38702392578125;16.269947226728345;14.271445582986678;0.9249807611076521;-0.95751953125;0.2314453125;-0.0595703125;-14.9375;-1.5;-5.875;
1441976039395474;0.45843505859375;-0.57293701171875;-0.5582275390625;-0.38726806640625;16.285642804904597;14.255359817770385;0.9189468200693506;-0.95263671875;0.234375;-0.05322265625;-12.0;-1.6875;-5.0;
1441976039418475;0.45928955078125;-0.57135009765625;-0.5592041015625;-0.3873291015625;16.297139216952406;14.238367742179925;0.9116490399381761;-0.95166015625;0.2373046875;-0.04638671875;-10.1875;-1.75;-4.0625;
1441976039441476;0.4600830078125;-0.56982421875;-0.56011962890625;-0.38726806640625;16.307165973404093;14.222507094442994;0.9053189555275776;-0.9453125;0.2509765625;-0.04736328125;-9.625;-1.75;-3.1875;
1441976039455477;0.4608154296875;-0.5684814453125;-0.56103515625;-0.3870849609375;16.314791495048333;14.207996170728752;0.8999831049955109;-0.94384765625;0.2509765625;-0.05322265625;-9.5625;-1.9375;-2.5;
1441976039478479;0.46136474609375;-0.56719970703125;-0.56195068359375;-0.38690185546875;16.321149770763345;14.191936792717094;0.8924025602624038;-0.94775390625;0.2587890625;-0.06982421875;-9.3125;-2.375;-1.9375;
1441976039501480;0.4619140625;-0.5660400390625;-0.56268310546875;-0.386962890625;16.329192318991666;14.177981291040224;0.8853162835188501;-0.9482421875;0.2587890625;-0.06787109375;-9.0625;-2.875;-1.625;
1441976039517481;0.4620361328125;-0.565185546875;-0.5631103515625;-0.3873291015625;16.33658866930417;14.164375663764478;0.8747063458067154;-0.94775390625;0.2470703125;-0.080078125;-7.5;-3.9375;-1.5;
1441976039538482;0.46173095703125;-0.564697265625;-0.56341552734375;-0.38800048828125;16.342376457109776;14.149141799849799;0.8589233052624905;-0.93994140625;0.24658203125;-0.076171875;-3.875;-4.8125;-1.0625;
1441976039561483;0.46136474609375;-0.56439208984375;-0.56353759765625;-0.38873291015625;16.347747808289302;14.136860460571611;0.844680398398693;-0.93408203125;0.25634765625;-0.07177734375;-0.4375;-5.4375;-0.9375;
1441976039575484;0.46087646484375;-0.5640869140625;-0.563720703125;-0.38946533203125;16.352287564807725;14.122347409743485;0.8280358842954987;-0.92822265625;0.26220703125;-0.07666015625;1.125;-5.625;-1.1875;
1441976039598485;0.46051025390625;-0.563720703125;-0.56390380859375;-0.39019775390625;16.357756242147374;14.108530864920583;0.812611440402957;-0.9228515625;0.263671875;-0.068359375;1.0;-5.875;-1.1875;
1441976039621487;0.46014404296875;-0.5633544921875;-0.56402587890625;-0.390869140625;16.3629162778503;14.09580375300698;0.7982891774147156;-0.92138671875;0.25732421875;-0.07373046875;0.75;-5.8125;-1.25;
1441976039643488;0.45989990234375;-0.5631103515625;-0.5640869140625;-0.39154052734375;16.368114124400133;14.08622645723877;0.7869216985117704;-0.91943359375;0.25927734375;-0.06689453125;0.8125;-5.5;-1.375;
1441976039658489;0.45977783203125;-0.562744140625;-0.56402587890625;-0.39227294921875;16.37551713199504;14.07810655872041;0.7771946607278112;-0.9326171875;0.26220703125;-0.07666015625;0.9375;-5.0625;-1.875;
1441976039681490;0.4595947265625;-0.56256103515625;-0.5638427734375;-0.39300537109375;16.38190016626166;14.072564797006468;0.7689870305374711;-0.93212890625;0.25634765625;-0.07763671875;0.8125;-4.8125;-2.1875;
1441976039695491;0.45947265625;-0.56243896484375;-0.56353759765625;-0.393798828125;16.3890902418108;14.069488071996505;0.7627094206745667;-0.9375;0.26318359375;-0.07763671875;1.5625;-4.625;-2.5625;
1441976039718492;0.4593505859375;-0.56231689453125;-0.56317138671875;-0.39459228515625;16.39648373989141;14.067208410252347;0.7570589222649285;-0.9462890625;0.26904296875;-0.08056640625;2.625;-4.375;-3.125;
1441976039740493;0.4593505859375;-0.56207275390625;-0.56280517578125;-0.39544677734375;16.405693173962486;14.064733976633189;0.7517377800983551;-0.951171875;0.2685546875;-0.0810546875;2.5625;-4.0;-3.6875;
1441976039755494;0.45941162109375;-0.56182861328125;-0.56243896484375;-0.39630126953125;16.41520877280683;14.06289007153611;0.7472185414211773;-0.9462890625;0.25927734375;-0.07177734375;2.25;-3.6875;-4.0;
1441976039778496;0.45941162109375;-0.561767578125;-0.56201171875;-0.39703369140625;16.422591372211304;14.06365434937814;0.7447845589813775;-0.93115234375;0.255859375;-0.06396484375;2.3125;-2.9375;-4.0625;
1441976039800497;0.45947265625;-0.561767578125;-0.5615234375;-0.3975830078125;16.428735615066543;14.06767747357275;0.7459738944263699;-0.919921875;0.24951171875;-0.0576171875;2.8125;-1.8125;-3.1875;
1441976039815498;0.45953369140625;-0.56182861328125;-0.5611572265625;-0.39794921875;16.432703247826034;14.071738890484104;0.7479074287377462;-0.919921875;0.24462890625;-0.056640625;2.5625;-0.875;-2.4375;
1441976039838499;0.4595947265625;-0.56219482421875;-0.56060791015625;-0.39813232421875;16.43405114365563;14.082388790128185;0.7555529710436727;-0.91455078125;0.2373046875;-0.04833984375;2.375;0.375;-1.3125;
1441976039860500;0.45953369140625;-0.562744140625;-0.56011962890625;-0.3980712890625;16.431595628252445;14.094037898664606;0.7642082941570106;-0.91943359375;0.24609375;-0.056640625;2.9375;1.5;-0.4375;
1441976039875501;0.45941162109375;-0.56341552734375;-0.5595703125;-0.39801025390625;16.428277440848316;14.106945952733742;0.7734165532483359;-0.92333984375;0.25634765625;-0.05908203125;3.5;2.1875;0.3125;
1441976039898503;0.45928955078125;-0.5640869140625;-0.55902099609375;-0.39801025390625;16.425403337094302;14.11943411702372;0.7820231014528005;-0.9326171875;0.2626953125;-0.06103515625;3.6875;2.3125;0.4375;
1441976039920504;0.45904541015625;-0.56475830078125;-0.5584716796875;-0.3980712890625;16.42237628481465;14.130136911865858;0.7883196605400375;-0.93115234375;0.267578125;-0.06591796875;4.125;2.0625;0.375;
1441976039935505;0.45880126953125;-0.56549072265625;-0.557861328125;-0.398193359375;16.419630238198422;14.141848562580495;0.795090495378666;-0.93310546875;0.271484375;-0.0625;4.625;1.75;0.0625;
1441976039958506;0.45843505859375;-0.566162109375;-0.55718994140625;-0.3985595703125;16.418724147877985;14.151005379290204;0.798247444173486;-0.92822265625;0.2724609375;-0.06787109375;5.25;1.3125;-0.375;
1441976039980507;0.4581298828125;-0.5667724609375;-0.5565185546875;-0.39898681640625;16.41895473888955;14.159935563133624;0.8013495611091639;-0.9287109375;0.2705078125;-0.05859375;5.8125;1.0;-0.6875;
1441976039995508;0.45770263671875;-0.56744384765625;-0.555908203125;-0.3994140625;16.418013684526706;14.167168855044755;0.8024018954096566;-0.92578125;0.2666015625;-0.05859375;6.25;0.75;-1.0;
1441976040018509;0.457275390625;-0.5679931640625;-0.555419921875;-0.3997802734375;16.41695828226855;14.171950353531518;0.8018889135178504;-0.921875;0.26904296875;-0.0546875;6.3125;0.625;-0.6875;
1441976040041511;0.4569091796875;-0.56854248046875;-0.554931640625;-0.40008544921875;16.41572855381818;14.177779440425084;0.8027762849590035;-0.9228515625;0.2685546875;-0.05126953125;5.625;0.625;-0.375;
1441976040055512;0.45654296875;-0.569091796875;-0.5545654296875;-0.4002685546875;16.41316284317267;14.182600225111624;0.8033611652204772;-0.9267578125;0.2578125;-0.05712890625;4.8125;0.8125;0.25;
1441976040078513;0.45611572265625;-0.56964111328125;-0.55413818359375;-0.4005126953125;16.410969191849226;14.187226883859182;0.8032258478419169;-0.9267578125;0.25927734375;-0.05517578125;4.4375;0.75;0.8125;
1441976040100514;0.45556640625;-0.57037353515625;-0.5537109375;-0.4007568359375;16.40705691095479;14.192086505188835;0.802437028557675;-0.9345703125;0.25048828125;-0.0595703125;4.75;0.5625;1.5;
1441976040115515;0.454833984375;-0.5711669921875;-0.55322265625;-0.401123046875;16.403024587093523;14.195565883385589;0.7990352689637703;-0.9345703125;0.25634765625;-0.0654296875;5.6875;0.25;2.0625;
1441976040138516;0.45404052734375;-0.572021484375;-0.552734375;-0.40142822265625;16.397851946852768;14.199252915979944;0.7956668686238888;-0.93896484375;0.2607421875;-0.05859375;6.8125;-0.125;2.375;
1441976040160518;0.4532470703125;-0.57281494140625;-0.55224609375;-0.40185546875;16.39400111915409;14.201699636435544;0.7908776783226792;-0.93798828125;0.26708984375;-0.06396484375;7.0;-0.375;2.25;
1441976040175518;0.45257568359375;-0.573486328125;-0.55181884765625;-0.40228271484375;16.391297877612367;14.203590386575485;0.7864121014193395;-0.94384765625;0.265625;-0.0654296875;6.875;-0.5625;1.9375;
1441976040198520;0.45196533203125;-0.57403564453125;-0.551513671875;-0.40264892578125;16.38877793439023;14.203750037333633;0.7812746565655814;-0.947265625;0.26806640625;-0.06005859375;6.25;-0.5;1.375;
1441976040220521;0.451416015625;-0.5745849609375;-0.5511474609375;-0.40301513671875;16.386750606752244;14.205440587206747;0.7776679782897477;-0.9462890625;0.26904296875;-0.0576171875;5.4375;-0.375;1.1875;
1441976040235522;0.45086669921875;-0.5750732421875;-0.55084228515625;-0.4033203125;16.38443085673094;14.206107182695419;0.7735690418103156;-0.935546875;0.265625;-0.0546875;5.3125;-0.1875;1.0;
1441976040258523;0.450439453125;-0.5755615234375;-0.550537109375;-0.40350341796875;16.381760309060283;14.208828130454034;0.7722304462298119;-0.92529296875;0.2666015625;-0.05126953125;5.0;0.25;0.875;
1441976040280524;0.4501953125;-0.57586669921875;-0.55035400390625;-0.403564453125;16.379764973953037;14.210981428638775;0.7720898997308585;-0.9208984375;0.2724609375;-0.05126953125;4.125;0.625;0.375;
1441976040295525;0.4500732421875;-0.575927734375;-0.5504150390625;-0.403564453125;16.378602153460967;14.209324771977895;0.7700800414678378;-0.9248046875;0.27587890625;-0.06103515625;2.4375;0.625;-0.25;
1441976040318527;0.45025634765625;-0.5758056640625;-0.55047607421875;-0.4034423828125;16.379098804890944;14.21013417342548;0.7723022465265157;-0.9208984375;0.28564453125;-0.05517578125;0.5;0.4375;-1.125;
1441976040340528;0.4505615234375;-0.575439453125;-0.550537109375;-0.40350341796875;16.383101318406954;14.209110578298363;0.7732192679267533;-0.92529296875;0.2841796875;-0.07373046875;-1.25;-0.0625;-2.0625;
1441976040355529;0.45068359375;-0.57537841796875;-0.55047607421875;-0.40362548828125;16.385207709576836;14.210068008932776;0.774172746809508;-0.92138671875;0.2744140625;-0.0625;-1.875;-0.125;-2.75;
1441976040378530;0.45074462890625;-0.5753173828125;-0.55047607421875;-0.40362548828125;16.38587814215876;14.210210446979893;0.7746683492862001;-0.9306640625;0.28369140625;-0.06689453125;0.1875;-0.1875;-2.6875;
1441976040400531;0.4510498046875;-0.574951171875;-0.55072021484375;-0.4034423828125;16.387404422534463;14.208055188921453;0.7756915487303219;-0.93359375;0.29736328125;-0.07666015625;-0.4375;-0.5625;-3.0625;
1441976040415532;0.4515380859375;-0.57440185546875;-0.5511474609375;-0.403076171875;16.388938544348925;14.204839412245267;0.7777731077471121;-0.9375;0.30029296875;-0.0791015625;-3.125;-0.6875;-3.1875;
1441976040438533;0.45208740234375;-0.57366943359375;-0.55181884765625;-0.402587890625;16.39016467769923;14.198006081673297;0.7780026959015809;-0.9375;0.29443359375;-0.07763671875;-5.5625;-0.6875;-3.125;
1441976040460535;0.45269775390625;-0.57293701171875;-0.55255126953125;-0.40203857421875;16.391019501103646;14.19135016984603;0.7789364506649286;-0.92724609375;0.28369140625;-0.0703125;-6.875;-0.375;-2.5625;
1441976040475536;0.45318603515625;-0.57220458984375;-0.5533447265625;-0.4013671875;16.39014189220604;14.1832058365662;0.7785663693194361;-0.92578125;0.27587890625;-0.06787109375;-7.5625;-0.1875;-1.4375;
1441976040498537;0.45361328125;-0.57171630859375;-0.5540771484375;-0.40057373046875;16.38672716060318;14.1780992181149;0.7805283544127117;-0.92919921875;0.2724609375;-0.06201171875;-7.625;0.1875;-0.3125;
1441976040520538;0.45404052734375;-0.5712890625;-0.5548095703125;-0.39959716796875;16.381529129456368;14.1745991673542;0.7844573726368055;-0.92822265625;0.26806640625;-0.06396484375;-7.3125;0.75;1.0;
1441976040537539;0.45428466796875;-0.5711669921875;-0.55560302734375;-0.39849853515625;16.372430921571286;14.17162145339663;0.7880236481229447;-0.9296875;0.2607421875;-0.064453125;-7.25;1.5;2.25;
1441976040558540;0.45452880859375;-0.5711669921875;-0.55621337890625;-0.39727783203125;16.362235716449653;14.172902221249103;0.7953308516513928;-0.931640625;0.27197265625;-0.06298828125;-6.25;2.0;3.4375;
1441976040580542;0.45477294921875;-0.5711669921875;-0.55694580078125;-0.39599609375;16.351175630760515;14.172810794586963;0.8017937484278362;-0.93408203125;0.27099609375;-0.0810546875;-6.0625;2.1875;4.25;
1441976040598543;0.455078125;-0.571044921875;-0.5577392578125;-0.39471435546875;16.340966622426475;14.171461094130985;0.8077066422436892;-0.92822265625;0.2724609375;-0.0712890625;-6.6875;2.3125;4.5625;
1441976040618544;0.4554443359375;-0.5709228515625;-0.5584716796875;-0.39349365234375;16.331723447352243;14.171218743346234;0.8145476055059373;-0.93017578125;0.26513671875;-0.072265625;-7.0625;2.3125;4.75;
1441976040640545;0.4556884765625;-0.57080078125;-0.5592041015625;-0.392333984375;16.32235872919757;14.169310640984628;0.819198745101453;-0.935546875;0.2666015625;-0.0771484375;-6.875;2.25;4.6875;
1441976040658546;0.45599365234375;-0.5706787109375;-0.559814453125;-0.3912353515625;16.314151634490226;14.16932981677934;0.8254254121016783;-0.9375;0.26806640625;-0.07275390625;-6.6875;2.0;4.5;
1441976040678547;0.456298828125;-0.57049560546875;-0.56036376953125;-0.39031982421875;16.307930413387567;14.168633450847004;0.8304029711687857;-0.93798828125;0.265625;-0.07861328125;-6.3125;1.75;4.1875;
1441976040700548;0.45654296875;-0.5704345703125;-0.5609130859375;-0.389404296875;16.300665044488294;14.168299719599826;0.8352089524876296;-0.935546875;0.259765625;-0.072265625;-5.6875;1.6875;3.875;
1441976040717549;0.45684814453125;-0.57037353515625;-0.561279296875;-0.38861083984375;16.29521730240381;14.170359712908796;0.8417024686004779;-0.93408203125;0.2646484375;-0.072265625;-5.0625;1.6875;3.875;
1441976040738551;0.45721435546875;-0.57025146484375;-0.5616455078125;-0.38775634765625;16.289962636496924;14.17284618908928;0.849158702999161;-0.93505859375;0.259765625;-0.07568359375;-4.6875;1.75;3.625;
1441976040760552;0.45758056640625;-0.57012939453125;-0.56201171875;-0.38702392578125;16.28565448392377;14.174663048021161;0.8555816287387068;-0.93310546875;0.255859375;-0.078125;-4.6875;1.9375;3.5625;
1441976040783553;0.4578857421875;-0.57000732421875;-0.5623779296875;-0.38629150390625;16.281048505209608;14.17582535092676;0.8611793173928087;-0.935546875;0.255859375;-0.07275390625;-4.8125;2.0;3.3125;
1441976040798554;0.45831298828125;-0.56988525390625;-0.5626220703125;-0.38568115234375;16.278357494007064;14.179210867123277;0.8686356299399606;-0.93212890625;0.25634765625;-0.068359375;-4.375;2.1875;3.1875;
1441976040820555;0.4586181640625;-0.56982421875;-0.562744140625;-0.38519287109375;16.276022600466533;14.182789738168054;0.8750541335407116;-0.93701171875;0.24951171875;-0.0703125;-3.75;2.1875;2.875;
1441976040837556;0.4588623046875;-0.56982421875;-0.5628662109375;-0.38470458984375;16.273013581501793;14.186217231855995;0.8809680185179762;-0.93603515625;0.2529296875;-0.07080078125;-3.0625;2.125;2.75;
1441976040858557;0.45916748046875;-0.56976318359375;-0.5628662109375;-0.3843994140625;16.272470380831905;14.190443575233399;0.8871446502611785;-0.93212890625;0.25830078125;-0.0693359375;-2.125;2.0625;2.25;
1441976040880559;0.4595947265625;-0.56964111328125;-0.5628662109375;-0.38409423828125;16.27288261879112;14.19544265688191;0.8946182020556862;-0.93701171875;0.2607421875;-0.0693359375;-2.0;1.9375;1.5625;
1441976040897560;0.4599609375;-0.5694580078125;-0.56280517578125;-0.384033203125;16.275468623035277;14.198892170787019;0.8996522121438031;-0.9404296875;0.26171875;-0.07568359375;-2.0625;1.5625;0.75;
1441976040918561;0.46026611328125;-0.56927490234375;-0.56268310546875;-0.38409423828125;16.278899452389716;14.201908392789404;0.9035458888481273;-0.93798828125;0.25390625;-0.0693359375;-1.625;1.25;0.25;
1441976040940562;0.4605712890625;-0.5692138671875;-0.56243896484375;-0.38421630859375;16.282414627803306;14.20723314768097;0.9088582003410913;-0.9296875;0.2529296875;-0.0634765625;-0.6875;1.125;-0.25;
1441976040957563;0.4608154296875;-0.56915283203125;-0.5621337890625;-0.3843994140625;16.286295063594252;14.21244241859001;0.9135311104193202;-0.9248046875;0.2587890625;-0.072265625;0.1875;1.0;-0.875;
1441976040978564;0.46112060546875;-0.5689697265625;-0.5618896484375;-0.38470458984375;16.29199475716196;14.215907397947047;0.9168007800223026;-0.923828125;0.26171875;-0.0703125;0.3125;0.625;-1.5;
1441976041000566;0.46148681640625;-0.56878662109375;-0.5615234375;-0.38507080078125;16.298819851573665;14.221372650825849;0.9217173942588566;-0.92529296875;0.26025390625;-0.06689453125;0.5;0.5;-2.0;
1441976041017567;0.46185302734375;-0.5684814453125;-0.56121826171875;-0.38543701171875;16.306219991695997;14.225072958119407;0.9254053412366312;-0.93017578125;0.25927734375;-0.0732421875;0.5625;0.3125;-2.5;
1441976041038568;0.46234130859375;-0.568115234375;-0.5609130859375;-0.38592529296875;16.31552972385528;14.2290061520364;0.9294842854412052;-0.92822265625;0.2607421875;-0.06982421875;0.0625;0.0625;-3.1875;
1441976041061569;0.46270751953125;-0.56781005859375;-0.560546875;-0.38653564453125;16.32502315215277;14.232363132035982;0.9319272637675823;-0.93310546875;0.2578125;-0.07080078125;0.0;-0.1875;-3.6875;
1441976041077570;0.4630126953125;-0.5675048828125;-0.56005859375;-0.38720703125;16.335068977990822;14.236446792808533;0.9344030247443463;-0.9326171875;0.2607421875;-0.06884765625;1.125;-0.25;-4.25;
1441976041098571;0.46337890625;-0.56719970703125;-0.5596923828125;-0.3878173828125;16.344558509083882;14.239872522435615;0.936915339483921;-0.9404296875;0.2724609375;-0.0703125;1.625;-0.375;-4.8125;
1441976041120572;0.4638671875;-0.56671142578125;-0.55926513671875;-0.3885498046875;16.356899738486153;14.243401096070365;0.9398838800732896;-0.9453125;0.27490234375;-0.072265625;1.0625;-0.625;-5.375;
1441976041137573;0.46429443359375;-0.566162109375;-0.55889892578125;-0.3892822265625;16.369161390025855;14.244938693761794;0.9410441865050253;-0.9404296875;0.26611328125;-0.0732421875;0.625;-0.8125;-5.9375;
1441976041158575;0.4647216796875;-0.565673828125;-0.55853271484375;-0.3900146484375;16.3810391180327;14.247001643387641;0.9425473968099816;-0.93505859375;0.25830078125;-0.06494140625;0.5625;-0.875;-5.8125;
1441976041180576;0.465087890625;-0.5653076171875;-0.55816650390625;-0.39068603515625;16.39138611661961;14.249734762732766;0.9443679818019723;-0.93310546875;0.25634765625;-0.0615234375;0.625;-0.75;-5.4375;
1441976041197577;0.46551513671875;-0.56494140625;-0.557861328125;-0.39117431640625;16.40039412567699;14.253304789435967;0.947914021880928;-0.9345703125;0.2607421875;-0.06689453125;0.8125;-0.5;-5.0625;
1441976041218578;0.46588134765625;-0.56463623046875;-0.55755615234375;-0.3916015625;16.40825456209782;14.257047045539686;0.9514618473852685;-0.93896484375;0.259765625;-0.06787109375;0.25;-0.25;-4.6875;
1441976041240579;0.46612548828125;-0.564453125;-0.55718994140625;-0.39202880859375;16.414961169018238;14.261308011661688;0.9546522258166671;-0.93994140625;0.26025390625;-0.07666015625;0.4375;-0.25;-4.1875;
1441976041257580;0.46636962890625;-0.56439208984375;-0.55682373046875;-0.39239501953125;16.4204113627791;14.26694920534605;0.9590406055666034;-0.93408203125;0.2587890625;-0.0712890625;1.125;-0.25;-3.8125;
1441976041278581;0.46649169921875;-0.5643310546875;-0.5565185546875;-0.39276123046875;16.42512483616446;14.270311468896535;0.9609797324213442;-0.93798828125;0.2666015625;-0.07568359375;1.375;-0.1875;-3.625;
1441976041300583;0.46661376953125;-0.564208984375;-0.5562744140625;-0.39312744140625;16.43004691328916;14.272291210632577;0.9618893014882489;-0.93994140625;0.27001953125;-0.07275390625;1.3125;-0.3125;-3.5625;
1441976041317584;0.46673583984375;-0.56402587890625;-0.55609130859375;-0.39349365234375;16.435178543350457;14.272877710880607;0.9617585410365819;-0.93896484375;0.2744140625;-0.072265625;1.1875;-0.5625;-3.6875;
1441976041338585;0.4669189453125;-0.56378173828125;-0.55596923828125;-0.39385986328125;16.440796328021516;14.272781029271766;0.9614680293363302;-0.9375;0.27099609375;-0.068359375;0.8125;-0.6875;-3.875;
1441976041360586;0.4671630859375;-0.5634765625;-0.555908203125;-0.39410400390625;16.445940378659785;14.272663646190917;0.9620445008117351;-0.935546875;0.27099609375;-0.0703125;0.25;-0.5625;-3.9375;
1441976041377587;0.4674072265625;-0.56304931640625;-0.55596923828125;-0.394287109375;16.451024024830268;14.27005290901182;0.9610151815012608;-0.9326171875;0.26611328125;-0.064453125;-0.5625;-0.375;-3.9375;
1441976041398588;0.4677734375;-0.5626220703125;-0.55609130859375;-0.394287109375;16.455043070530532;14.26899920731294;0.9626008688492766;-0.92822265625;0.26904296875;-0.06005859375;-1.5;-0.25;-3.75;
1441976041420590;0.4681396484375;-0.56219482421875;-0.5562744140625;-0.394287109375;16.458883193723736;14.267045318505124;0.963456414377614;-0.9306640625;0.27001953125;-0.0673828125;-2.3125;-0.125;-3.5;
1441976041451591;0.468505859375;-0.56170654296875;-0.55645751953125;-0.39422607421875;16.462633140639614;14.264906500697077;0.9644915077981571;-0.93310546875;0.263671875;-0.0654296875;-2.8125;-0.1875;-3.0625;
1441976041459592;0.46875;-0.56134033203125;-0.55670166015625;-0.3941650390625;16.46487353299805;14.261435387296718;0.9636590011817784;-0.9365234375;0.259765625;-0.06884765625;-3.0;-0.3125;-2.5625;
1441976041480593;0.46893310546875;-0.56097412109375;-0.55694580078125;-0.39404296875;16.466357943171758;14.257564277636732;0.9624388635265987;-0.93896484375;0.263671875;-0.06689453125;-2.6875;-0.375;-2.25;
1441976041503594;0.4691162109375;-0.56060791015625;-0.55718994140625;-0.39398193359375;16.468319817004843;14.253345996748171;0.9606889337276046;-0.9326171875;0.26318359375;-0.06494140625;-2.4375;-0.5625;-1.9375;
1441976041519595;0.46929931640625;-0.56024169921875;-0.55755615234375;-0.393798828125;16.468961937695845;14.247996462328235;0.9585128803021101;-0.931640625;0.25830078125;-0.06494140625;-2.5;-0.625;-1.6875;
1441976041540596;0.4696044921875;-0.55975341796875;-0.55804443359375;-0.3934326171875;16.469138301628035;14.242283252044322;0.9575662756581009;-0.9365234375;0.26953125;-0.0654296875;-3.3125;-0.5;-1.5;
1441976041563598;0.4700927734375;-0.55908203125;-0.55859375;-0.39306640625;16.47113144186066;14.236283953052897;0.9575607842552725;-0.93896484375;0.26513671875;-0.0654296875;-4.6875;-0.3125;-1.5;
1441976041579599;0.47064208984375;-0.558349609375;-0.55926513671875;-0.39251708984375;16.47199541288462;14.229713250723496;0.9582242967303177;-0.94189453125;0.25732421875;-0.06396484375;-6.0625;-0.1875;-1.375;
1441976041600600;0.4713134765625;-0.55755615234375;-0.55987548828125;-0.3919677734375;16.473990069025675;14.224985760366446;0.9610832506433407;-0.93408203125;0.2578125;-0.0654296875;-7.0;0.125;-1.3125;
1441976041623601;0.471923828125;-0.55670166015625;-0.56048583984375;-0.39141845703125;16.47609525353626;14.218986361677358;0.9626849368543613;-0.9345703125;0.2470703125;-0.06396484375;-7.5625;0.25;-1.25;
1441976041639602;0.47265625;-0.55596923828125;-0.56103515625;-0.39080810546875;16.477693492415792;14.216779884685383;0.9680646223537405;-0.93310546875;0.248046875;-0.06103515625;-7.5625;0.375;-1.3125;
1441976041660603;0.473388671875;-0.55523681640625;-0.56158447265625;-0.3902587890625;16.47977032919098;14.214228468347724;0.9729147700849922;-0.93505859375;0.25048828125;-0.0712890625;-7.375;0.375;-1.375;
1441976041683605;0.47412109375;-0.55438232421875;-0.5621337890625;-0.3897705078125;16.483102354110798;14.210264469803645;0.9765358624402635;-0.93701171875;0.25;-0.0712890625;-7.5;0.4375;-1.625;
1441976041699606;0.4749755859375;-0.553466796875;-0.5626220703125;-0.3892822265625;16.48756693626304;14.208166174918388;0.9823745610009179;-0.93798828125;0.24951171875;-0.06494140625;-7.5;0.3125;-2.0625;
1441976041720607;0.4759521484375;-0.552490234375;-0.56304931640625;-0.388916015625;16.494115177416283;14.207254495073203;0.9893819476860596;-0.9443359375;0.244140625;-0.0751953125;-7.9375;0.125;-2.5;
1441976041743608;0.47686767578125;-0.55157470703125;-0.56329345703125;-0.38873291015625;16.501971812133366;14.207860008485303;0.9964959425529852;-0.94140625;0.23681640625;-0.07275390625;-7.8125;0.125;-3.0625;
1441976041759609;0.477783203125;-0.5506591796875;-0.5634765625;-0.38861083984375;16.51048575444956;14.209079813067847;1.0038708736181077;-0.94873046875;0.236328125;-0.0712890625;-6.6875;0.1875;-3.6875;
1441976041780610;0.47882080078125;-0.5498046875;-0.5634765625;-0.38861083984375;16.52065437321828;14.214511303132783;1.0147336368549884;-0.95263671875;0.24365234375;-0.06982421875;-5.875;0.1875;-4.4375;
1441976041803612;0.47991943359375;-0.54876708984375;-0.5634765625;-0.388671875;16.5327406083615;14.21885407578392;1.0250436641427887;-0.95458984375;0.2392578125;-0.07861328125;-5.75;0.3125;-5.4375;
1441976041819612;0.48114013671875;-0.54766845703125;-0.56341552734375;-0.38885498046875;16.5468914836441;14.224581685104628;1.0367179316117423;-0.95947265625;0.244140625;-0.0732421875;-5.6875;0.375;-6.5;
1441976041840614;0.48248291015625;-0.54656982421875;-0.56317138671875;-0.3890380859375;16.562103669851695;14.234956093170295;1.0528706748935774;-0.9482421875;0.2333984375;-0.068359375;-5.6875;0.6875;-7.3125;
1441976041863615;0.48394775390625;-0.54547119140625;-0.5628662109375;-0.3892822265625;16.57847553015045;14.247846768884232;1.0715180728411047;-0.93994140625;0.22265625;-0.06982421875;-5.6875;1.125;-7.875;
1441976041879616;0.4854736328125;-0.5443115234375;-0.56243896484375;-0.38958740234375;16.59629396106894;14.26300003268797;1.0922598801968237;-0.93798828125;0.2216796875;-0.0693359375;-5.3125;1.8125;-8.4375;
1441976041900617;0.487060546875;-0.543212890625;-0.56182861328125;-0.3900146484375;16.615391357637847;14.282292113003074;1.1162490623217443;-0.947265625;0.2119140625;-0.06298828125;-4.6875;2.4375;-8.9375;
1441976041923618;0.4886474609375;-0.54217529296875;-0.5611572265625;-0.39044189453125;16.63417318823418;14.30374866101296;1.1420492401460223;-0.95458984375;0.20947265625;-0.0654296875;-4.3125;2.8125;-9.5;
1441976041939619;0.4903564453125;-0.54119873046875;-0.560302734375;-0.39093017578125;16.65393280408396;14.330907075541884;1.1730118109724037;-0.9609375;0.21337890625;-0.0654296875;-3.625;3.3125;-10.125;
1441976041960620;0.49200439453125;-0.5401611328125;-0.559326171875;-0.39154052734375;16.675005645120137;14.35891457469591;1.2041401682633208;-0.95947265625;0.205078125;-0.07421875;-3.375;3.5;-10.5;
1441976041983622;0.49365234375;-0.53924560546875;-0.55828857421875;-0.392333984375;16.69672858264518;14.38898066421849;1.236229431436631;-0.95166015625;0.1904296875;-0.07177734375;-2.5625;3.4375;-10.8125;
1441976041999623;0.4952392578125;-0.5384521484375;-0.55706787109375;-0.3931884765625;16.718169920979452;14.423170304866215;1.271222572323001;-0.94091796875;0.18212890625;-0.06884765625;-1.375;3.6875;-10.6875;
1441976042020624;0.4967041015625;-0.537841796875;-0.55572509765625;-0.39398193359375;16.737509563339948;14.460751433232101;1.3085747107677883;-0.93701171875;0.17919921875;-0.064453125;0.125;4.25;-10.9375;
1441976042043625;0.4981689453125;-0.53729248046875;-0.55438232421875;-0.39483642578125;16.756700708443688;14.499675611608858;1.3468975305857196;-0.93896484375;0.1845703125;-0.0712890625;1.125;4.5625;-11.125;
1441976042059626;0.499755859375;-0.53662109375;-0.5531005859375;-0.39544677734375;16.774822396806215;14.54089443827158;1.3891269512374071;-0.93798828125;0.18994140625;-0.0703125;1.1875;4.8125;-11.5625;
1441976042080627;0.50146484375;-0.5357666015625;-0.552001953125;-0.39605712890625;16.793991639205736;14.580358424666347;1.4309837777806205;-0.93408203125;0.19287109375;-0.07568359375;0.125;4.875;-11.9375;
1441976042102629;0.50341796875;-0.53460693359375;-0.55096435546875;-0.39654541015625;16.81474165468697;14.622279600320699;1.4774238956654324;-0.9287109375;0.1904296875;-0.07177734375;-1.6875;4.875;-12.75;
1441976042119630;0.5054931640625;-0.533203125;-0.550048828125;-0.39703369140625;16.837091641277315;14.663543217441083;1.5246081763234405;-0.9248046875;0.1845703125;-0.0771484375;-3.5625;4.8125;-13.375;
1441976042143631;0.50762939453125;-0.53173828125;-0.54913330078125;-0.3975830078125;16.860279923697075;14.706895673929038;1.574043178191531;-0.923828125;0.16943359375;-0.07763671875;-4.9375;4.4375;-13.6875;
1441976042163632;0.50958251953125;-0.53033447265625;-0.548095703125;-0.39837646484375;16.884417161963373;14.75074383231768;1.6222181002094314;-0.92236328125;0.15771484375;-0.07763671875;-5.0625;4.1875;-13.8125;
1441976042179633;0.51129150390625;-0.52923583984375;-0.54681396484375;-0.3994140625;16.90777803555131;14.798447227078539;1.6712554311524936;-0.9287109375;0.142578125;-0.07177734375;-3.4375;3.8125;-13.5;
1441976042200634;0.51275634765625;-0.52838134765625;-0.54547119140625;-0.4005126953125;16.928997872128768;14.846249252395662;1.718638458554844;-0.91845703125;0.13818359375;-0.07470703125;-0.8125;3.625;-12.9375;
1441976042223636;0.51409912109375;-0.52777099609375;-0.54412841796875;-0.4014892578125;16.946801059002034;14.895551580958296;1.7668210817806005;-0.91015625;0.13330078125;-0.07421875;1.125;3.5;-12.3125;
1441976042239636;0.51531982421875;-0.5272216796875;-0.54278564453125;-0.40240478515625;16.963049222037093;14.944584230078961;1.814406679403582;-0.89892578125;0.14013671875;-0.07861328125;2.125;3.8125;-11.4375;
1441976042260638;0.51641845703125;-0.5267333984375;-0.54156494140625;-0.4033203125;16.978150260371187;14.990062667007912;1.8582519153200678;-0.9111328125;0.130859375;-0.076171875;2.1875;3.8125;-10.375;
1441976042283639;0.51751708984375;-0.52618408203125;-0.540283203125;-0.40423583984375;16.993509956907673;15.037978940903479;1.904557873671947;-0.9228515625;0.13232421875;-0.0771484375;2.3125;3.5625;-9.625;
1441976042299640;0.518310546875;-0.52593994140625;-0.53900146484375;-0.40533447265625;17.007272298283773;15.08192971378213;1.9445881256406317;-0.9404296875;0.107421875;-0.0791015625;2.1875;3.4375;-8.125;
1441976042320641;0.51873779296875;-0.5262451171875;-0.537353515625;-0.40655517578125;17.017335408995347;15.130611888755961;1.985333443849576;-0.951171875;0.09765625;-0.07080078125;4.25;3.5625;-6.6875;
1441976042343642;0.51904296875;-0.5267333984375;-0.53558349609375;-0.4078369140625;17.02616698590317;15.18130840253955;2.0266928789504868;-0.96435546875;0.111328125;-0.0810546875;8.3125;4.0;-6.0;
1441976042359643;0.51904296875;-0.52752685546875;-0.5338134765625;-0.40911865234375;17.03198172878867;15.227327854363208;2.0616245337965564;-0.95166015625;0.1044921875;-0.07666015625;10.0625;4.25;-5.1875;
1441976042380645;0.51898193359375;-0.52880859375;-0.5318603515625;-0.41015625;17.031820995045106;15.279366759966965;2.101174999125873;-0.91943359375;0.109375;-0.0625;11.5;5.1875;-4.3125;
1441976042403646;0.51898193359375;-0.53021240234375;-0.52984619140625;-0.41094970703125;17.02850877234561;15.33490482749882;2.144594773812189;-0.89794921875;0.12158203125;-0.0673828125;13.375;6.875;-4.0;
1441976042419647;0.519287109375;-0.53143310546875;-0.52801513671875;-0.411376953125;17.023508906057053;15.391817231340644;2.1923765864376965;-0.8759765625;0.138671875;-0.06982421875;13.0;8.125;-4.25;
1441976042442648;0.51995849609375;-0.53240966796875;-0.526123046875;-0.41156005859375;17.018302566308282;15.457126563899536;2.2508601863412854;-0.861328125;0.14501953125;-0.0732421875;10.0;9.3125;-4.9375;
1441976042463649;0.5208740234375;-0.5333251953125;-0.5240478515625;-0.411865234375;17.014279686373797;15.531713690046344;2.3186027574719055;-0.8623046875;0.13916015625;-0.07421875;8.0;10.6875;-5.6875;
1441976042479650;0.52191162109375;-0.5341796875;-0.5218505859375;-0.41229248046875;17.011165839771973;15.611504422934058;2.3913646694407045;-0.89306640625;0.13525390625;-0.080078125;8.3125;11.5625;-7.0;
1441976042501651;0.52288818359375;-0.53497314453125;-0.51953125;-0.41290283203125;17.009280086945047;15.692780218238248;2.4647434743300543;-0.900390625;0.12353515625;-0.08203125;8.3125;11.9375;-7.6875;
1441976042523653;0.5238037109375;-0.53607177734375;-0.51702880859375;-0.41357421875;17.00470575332188;15.777131814909339;2.539428170874546;-0.890625;0.107421875;-0.07763671875;9.125;12.25;-7.6875;
1441976042539654;0.52471923828125;-0.53729248046875;-0.51446533203125;-0.41387939453125;16.995262177623143;15.860881301713338;2.6140758001107276;-0.88037109375;0.107421875;-0.06787109375;11.0;13.5625;-7.625;
1441976042561655;0.52606201171875;-0.53826904296875;-0.51226806640625;-0.4136962890625;16.983121967334025;15.941697504324758;2.6901647977862826;-0.87060546875;0.13134765625;-0.07470703125;10.875;15.0625;-7.8125;
1441976042583656;0.52801513671875;-0.5386962890625;-0.51031494140625;-0.4130859375;16.970788260229863;16.02653874947447;2.775555046875126;-0.87890625;0.134765625;-0.078125;6.625;16.25;-8.375;
1441976042599657;0.5302734375;-0.53875732421875;-0.50860595703125;-0.41229248046875;16.9589714229573;16.10974899190358;2.862471595379361;-0.89990234375;0.12548828125;-0.08544921875;1.1875;16.9375;-8.875;
1441976042621658;0.53271484375;-0.53863525390625;-0.50689697265625;-0.411376953125;16.94640138882003;16.19449494983874;2.952343328937537;-0.89453125;0.1025390625;-0.09033203125;-2.0;17.375;-8.8125;
1441976042643660;0.53515625;-0.5386962890625;-0.50506591796875;-0.410400390625;16.930734018172206;16.278837805034474;3.0411114288794923;-0.8935546875;0.07763671875;-0.0859375;-3.4375;18.125;-7.8125;
1441976042659660;0.53741455078125;-0.5389404296875;-0.5030517578125;-0.40948486328125;16.913092607787622;16.36081036827497;3.1257721150161197;-0.88525390625;0.06103515625;-0.091796875;-2.9375;19.0625;-6.625;
1441976042682662;0.53948974609375;-0.5396728515625;-0.50091552734375;-0.408447265625;16.889999635143415;16.43618795388874;3.2019003664085592;-0.86328125;0.0390625;-0.08349609375;-1.5625;19.8125;-4.9375;
1441976042703663;0.5413818359375;-0.5408935546875;-0.49859619140625;-0.40716552734375;16.860459768367747;16.504729044914804;3.269453455784755;-0.8466796875;0.02978515625;-0.09228515625;0.5;20.875;-2.5;
1441976042719664;0.543212890625;-0.54229736328125;-0.49627685546875;-0.40570068359375;16.827645862561365;16.56637841994628;3.3299468344682186;-0.83154296875;0.03857421875;-0.09716796875;1.9375;22.625;-0.625;
1441976042742665;0.544921875;-0.544189453125;-0.49371337890625;-0.40399169921875;16.788361848259466;16.622923192525786;3.38359458454065;-0.8388671875;0.037109375;-0.1025390625;2.4375;23.875;0.6875;
1441976042763666;0.5467529296875;-0.5458984375;-0.4913330078125;-0.40216064453125;16.749314384126553;16.674474058615584;3.4340034760955165;-0.84912109375;0.0595703125;-0.12939453125;3.6875;24.4375;0.9375;
1441976042779667;0.54876708984375;-0.54736328125;-0.4891357421875;-0.4000244140625;16.70935348639634;16.72119060876335;3.4822378573318686;-0.85498046875;0.0703125;-0.138671875;2.3125;24.625;0.5;
1441976042801669;0.551025390625;-0.54833984375;-0.48712158203125;-0.3980712890625;16.673946476989858;16.769585012641777;3.534245322588263;-0.86669921875;0.0810546875;-0.15087890625;-0.1875;24.375;-0.5625;
1441976042823670;0.55328369140625;-0.5491943359375;-0.485107421875;-0.39617919921875;16.639465239429395;16.81654400440302;3.585003972184007;-0.84326171875;0.05517578125;-0.1435546875;-2.5;23.6875;-1.3125;
1441976042839671;0.55535888671875;-0.55029296875;-0.48284912109375;-0.39453125;16.604416572408066;16.863332122266723;3.632946860813976;-0.8291015625;0.03857421875;-0.140625;-2.6875;23.3125;-0.9375;
1441976042861672;0.55731201171875;-0.55133056640625;-0.4805908203125;-0.39300537109375;16.570712974505774;16.907569259946104;3.6778198457758444;-0.82421875;0.03173828125;-0.15478515625;-0.3125;23.0625;-0.6875;
1441976042883673;0.55889892578125;-0.55255126953125;-0.47833251953125;-0.391845703125;16.539419217563903;16.94718708493805;3.7154077732125885;-0.8330078125;0.0302734375;-0.15966796875;0.25;22.125;-0.1875;
1441976042899674;0.5604248046875;-0.55413818359375;-0.475830078125;-0.3905029296875;16.50317269498951;16.984484978670775;3.7492815484309308;-0.83740234375;0.0244140625;-0.16357421875;2.4375;20.875;0.5;
1441976042921675;0.56182861328125;-0.55584716796875;-0.47332763671875;-0.38909912109375;16.465819120566252;17.01742448775707;3.778273531806319;-0.84619140625;0.037109375;-0.181640625;4.0;21.75;1.125;
1441976042943677;0.56298828125;-0.5579833984375;-0.47052001953125;-0.3878173828125;16.425873843403977;17.049121398652495;3.802845562239092;-0.84228515625;0.03564453125;-0.1904296875;4.375;22.1875;1.8125;
1441976042959678;0.563720703125;-0.560546875;-0.4674072265625;-0.3868408203125;16.38535930561109;17.079156808897974;3.821515272891086;-0.841796875;0.03759765625;-0.203125;7.5;22.375;3.0;
1441976042981679;0.56390380859375;-0.56341552734375;-0.46429443359375;-0.385986328125;16.345492389600263;17.10141476240791;3.829585944683703;-0.83642578125;0.046875;-0.236328125;11.375;20.3125;3.8125;
1441976043002680;0.56427001953125;-0.566162109375;-0.461669921875;-0.38458251953125;16.303856563247763;17.114486371518538;3.8323409375544513;-0.8515625;0.0810546875;-0.2685546875;14.5;17.875;3.75;
1441976043025681;0.5653076171875;-0.568115234375;-0.45965576171875;-0.3826904296875;16.264179185474248;17.126211837828507;3.8411625946236603;-0.875;0.13134765625;-0.3076171875;10.9375;16.5;2.1875;
1441976043042682;0.566650390625;-0.5692138671875;-0.45831298828125;-0.38067626953125;16.231094223827714;17.135274650245343;3.852977366165471;-0.88818359375;0.1259765625;-0.3388671875;3.8125;14.5625;0.5;
1441976043063684;0.5679931640625;-0.56976318359375;-0.457275390625;-0.37908935546875;16.2061522375269;17.1462760881007;3.8679509575304873;-0.90673828125;0.10986328125;-0.353515625;-2.25;11.5625;0.0;
1441976043079684;0.5684814453125;-0.57037353515625;-0.456298828125;-0.37860107421875;16.192303922308735;17.15636074954458;3.87630755955095;-0.90380859375;0.0634765625;-0.37109375;-4.5;7.375;0.8125;
1441976043102686;0.56768798828125;-0.57208251953125;-0.454833984375;-0.37890625;16.179531338006893;17.160884711479316;3.8684719841938695;-0.90625;0.0244140625;-0.36181640625;0.4375;2.0;3.75;
1441976043123687;0.566162109375;-0.5748291015625;-0.45294189453125;-0.37939453125;16.162066702851845;17.16008365818634;3.848396674999492;-0.89111328125;0.0361328125;-0.376953125;10.25;-0.9375;7.1875;
1441976043139688;0.56439208984375;-0.57763671875;-0.4510498046875;-0.3800048828125;16.145927777222763;17.157819937468844;3.8256164857312873;-0.88720703125;0.08837890625;-0.41015625;17.5625;-2.125;8.0;
1441976043161689;0.5628662109375;-0.57952880859375;-0.4498291015625;-0.38079833984375;16.139312866056166;17.15553276463174;3.80757211258684;-0.9091796875;0.1328125;-0.44189453125;19.3125;-4.4375;6.625;
1441976043182690;0.56109619140625;-0.5814208984375;-0.4481201171875;-0.38262939453125;16.139191062426082;17.16494906041903;3.7960702322321866;-0.93701171875;0.1162109375;-0.4169921875;14.625;-5.9375;4.4375;
1441976043205692;0.5587158203125;-0.58331298828125;-0.44598388671875;-0.38568115234375;16.148431205536554;17.183231196513077;3.7868721502186924;-0.95849609375;0.1240234375;-0.42041015625;20.25;-8.5625;1.375;
1441976043221693;0.55596923828125;-0.585693359375;-0.44305419921875;-0.38934326171875;16.1567724047473;17.21028731163908;3.779904023898566;-0.97119140625;0.12255859375;-0.39453125;27.125;-10.6875;-0.625;
1441976043243694;0.5531005859375;-0.58837890625;-0.44012451171875;-0.3927001953125;16.161305976091835;17.23238600676201;3.767634148110797;-0.97607421875;0.13427734375;-0.40771484375;33.8125;-11.0625;-2.0625;
1441976043265695;0.5509033203125;-0.590576171875;-0.43768310546875;-0.395263671875;16.16294281837909;17.251031528612117;3.7590018164571646;-0.9794921875;0.16943359375;-0.40625;35.1875;-9.375;-2.625;
1441976043281696;0.54949951171875;-0.591552734375;-0.43634033203125;-0.397216796875;16.170109853484995;17.264833555721054;3.7563327044641834;-0.97998046875;0.177734375;-0.41748046875;28.25;-8.5;-3.875;
1441976043303697;0.54888916015625;-0.591552734375;-0.43548583984375;-0.3990478515625;16.182102505964902;17.284132964483973;3.766072051716103;-0.98876953125;0.1572265625;-0.39599609375;17.5;-8.75;-5.1875;
1441976043325699;0.547607421875;-0.592041015625;-0.4337158203125;-0.40191650390625;16.19678521061111;17.314481762638714;3.777834774954826;-1.0078125;0.09619140625;-0.35986328125;10.0;-7.75;-5.5;
1441976043341699;0.544921875;-0.59429931640625;-0.43072509765625;-0.40545654296875;16.204519424077628;17.343068835501157;3.7731454326548413;-1.0166015625;0.02294921875;-0.33251953125;17.875;-6.9375;-1.625;
1441976043364701;0.5413818359375;-0.5977783203125;-0.42742919921875;-0.4085693359375;16.202988696013296;17.357376536420027;3.748502696920425;-1.00390625;0.033203125;-0.3251953125;32.3125;-4.8125;3.0625;
1441976043385702;0.538330078125;-0.60113525390625;-0.42474365234375;-0.41046142578125;16.194214712446822;17.359516710198562;3.718753936875757;-0.98681640625;0.111328125;-0.34033203125;38.25;-2.8125;4.8125;
1441976043401703;0.53582763671875;-0.603759765625;-0.4228515625;-0.411865234375;16.18817159621645;17.35695974486375;3.691744592789808;-0.97216796875;0.1337890625;-0.33544921875;31.6875;0.125;5.5625;
1441976043424704;0.53314208984375;-0.60638427734375;-0.42095947265625;-0.41339111328125;16.183648809684243;17.353704686617398;3.6631433846039023;-0.9658203125;0.1142578125;-0.2998046875;24.0;1.5625;5.9375;
1441976043445705;0.53021240234375;-0.6094970703125;-0.41900634765625;-0.41461181640625;16.174230091623254;17.344174261248934;3.6268342506969056;-0.95947265625;0.0966796875;-0.28515625;24.8125;1.8125;7.3125;
1441976043461706;0.52752685546875;-0.61199951171875;-0.4180908203125;-0.415283203125;16.16827516144775;17.32290566474423;3.5858743148681294;-0.9453125;0.13623046875;-0.3212890625;25.9375;0.875;7.875;
1441976043484708;0.525146484375;-0.61383056640625;-0.41790771484375;-0.41571044921875;16.166795728208136;17.29681727792071;3.545769422091107;-0.95654296875;0.15185546875;-0.341796875;19.3125;-2.25;7.9375;
1441976043505709;0.523193359375;-0.614990234375;-0.41796875;-0.41644287109375;16.171544774114036;17.277126266576033;3.51510894763817;-0.9404296875;0.12109375;-0.3349609375;12.8125;-4.375;9.125;
1441976043521710;0.5206298828125;-0.61651611328125;-0.4173583984375;-0.41796875;16.17896513933117;17.264065049367716;3.483988108877791;-0.93212890625;0.0771484375;-0.32666015625;8.875;-6.75;8.6875;
1441976043544711;0.51702880859375;-0.61846923828125;-0.41632080078125;-0.42059326171875;16.193497455284113;17.252073499739772;3.4452860425022354;-0.93505859375;0.05712890625;-0.31640625;16.1875;-7.5;9.8125;
1441976043565712;0.5130615234375;-0.62103271484375;-0.41448974609375;-0.4234619140625;16.2036116000028;17.245458227166253;3.406088671274947;-0.9365234375;0.0546875;-0.30078125;24.3125;-10.5625;11.5;
1441976043581713;0.50823974609375;-0.62469482421875;-0.41168212890625;-0.42657470703125;16.206845078659217;17.23976814291578;3.358549058077732;-0.94140625;0.05615234375;-0.32568359375;30.1875;-10.0625;11.8125;
1441976043604715;0.5030517578125;-0.62841796875;-0.4093017578125;-0.42962646484375;16.21190600930653;17.22386467552823;3.300990085105433;-0.9560546875;0.07958984375;-0.36474609375;38.75;-9.75;13.8125;
1441976043625716;0.49761962890625;-0.63153076171875;-0.4071044921875;-0.43341064453125;16.22803399783866;17.210228762234212;3.2451950867325725;-0.98828125;0.0751953125;-0.36572265625;38.25;-11.25;17.0;
1441976043641717;0.49163818359375;-0.63494873046875;-0.4033203125;-0.438720703125;16.249582375723136;17.220925572021375;3.202219456129805;-0.982421875;0.03271484375;-0.32861328125;38.375;-14.0;17.75;
1441976043664718;0.48443603515625;-0.639892578125;-0.397216796875;-0.44512939453125;16.264270218590497;17.25138604427178;3.1610024666980787;-1.00439453125;-0.03271484375;-0.32568359375;49.1875;-15.375;17.3125;
1441976043685719;0.47576904296875;-0.646484375;-0.39013671875;-0.451171875;16.265422296950668;17.27028366119716;3.0971610797146556;-1.0302734375;-0.03955078125;-0.34814453125;66.875;-13.25;18.25;
1441976043701720;0.467041015625;-0.65350341796875;-0.3828125;-0.45648193359375;16.257186691573175;17.28539518564877;3.0293206193854036;-1.05517578125;0.04638671875;-0.4013671875;78.6875;-10.875;20.625;
1441976043731722;0.4580078125;-0.66082763671875;-0.3759765625;-0.46063232421875;16.240043003447305;17.282248822304066;2.9459176398840157;-1.1171875;0.0947265625;-0.4404296875;79.5;-8.0625;19.9375;
1441976043745723;0.4500732421875;-0.66680908203125;-0.3695068359375;-0.465087890625;16.23298244411179;17.2932048374016;2.8839465065211725;-1.16796875;0.18212890625;-0.46484375;77.8125;-4.875;20.0625;
1441976043761723;0.4427490234375;-0.672119140625;-0.363525390625;-0.46917724609375;16.227721895583347;17.304249784215624;2.8281979487297026;-1.19140625;0.16015625;-0.51025390625;70.6875;-10.6875;14.625;
1441976043784725;0.436279296875;-0.6768798828125;-0.357666015625;-0.47296142578125;16.222132657614978;17.322895763672417;2.785335789104434;-1.2265625;0.15283203125;-0.4833984375;65.0625;-8.5;12.875;
1441976043805726;0.42938232421875;-0.6826171875;-0.34942626953125;-0.47711181640625;16.20596966878524;17.368822781680528;2.7571310216833083;-1.21630859375;0.1240234375;-0.44677734375;59.5625;-5.0;10.9375;
1441976043821727;0.421142578125;-0.68988037109375;-0.3392333984375;-0.48138427734375;16.17731516604644;17.42282070009158;2.7219529326189553;-1.16259765625;0.05712890625;-0.46240234375;71.875;-0.5;11.8125;
1441976043844728;0.41375732421875;-0.69573974609375;-0.332763671875;-0.48382568359375;16.153837276689348;17.42940299991888;2.6622849191056064;-1.12744140625;0.1123046875;-0.50732421875;87.4375;2.125;10.875;
1441976043865729;0.41009521484375;-0.69921875;-0.33087158203125;-0.48321533203125;16.12748065292041;17.403420643901057;2.6107329567386555;-1.09619140625;0.2626953125;-0.4326171875;67.0;2.75;7.9375;
1441976043881730;0.4080810546875;-0.702392578125;-0.3270263671875;-0.48297119140625;16.095972240098703;17.423453260993384;2.603979546562673;-1.0283203125;0.2578125;-0.36328125;27.0;8.375;6.0625;
1441976043903732;0.40350341796875;-0.70880126953125;-0.31890869140625;-0.48291015625;16.036014304095843;17.46532334751825;2.5877359021657345;-1.10986328125;0.0771484375;-0.3662109375;26.375;15.3125;5.4375;
1441976043927733;0.3968505859375;-0.7193603515625;-0.310302734375;-0.47833251953125;15.913447494876673;17.45966247592258;2.5155484575128386;-1.25341796875;-0.06396484375;-0.47265625;53.75;26.25;20.625;
1441976043941734;0.40142822265625;-0.734375;-0.29473876953125;-0.46124267578125;15.606719722226119;17.556278459292933;2.57735539859453;-1.1181640625;0.185546875;-0.5048828125;64.25;49.875;28.75;
1441976043963735;0.4056396484375;-0.71820068359375;-0.30426025390625;-0.4765625;15.86440526519829;17.602136435659546;2.6739139977043442;-0.61767578125;-0.01025390625;-0.9609375;38.125;144.0625;3.8125;
1441976043987736;0.4063720703125;-0.710693359375;-0.315185546875;-0.4801025390625;15.980394696023664;17.518130054078817;2.6394886728772726;-1.5458984375;-0.1171875;0.5712890625;-43.75;-44.5625;-42.875;
1441976044001737;0.4075927734375;-0.70660400390625;-0.30804443359375;-0.48968505859375;16.0568899185525;17.688142398015547;2.7769890437939164;-0.57080078125;0.49609375;0.14697265625;-38.875;-36.5;-27.125;
1441976044024739;0.4031982421875;-0.70721435546875;-0.30963134765625;-0.49139404296875;16.08512547044009;17.63490701415889;2.7089625977527048;-1.02197265625;-0.5009765625;0.0478515625;28.9375;-4.625;-15.4375;
1441976044046740;0.41180419921875;-0.6993408203125;-0.31817626953125;-0.4901123046875;16.13451861710161;17.628509984778418;2.782299828867014;-1.1728515625;0.4326171875;-0.39111328125;19.875;-15.875;-4.9375;
1441976044061741;0.418701171875;-0.69378662109375;-0.32318115234375;-0.48883056640625;16.159919858261684;17.644347907434682;2.8544451191138203;-1.09375;0.01904296875;-0.4453125;-76.6875;-26.625;-24.9375;
1441976044085742;0.42242431640625;-0.6910400390625;-0.32647705078125;-0.4873046875;16.16748646451541;17.638975167186796;2.8827902303927417;-1.12158203125;-0.15771484375;-0.4296875;-57.5;-13.5;-10.5625;
1441976044114744;0.42584228515625;-0.688232421875;-0.329833984375;-0.48614501953125;16.179590799331617;17.632577424301694;2.908582648295571;-1.14013671875;-0.04150390625;-0.4541015625;-34.375;-7.8125;-3.5625;
1441976044121744;0.4287109375;-0.68524169921875;-0.3345947265625;-0.48455810546875;16.196602681354566;17.600035643155216;2.9125192451852033;-1.1982421875;0.01513671875;-0.4716796875;-32.0;-10.625;-6.25;
1441976044145745;0.4317626953125;-0.6815185546875;-0.34033203125;-0.4830322265625;16.222171221318547;17.559418736908178;2.9138482085074697;-1.23779296875;0.11572265625;-0.4326171875;-35.125;-10.6875;-6.5625;
1441976044166747;0.43475341796875;-0.67724609375;-0.34637451171875;-0.48211669921875;16.257649520183115;17.51982883863571;2.91686541681182;-1.2802734375;0.1162109375;-0.3525390625;-40.5625;-9.0;-6.125;
1441976044181748;0.4383544921875;-0.6719970703125;-0.3531494140625;-0.48126220703125;16.301142476816107;17.480435822725006;2.92669125409973;-1.27978515625;0.1181640625;-0.29150390625;-41.125;-10.375;-7.1875;
1441976044203749;0.44366455078125;-0.66546630859375;-0.36029052734375;-0.4801025390625;16.34735838363549;17.45782704328366;2.9639276277266355;-1.25927734375;0.15087890625;-0.26953125;-46.6875;-13.6875;-12.4375;
1441976044226750;0.4501953125;-0.6585693359375;-0.3682861328125;-0.4775390625;16.384687142224415;17.4287484214726;3.005742365889119;-1.23291015625;0.12841796875;-0.28955078125;-56.75;-16.0;-18.75;
1441976044248751;0.45843505859375;-0.64984130859375;-0.3785400390625;-0.4736328125;16.427429221476647;17.385221112359723;3.053789144400839;-1.2197265625;0.1953125;-0.3447265625;-66.875;-15.875;-23.75;
1441976044265752;0.46832275390625;-0.63922119140625;-0.38916015625;-0.4697265625;16.4797598661556;17.36611641011187;3.137379876716965;-1.21240234375;0.23974609375;-0.380859375;-86.625;-21.5;-28.6875;
1441976044286754;0.47747802734375;-0.62957763671875;-0.39691162109375;-0.46710205078125;16.52651557084999;17.390487688158352;3.247045386466916;-1.21484375;0.1357421875;-0.36376953125;-98.6875;-23.75;-31.75;
1441976044301754;0.4837646484375;-0.6224365234375;-0.401611328125;-0.4661865234375;16.565910042278063;17.43065652385793;3.342798679274967;-1.22802734375;0.05615234375;-0.38037109375;-82.125;-21.0625;-31.8125;
1441976044323756;0.488037109375;-0.6165771484375;-0.40521240234375;-0.4664306640625;16.60720331909153;17.468347105675985;3.419880053459491;-1.2802734375;0.0986328125;-0.4169921875;-52.4375;-21.5;-29.9375;
1441976044346757;0.48980712890625;-0.61248779296875;-0.40911865234375;-0.46649169921875;16.645242830017214;17.456490019925283;3.4363457095472247;-1.3154296875;0.0947265625;-0.43017578125;-36.625;-24.0625;-24.875;
1441976044360758;0.4918212890625;-0.607666015625;-0.4144287109375;-0.4659423828125;16.688706929412074;17.423493378052637;3.4403179954851315;-1.24267578125;0.16259765625;-0.41357421875;-26.6875;-26.3125;-15.0;
1441976044383759;0.49359130859375;-0.60247802734375;-0.4205322265625;-0.4654541015625;16.739281397866606;17.375157710450193;3.4314286194989156;-1.18603515625;0.14794921875;-0.37744140625;-35.8125;-28.625;-11.25;
1441976044406760;0.49493408203125;-0.5972900390625;-0.42645263671875;-0.46533203125;16.793190931782863;17.324976088886675;3.4177923215107713;-1.109375;0.095703125;-0.314453125;-39.1875;-30.125;-6.3125;
1441976044421761;0.49456787109375;-0.59344482421875;-0.43115234375;-0.46630859375;16.846910918170714;17.268600696496602;3.3824005055638144;-1.0341796875;0.025390625;-0.26171875;-37.375;-30.25;-1.5;
1441976044443763;0.4920654296875;-0.59136962890625;-0.4351806640625;-0.46783447265625;16.896337004367354;17.176268829663613;3.2962167624049075;-0.9482421875;-0.00927734375;-0.21728515625;-22.9375;-29.875;4.625;
1441976044466764;0.4884033203125;-0.59039306640625;-0.4390869140625;-0.46923828125;16.938614602426185;17.047670994614098;3.1672213220544077;-0.88134765625;0.03076171875;-0.203125;-8.0;-30.8125;10.75;
1441976044482765;0.484375;-0.58966064453125;-0.4434814453125;-0.47015380859375;16.975185523203525;16.884420850841664;3.0046015043842913;-0.822265625;0.07275390625;-0.20849609375;-1.9375;-31.875;15.125;
1441976044503766;0.48046875;-0.5888671875;-0.448486328125;-0.47039794921875;17.00445919319144;16.692875603066444;2.8178893164625363;-0.79296875;0.07958984375;-0.20849609375;-3.4375;-32.75;19.1875;
1441976044526767;0.475830078125;-0.58929443359375;-0.45343017578125;-0.46990966796875;17.01459663087052;16.46828131124284;2.5943916371736364;-0.7822265625;0.0458984375;-0.19580078125;-8.125;-32.0;24.875;
1441976044542768;0.4708251953125;-0.59051513671875;-0.458251953125;-0.46868896484375;17.00639741828926;16.231846194464033;2.357396782767395;-0.74951171875;0.0361328125;-0.1904296875;-5.375;-28.0625;33.1875;
1441976044563769;0.4654541015625;-0.59222412109375;-0.46343994140625;-0.466796875;16.98224050985094;15.98325905476743;2.1087408588242536;-0.74951171875;0.04443359375;-0.1806640625;-4.0;-23.6875;38.6875;
1441976044586771;0.4593505859375;-0.59429931640625;-0.46832275390625;-0.46533203125;16.95103637026705;15.740963711055327;1.8610745782450413;-0.73583984375;0.0458984375;-0.16455078125;-4.375;-21.5;44.5;
1441976044602772;0.45196533203125;-0.597900390625;-0.47137451171875;-0.46484375;16.90882090804378;15.53578734232689;1.6342837022854917;-0.72509765625;0.017578125;-0.13134765625;0.25;-21.4375;48.4375;
1441976044623773;0.4432373046875;-0.603515625;-0.4727783203125;-0.464599609375;16.84730816537916;15.368914020552753;1.4305530563399127;-0.72314453125;0.0107421875;-0.13818359375;16.375;-19.6875;50.375;
1441976044646774;0.4337158203125;-0.6099853515625;-0.4736328125;-0.46429443359375;16.773696735261606;15.224653537437659;1.243134284442586;-0.73193359375;0.07470703125;-0.177734375;31.6875;-17.5;51.8125;
1441976044662775;0.42401123046875;-0.6163330078125;-0.4744873046875;-0.4639892578125;16.696831306593328;15.095914286836857;1.0709267991260092;-0.7353515625;0.12353515625;-0.18701171875;37.8125;-16.4375;53.0625;
1441976044683776;0.41448974609375;-0.62225341796875;-0.47515869140625;-0.4639892578125;16.623349038531256;14.985410703380357;0.9172078455784974;-0.74755859375;0.14306640625;-0.17138671875;38.25;-16.1875;52.75;
1441976044706778;0.40460205078125;-0.62835693359375;-0.4754638671875;-0.4642333984375;16.547669177115814;14.889817219119307;0.7749120085451564;-0.7587890625;0.12890625;-0.13818359375;38.1875;-14.5625;51.8125;
1441976044722778;0.3944091796875;-0.634521484375;-0.4749755859375;-0.465087890625;16.475369647586408;14.811886834894207;0.644984196209395;-0.72119140625;0.14453125;-0.10205078125;41.9375;-13.3125;51.375;
1441976044743780;0.38336181640625;-0.6417236328125;-0.473388671875;-0.466064453125;16.39544916700875;14.757325725199326;0.5291208954459404;-0.71240234375;0.13330078125;-0.07177734375;47.5625;-12.75;50.125;
1441976044766781;0.37237548828125;-0.649658203125;-0.4713134765625;-0.466064453125;16.303982190371034;14.729201814641776;0.4387919667190589;-0.72119140625;0.14794921875;-0.046875;57.3125;-8.0;51.9375;
1441976044782782;0.36175537109375;-0.6578369140625;-0.4696044921875;-0.4647216796875;16.200444780466512;14.714726133745117;0.36706777315676703;-0.69189453125;0.17626953125;-0.0380859375;59.25;-0.75;53.6875;
1441976044803783;0.351318359375;-0.66619873046875;-0.46728515625;-0.463134765625;16.096541775889367;14.716663790181292;0.31033199422288843;-0.7021484375;0.20263671875;-0.0302734375;54.9375;6.1875;56.1875;
1441976044826784;0.33966064453125;-0.67584228515625;-0.46405029296875;-0.4610595703125;15.978435918533076;14.733270358509298;0.25903707002208975;-0.73583984375;0.1689453125;-0.01513671875;57.0625;10.75;58.875;
1441976044841785;0.32781982421875;-0.6861572265625;-0.4609375;-0.45751953125;15.84362247418856;14.759917340308332;0.21919622645092024;-0.7578125;0.2255859375;-0.03173828125;66.375;14.4375;62.875;
1441976044863787;0.3167724609375;-0.69659423828125;-0.45831298828125;-0.45208740234375;15.69530626666028;14.796214946169604;0.19720867524602917;-0.7548828125;0.28515625;-0.03955078125;66.0;20.875;66.0;
1441976044886788;0.30682373046875;-0.7069091796875;-0.456298828125;-0.4449462890625;15.537260032192401;14.83829830731185;0.1908089302123392;-0.7314453125;0.31982421875;-0.03759765625;59.5625;31.0;67.9375;
1441976044901789;0.29754638671875;-0.71697998046875;-0.4547119140625;-0.43670654296875;15.373449129673883;14.880593660233554;0.19121927637030847;-0.7099609375;0.359375;-0.05517578125;51.0625;38.8125;67.6875;
1441976044923790;0.28863525390625;-0.7261962890625;-0.4537353515625;-0.42840576171875;15.213752138270944;14.912780422437582;0.18674695972236077;-0.771484375;0.41259765625;-0.10205078125;44.875;42.0625;67.9375;
1441976044946791;0.27960205078125;-0.73529052734375;-0.4527587890625;-0.41986083984375;15.052077710834363;14.943033719825964;0.1804853162290506;-0.79345703125;0.427734375;-0.14599609375;38.625;39.0;67.8125;
1441976044961792;0.271240234375;-0.7437744140625;-0.45196533203125;-0.41107177734375;14.894259820894622;14.97163995405718;0.17726547648814583;-0.8115234375;0.4697265625;-0.19287109375;37.625;37.6875;67.9375;
1441976044983793;0.26434326171875;-0.751220703125;-0.4520263671875;-0.40191650390625;14.743414886460616;14.995029978094605;0.18003125748723478;-0.8173828125;0.50732421875;-0.224609375;33.1875;38.25;65.0;
1441976045006795;0.258544921875;-0.7572021484375;-0.45355224609375;-0.39263916015625;14.600423606586393;15.004370448266416;0.18136535654260152;-0.87060546875;0.552734375;-0.2578125;23.25;39.625;60.625;
1441976045028796;0.253662109375;-0.761962890625;-0.4556884765625;-0.38409423828125;14.47281343813253;15.00567798145816;0.1812162863996332;-0.91357421875;0.57861328125;-0.263671875;10.25;39.3125;58.8125;
1441976045043797;0.2486572265625;-0.76641845703125;-0.4576416015625;-0.3759765625;14.350270564892394;15.00575693031232;0.17844741864854982;-0.935546875;0.53271484375;-0.23193359375;4.1875;37.5;57.3125;
1441976045066798;0.24359130859375;-0.7705078125;-0.4603271484375;-0.36761474609375;14.225242234688153;14.999280473684502;0.17292190595028578;-0.91552734375;0.5439453125;-0.2421875;5.0;34.75;56.4375;
1441976045081799;0.2384033203125;-0.774658203125;-0.462890625;-0.3590087890625;14.097400135500298;14.99429173108509;0.16841281422706858;-0.8544921875;0.53955078125;-0.24267578125;0.3125;33.5625;57.4375;
1441976045103800;0.23223876953125;-0.779541015625;-0.46478271484375;-0.34991455078125;13.958459589949573;14.994732093446936;0.1627322132446588;-0.802734375;0.4931640625;-0.2587890625;-0.6875;32.6875;60.625;
1441976045125802;0.22540283203125;-0.78521728515625;-0.46624755859375;-0.33966064453125;13.803094626988738;15.001033164681518;0.15963206080409567;-0.7236328125;0.47216796875;-0.2626953125;5.3125;34.0625;65.1875;
1441976045141802;0.2177734375;-0.791259765625;-0.46771240234375;-0.32843017578125;13.63323917569395;15.007724929757892;0.1552651425232354;-0.6591796875;0.5029296875;-0.26904296875;9.5;38.5;69.1875;
1441976045163804;0.2100830078125;-0.79693603515625;-0.4698486328125;-0.31634521484375;13.455361208095182;15.009694113502638;0.15112570196177796;-0.6181640625;0.55126953125;-0.2900390625;11.125;40.25;72.6875;
1441976045186805;0.2030029296875;-0.80194091796875;-0.47283935546875;-0.30364990234375;13.275980442109933;15.00630802675004;0.1500321908620218;-0.59130859375;0.5986328125;-0.3076171875;6.75;41.8125;74.3125;
1441976045208806;0.1966552734375;-0.80609130859375;-0.47625732421875;-0.2911376953125;13.104554542062864;14.99897288253327;0.15098371028656263;-0.568359375;0.64208984375;-0.33447265625;-1.25;43.125;72.75;
1441976045223807;0.1907958984375;-0.8099365234375;-0.47943115234375;-0.2789306640625;12.940094152275169;14.992985429475436;0.15432694551072929;-0.5556640625;0.603515625;-0.35693359375;-8.25;41.9375;71.25;
1441976045246808;0.18524169921875;-0.813232421875;-0.4825439453125;-0.2674560546875;12.786159076492227;14.985421096576484;0.15672132439127837;-0.56298828125;0.61181640625;-0.39453125;-10.125;40.75;69.5;
1441976045268810;0.18017578125;-0.8160400390625;-0.48553466796875;-0.2568359375;12.644740156590505;14.977178446694577;0.1591035360231861;-0.5791015625;0.60791015625;-0.400390625;-11.8125;38.4375;67.5;
1441976045283811;0.1754150390625;-0.818359375;-0.48846435546875;-0.2469482421875;12.513579979239651;14.967668086222645;0.16070545624725782;-0.59228515625;0.603515625;-0.40576171875;-12.625;36.25;64.5625;
1441976045306812;0.17095947265625;-0.82049560546875;-0.49066162109375;-0.2384033203125;12.39846100555694;14.96125788711857;0.16105400385638052;-0.58642578125;0.587890625;-0.39306640625;-13.625;33.8125;61.625;
1441976045328813;0.16680908203125;-0.822998046875;-0.49169921875;-0.2305908203125;12.292506836458966;14.962630722378874;0.1632287135487709;-0.57470703125;0.54931640625;-0.36865234375;-9.8125;30.25;57.6875;
1441976045344814;0.16302490234375;-0.8253173828125;-0.492431640625;-0.223388671875;12.195332621118913;14.96521211739961;0.16581038639500384;-0.55712890625;0.54296875;-0.36962890625;-3.3125;29.5;53.3125;
1441976045366815;0.15966796875;-0.8275146484375;-0.49273681640625;-0.21685791015625;12.107821019480992;14.969915254846667;0.1691591503703048;-0.54833984375;0.560546875;-0.3515625;-0.625;28.375;48.8125;
1441976045381816;0.15655517578125;-0.82977294921875;-0.49261474609375;-0.21075439453125;12.026096008297461;14.977171209345558;0.17311532628633777;-0.5361328125;0.544921875;-0.34033203125;1.0625;27.375;45.0625;
1441976045405818;0.15380859375;-0.83197021484375;-0.49212646484375;-0.20501708984375;11.95048465630377;14.986455321165003;0.17831591781668504;-0.5234375;0.56494140625;-0.33935546875;4.4375;26.6875;41.5;
1441976045426819;0.1514892578125;-0.83367919921875;-0.49200439453125;-0.199951171875;11.884540442505333;14.992266713057468;0.1827277823642582;-0.5;0.6025390625;-0.34814453125;6.3125;25.75;36.625;
1441976045442820;0.1497802734375;-0.8350830078125;-0.49200439453125;-0.19561767578125;11.829662581749648;14.996816540695347;0.1877379502079388;-0.474609375;0.6181640625;-0.3427734375;4.3125;22.8125;30.8125;
1441976045464821;0.1484375;-0.836181640625;-0.491943359375;-0.1920166015625;11.784717748764146;15.000774073024068;0.19231537130823004;-0.44873046875;0.6279296875;-0.34228515625;3.0625;19.8125;24.8125;
1441976045486822;0.14764404296875;-0.83697509765625;-0.49188232421875;-0.189208984375;11.751230288023086;15.004063151332327;0.1972131797347485;-0.431640625;0.658203125;-0.3583984375;3.0;16.125;19.0625;
1441976045508823;0.14697265625;-0.83758544921875;-0.491943359375;-0.186767578125;11.722290290376597;15.006048642459135;0.2013364994219978;-0.42822265625;0.64306640625;-0.37548828125;0.9375;13.375;14.1875;
1441976045524824;0.1463623046875;-0.83819580078125;-0.491943359375;-0.1845703125;11.69610671355132;15.008288901022324;0.20510683698381413;-0.40576171875;0.65185546875;-0.36962890625;0.625;11.125;11.875;
1441976045545826;0.14569091796875;-0.8387451171875;-0.49188232421875;-0.182861328125;11.674535841445772;15.010299469160579;0.2070823857442259;-0.39306640625;0.65283203125;-0.38232421875;0.25;9.8125;9.875;
1441976045568827;0.14483642578125;-0.8392333984375;-0.49169921875;-0.181640625;11.656972378196626;15.012258165171492;0.20669571855139196;-0.3916015625;0.66455078125;-0.3837890625;1.375;7.125;8.5;
1441976045584828;0.1439208984375;-0.83984375;-0.4913330078125;-0.18060302734375;11.640727309511423;15.015399469432552;0.20573020167184128;-0.39013671875;0.67529296875;-0.38232421875;2.6875;4.625;7.875;
1441976045606829;0.14306640625;-0.84033203125;-0.490966796875;-0.18011474609375;11.630457978960466;15.017960133979738;0.20334854947277897;-0.3837890625;0.705078125;-0.4013671875;4.0625;2.75;6.3125;
1441976045621830;0.14227294921875;-0.84075927734375;-0.49053955078125;-0.179931640625;11.623701286949995;15.020589593337187;0.2004165295192988;-0.39453125;0.7138671875;-0.41357421875;3.8125;0.625;4.5625;
1441976045645831;0.14154052734375;-0.8411865234375;-0.489990234375;-0.17974853515625;11.61739902810615;15.023965931035468;0.19797961818413046;-0.38134765625;0.72265625;-0.41259765625;4.6875;-1.375;2.375;
1441976045666832;0.14068603515625;-0.84161376953125;-0.48974609375;-0.17926025390625;11.607174972702335;15.025686614925498;0.19539198292036128;-0.36865234375;0.7373046875;-0.42333984375;4.875;-1.6875;1.3125;
1441976045681833;0.139892578125;-0.84185791015625;-0.48980712890625;-0.17840576171875;11.593876818840254;15.025478442884609;0.193738315344585;-0.3603515625;0.75927734375;-0.4267578125;3.8125;-0.9375;1.4375;
1441976045704835;0.1392822265625;-0.84210205078125;-0.489990234375;-0.177490234375;11.580869015214695;15.024891496567957;0.193098992761666;-0.3408203125;0.7666015625;-0.4169921875;2.5625;0.0;1.5;
1441976045726836;0.13897705078125;-0.84197998046875;-0.4906005859375;-0.17657470703125;11.570008414753834;15.021293796175664;0.19335147736649352;-0.34765625;0.771484375;-0.43115234375;1.125;0.875;1.1875;
1441976045741837;0.138916015625;-0.8419189453125;-0.4908447265625;-0.176025390625;11.56424558127106;15.019994429983393;0.19433371091456528;-0.35888671875;0.75341796875;-0.40576171875;-1.9375;1.875;1.1875;
1441976045764838;0.13897705078125;-0.84173583984375;-0.4912109375;-0.17596435546875;11.56408180121994;15.017574300262545;0.1942675173695026;-0.39013671875;0.73388671875;-0.4248046875;-1.25;1.875;1.125;
1441976045786839;0.13916015625;-0.84063720703125;-0.49249267578125;-0.17742919921875;11.580749609354848;15.006785066709176;0.1885120859678894;-0.3642578125;0.74365234375;-0.40576171875;-0.875;-0.5625;-2.5625;
1441976045801840;0.13983154296875;-0.83905029296875;-0.493896484375;-0.180419921875;11.615929422045099;14.993620451023782;0.18023159443692743;-0.36376953125;0.69677734375;-0.3427734375;-4.9375;-7.625;-6.3125;
1441976045824842;0.14111328125;-0.8372802734375;-0.494873046875;-0.18511962890625;11.671843842482737;14.981946450208678;0.17032419816433433;-0.3671875;0.63671875;-0.31396484375;-6.6875;-13.6875;-11.125;
1441976045846843;0.1429443359375;-0.83544921875;-0.4949951171875;-0.19146728515625;11.747716821886772;14.974311462750965;0.15924265541981325;-0.38623046875;0.5498046875;-0.2724609375;-5.0625;-18.0;-16.125;
