1441975957713802;0.13916015625;-0.7279052734375;-0.67138671875;-0.01226806640625;10.181167532322958;13.788154027651;0.547990841081241;-2.14892578125;-0.2470703125;-0.29638671875;-199.875;37.0625;176.5;
1441975957736803;0.12554931640625;-0.72515869140625;-0.6771240234375;0.0015869140625;9.965433577406463;13.741795838574962;0.5384804404482637;-1.78955078125;-0.38427734375;-0.26953125;-127.625;18.0;148.0;
1441975957759804;0.11517333984375;-0.72821044921875;-0.67559814453125;0.01239013671875;9.790650724191474;13.751827516387367;0.536632484004289;-1.3125;-0.47705078125;-0.17529296875;-48.375;2.1875;131.6875;
1441975957781806;0.11248779296875;-0.730224609375;-0.67376708984375;0.0166015625;9.731476606708638;13.765040651986393;0.5422798355961282;-0.966796875;-0.28759765625;-0.18701171875;6.6875;6.5;104.1875;
1441975957796807;0.11187744140625;-0.7279052734375;-0.67620849609375;0.02197265625;9.68519704785213;13.744439123330633;0.559181057514038;-0.5947265625;-0.1171875;-0.1220703125;3.375;10.625;70.375;
1441975957819808;0.1129150390625;-0.7213134765625;-0.682861328125;0.02764892578125;9.656390412074762;13.690382495915676;0.5825723268551409;-0.32275390625;-0.1044921875;-0.01123046875;-23.875;20.8125;44.375;
1441975957834809;0.1153564453125;-0.71112060546875;-0.69281005859375;0.03240966796875;9.653105789412656;13.609490448746445;0.6070836117162247;-0.17333984375;0.01416015625;0.07470703125;-51.75;25.75;24.1875;
1441975957856810;0.11944580078125;-0.70074462890625;-0.70257568359375;0.03350830078125;9.69424527100494;13.530517905742451;0.6238878233510584;-0.06201171875;0.12158203125;0.16357421875;-72.125;25.75;3.375;
1441975957879811;0.12713623046875;-0.6878662109375;-0.71405029296875;0.0302734375;9.804206480855726;13.437910667980885;0.6362791274608816;0.025390625;0.43896484375;0.06640625;-76.1875;16.75;-26.25;
1441975957894812;0.13641357421875;-0.6734619140625;-0.7261962890625;0.0247802734375;9.948135998287999;13.337820996078317;0.6435085528386351;-0.10791015625;0.58251953125;0.0;-94.875;12.3125;-53.375;
1441975957916813;0.147216796875;-0.66156005859375;-0.73516845703125;0.01531982421875;10.131367071622085;13.262000485115784;0.6401748891251712;-0.29931640625;0.5654296875;-0.0234375;-102.25;9.625;-68.125;
1441975957939815;0.15606689453125;-0.6561279296875;-0.73834228515625;0.0048828125;10.294681403767623;13.23415275697317;0.6282084874265565;-0.3798828125;0.45361328125;0.0615234375;-73.75;2.1875;-72.1875;
1441975957954816;0.16204833984375;-0.65570068359375;-0.73748779296875;-0.0062255859375;10.43088948626529;13.240321734438922;0.6055616380114894;-0.37841796875;0.560546875;0.0986328125;-22.125;-5.375;-65.25;
1441975957976817;0.16583251953125;-0.6551513671875;-0.7369384765625;-0.0166015625;10.54352454653185;13.242208781122779;0.5769110296329623;-0.373046875;0.8193359375;0.12939453125;15.0625;-15.875;-58.8125;
1441975957999818;0.16851806640625;-0.65325927734375;-0.7376708984375;-0.0267333984375;10.647183766847153;13.231562541850945;0.5431528993406248;-0.33349609375;0.99365234375;0.16943359375;14.5625;-21.4375;-54.625;
1441975958013819;0.17108154296875;-0.6492919921875;-0.740234375;-0.0361328125;10.746792834034895;13.2039696021804;0.5091902562538413;-0.31298828125;1.09619140625;0.1953125;4.75;-25.5;-55.4375;
1441975958036820;0.1734619140625;-0.64532470703125;-0.74267578125;-0.044677734375;10.837800861445684;13.176243958421669;0.4776676010344176;-0.296875;1.0263671875;0.22412109375;-9.625;-24.8125;-54.6875;
1441975958059822;0.17547607421875;-0.64129638671875;-0.74517822265625;-0.0523681640625;10.918750495704257;13.147338403670135;0.44772831009927083;-0.326171875;1.056640625;0.26708984375;-8.25;-21.5;-50.3125;
1441975958075823;0.177001953125;-0.63604736328125;-0.748779296875;-0.0592041015625;10.98989969384198;13.107942066617278;0.417327707892759;-0.3408203125;1.125;0.2724609375;-10.5625;-20.1875;-46.875;
1441975958096824;0.1783447265625;-0.62994384765625;-0.7530517578125;-0.06591796875;11.058709881590795;13.061330506796752;0.3849284449476059;-0.3828125;1.1298828125;0.26220703125;-22.0625;-21.0625;-41.25;
1441975958119825;0.1790771484375;-0.62322998046875;-0.75787353515625;-0.072265625;11.119132273499428;13.008758497943274;0.35011998980173314;-0.43798828125;1.1298828125;0.265625;-29.625;-23.0;-38.125;
1441975958135826;0.17901611328125;-0.61688232421875;-0.76251220703125;-0.07806396484375;11.16709792734841;12.957577110250412;0.3144569502370478;-0.4306640625;1.0654296875;0.2919921875;-33.0;-24.75;-34.0625;
1441975958156827;0.1783447265625;-0.61163330078125;-0.766357421875;-0.08306884765625;11.201980811358348;12.914093774790086;0.281142650440257;-0.42431640625;1.0146484375;0.318359375;-30.125;-25.1875;-28.8125;
1441975958179828;0.1773681640625;-0.60675048828125;-0.76983642578125;-0.08856201171875;11.236602860126256;12.87275011650492;0.24463033057602326;-0.43115234375;1.03955078125;0.31787109375;-24.75;-24.4375;-23.125;
1441975958195829;0.17572021484375;-0.60174560546875;-0.7734375;-0.09429931640625;11.266096061544362;12.82920306030464;0.20383525933461374;-0.4697265625;1.0498046875;0.28466796875;-24.375;-28.375;-22.0;
1441975958216831;0.17413330078125;-0.59710693359375;-0.776611328125;-0.10015869140625;11.295900685170597;12.788655093240838;0.16306402594011665;-0.46484375;1.03515625;0.29443359375;-25.0;-32.3125;-21.75;
1441975958239832;0.1727294921875;-0.59320068359375;-0.77911376953125;-0.10650634765625;11.329577350195859;12.753550117939241;0.12156194900245287;-0.47314453125;0.923828125;0.27685546875;-21.875;-33.125;-19.0;
1441975958255833;0.17156982421875;-0.5914306640625;-0.77972412109375;-0.11346435546875;11.368691289013302;12.735137695057395;0.08134675069815812;-0.52587890625;0.80859375;0.28759765625;-14.5;-33.1875;-15.625;
1441975958276834;0.171142578125;-0.590576171875;-0.7794189453125;-0.12066650390625;11.41582440303955;12.724606689285984;0.04409734530607431;-0.56005859375;0.7548828125;0.2412109375;-0.3125;-33.5;-15.0;
1441975958299835;0.17132568359375;-0.5906982421875;-0.77801513671875;-0.12835693359375;11.472120652211984;12.722562574202604;0.008440046611268171;-0.57958984375;0.65625;0.21044921875;6.25;-30.4375;-15.0;
1441975958315836;0.1729736328125;-0.59027099609375;-0.77655029296875;-0.13677978515625;11.547300804649154;12.718014534789555;17.97388528957369;-0.54638671875;0.6396484375;0.18896484375;13.125;-27.6875;-21.1875;
1441975958336837;0.17626953125;-0.58831787109375;-0.77569580078125;-0.1456298828125;11.640872140286278;12.703907634613357;17.940751434557832;-0.53515625;0.6220703125;0.18798828125;10.875;-23.5625;-30.5625;
1441975958366839;0.18157958984375;-0.58349609375;-0.77642822265625;-0.15435791015625;11.751963363540947;12.670545995336672;17.910213124498448;-0.5263671875;0.6083984375;0.15625;-0.4375;-20.1875;-40.4375;
1441975958375840;0.1895751953125;-0.5771484375;-0.77734375;-0.16375732421875;11.892715637394609;12.629044735422656;17.882915263392565;-0.53271484375;0.5048828125;0.1435546875;-20.0;-15.125;-45.625;
1441975958396841;0.199951171875;-0.5711669921875;-0.77691650390625;-0.174072265625;12.062933363830716;12.593855258720385;17.859902792167016;-0.55810546875;0.380859375;0.11572265625;-29.0625;-8.875;-54.75;
1441975958419842;0.21240234375;-0.56671142578125;-0.7742919921875;-0.18524169921875;12.260306365875367;12.574178162050083;17.843099978144757;-0.57763671875;0.26513671875;0.08349609375;-24.0;-0.8125;-63.75;
1441975958435843;0.22711181640625;-0.56463623046875;-0.76873779296875;-0.19677734375;12.484458793103379;12.579221324195114;17.839115822270326;-0.59375;0.2236328125;0.06103515625;-11.8125;8.75;-73.375;
1441975958465845;0.244384765625;-0.56268310546875;-0.76165771484375;-0.2088623046875;12.739249602899354;12.59287985050767;17.8443789985602;-0.62841796875;0.31396484375;-0.01123046875;0.875;20.8125;-85.8125;
1441975958480846;0.26123046875;-0.55816650390625;-0.75616455078125;-0.22015380859375;12.985175166512674;12.587368856489064;17.845723376170547;-0.69970703125;0.37158203125;-0.0576171875;0.8125;29.4375;-98.375;
1441975958495847;0.27984619140625;-0.55224609375;-0.750244140625;-0.23211669921875;13.255160408877728;12.576236389084515;17.84748871783721;-0.751953125;0.37060546875;-0.07421875;-8.8125;35.3125;-111.25;
1441975958516848;0.29937744140625;-0.54638671875;-0.74267578125;-0.24554443359375;13.547851635982921;12.56982005098558;17.84643876159088;-0.7431640625;0.361328125;-0.0556640625;-14.625;40.4375;-123.0;
1441975958538849;0.31890869140625;-0.541259765625;-0.733154296875;-0.26055908203125;13.855794947896035;12.571738603236987;17.840492603630526;-0.7109375;0.32666015625;-0.07470703125;-7.875;42.1875;-135.0625;
1441975958554850;0.3377685546875;-0.53662109375;-0.721923828125;-0.2772216796875;14.173482434649749;12.577663586448999;17.82524064619601;-0.75146484375;0.322265625;-0.07080078125;4.375;41.375;-143.3125;
1441975958576851;0.3564453125;-0.5311279296875;-0.7099609375;-0.29473876953125;14.500066820287108;12.576274652873085;17.80071454931287;-0.73876953125;0.36572265625;-0.0869140625;15.4375;37.75;-151.25;
1441975958599853;0.3751220703125;-0.5245361328125;-0.69757080078125;-0.3123779296875;14.832296193035136;12.56523105400361;17.769098618511517;-0.75830078125;0.376953125;-0.09716796875;15.875;33.875;-157.6875;
1441975958622854;0.39404296875;-0.5164794921875;-0.68487548828125;-0.330078125;15.172379771245659;12.538787343256459;17.726888718350118;-0.7666015625;0.4306640625;-0.06689453125;13.4375;33.4375;-163.0;
1441975958636855;0.41229248046875;-0.50836181640625;-0.671142578125;-0.34814453125;15.513922349752047;12.504189366111824;17.67138654957039;-0.75439453125;0.39453125;-0.02783203125;8.9375;32.75;-167.8125;
1441975958658856;0.4288330078125;-0.5013427734375;-0.65570068359375;-0.36724853515625;15.852130199370174;12.463841876212705;17.594755887059428;-0.85546875;0.3642578125;0.03271484375;14.3125;32.4375;-169.0;
1441975958681857;0.44451904296875;-0.4945068359375;-0.63934326171875;-0.38623046875;16.18645132752133;12.408038221267145;17.498336531622005;-0.9091796875;0.39111328125;0.0224609375;29.375;28.625;-170.0;
1441975958696858;0.4599609375;-0.4871826171875;-0.62213134765625;-0.40509033203125;16.523145552408312;12.317866996927854;17.367031952373154;-1.0283203125;0.455078125;0.02001953125;34.125;28.375;-170.3125;
1441975958718859;0.47418212890625;-0.47991943359375;-0.60400390625;-0.42431640625;16.853760276539212;12.158546783501373;17.160011716767563;-1.10498046875;0.4892578125;0.06884765625;35.125;30.0;-173.25;
1441975958734860;0.485107421875;-0.47430419921875;-0.58502197265625;-0.44439697265625;17.15416308641041;11.865492739772314;16.800898872557696;-1.138671875;0.42041015625;0.06103515625;41.6875;27.25;-173.25;
1441975958756861;0.49212646484375;-0.47119140625;-0.56451416015625;-0.46600341796875;17.411704025780843;11.283549845688107;16.126385090824947;-1.2265625;0.35009765625;0.0810546875;60.625;20.25;-164.5625;
1441975958778863;0.49578857421875;-0.47015380859375;-0.5430908203125;-0.4881591796875;17.589821498585138;10.092543273970735;14.823548238361697;-1.22509765625;0.361328125;0.0888671875;87.0625;14.3125;-157.125;
1441975958801864;0.49810791015625;-0.46942138671875;-0.522216796875;-0.5087890625;17.625887560743685;8.263812081855207;12.884531107265667;-1.197265625;0.431640625;0.07958984375;106.8125;9.625;-148.5;
1441975958816865;0.5009765625;-0.46722412109375;-0.50390625;-0.52618408203125;17.521544086181255;6.875782737233011;11.408682823244323;-1.15087890625;0.53515625;0.07861328125;105.125;9.125;-140.6875;
1441975958839866;0.5037841796875;-0.46441650390625;-0.48822021484375;-0.54058837890625;17.369744839350542;6.1912438437863795;10.653944939053586;-1.11767578125;0.53369140625;0.11572265625;83.75;8.5625;-129.8125;
1441975958854867;0.5013427734375;-0.4652099609375;-0.47723388671875;-0.5518798828125;17.270602654910732;6.028033033542279;10.417475032317284;-1.0771484375;0.42333984375;0.20361328125;65.8125;8.4375;-113.4375;
1441975958876868;0.49688720703125;-0.46826171875;-0.4686279296875;-0.56060791015625;17.216894992640736;5.990229913119396;10.308282837677773;-1.0673828125;0.40673828125;0.2197265625;68.125;8.375;-93.4375;
1441975958899870;0.4931640625;-0.47125244140625;-0.46307373046875;-0.56597900390625;17.194010243910366;5.985196364599094;10.25253446105367;-1.00634765625;0.53173828125;0.208984375;66.4375;9.3125;-75.75;
1441975958921871;0.49114990234375;-0.4737548828125;-0.4613037109375;-0.56707763671875;17.205472646400075;5.990179049157838;10.2363056132241;-0.95068359375;0.53466796875;0.19287109375;45.6875;10.125;-59.25;
1441975958936872;0.4912109375;-0.4752197265625;-0.46331787109375;-0.5640869140625;17.24473157846873;6.000452548030151;10.256977700168616;-0.8974609375;0.55078125;0.154296875;17.1875;11.5;-41.8125;
1441975958959873;0.4925537109375;-0.4759521484375;-0.46826171875;-0.5582275390625;17.304466581491692;6.032835099066423;10.322229619131333;-0.86962890625;0.5087890625;0.130859375;-13.875;12.375;-24.0;
1441975958981874;0.4940185546875;-0.4765625;-0.47479248046875;-0.55084228515625;17.3779890161318;6.108485400668899;10.44035673920818;-0.8662109375;0.44873046875;0.11474609375;-35.375;11.875;-7.625;
1441975958996875;0.49481201171875;-0.47808837890625;-0.482177734375;-0.5423583984375;17.46908767969215;6.256244658555539;10.631609321955427;-0.86865234375;0.37548828125;0.1015625;-43.9375;11.0;6.625;
1441975959019877;0.494384765625;-0.48089599609375;-0.490234375;-0.532958984375;17.57671804523723;6.564011106588091;10.98019862506183;-0.87255859375;0.33251953125;0.07373046875;-44.4375;10.75;20.5;
1441975959034877;0.49261474609375;-0.48468017578125;-0.49884033203125;-0.52313232421875;17.684345706493374;7.233271136098005;11.686394453064882;-0.888671875;0.31103515625;0.03515625;-40.5625;9.75;34.875;
1441975959056879;0.489013671875;-0.489501953125;-0.50750732421875;-0.51361083984375;17.75378842534474;8.634013869280597;13.115126372262973;-0.912109375;0.28076171875;0.01513671875;-36.625;7.4375;47.5625;
1441975959079880;0.48321533203125;-0.49591064453125;-0.51556396484375;-0.5048828125;17.72798188875225;10.477795383801475;14.972024009043533;-0.93310546875;0.24658203125;0.0078125;-27.0625;3.6875;59.0625;
1441975959101881;0.47479248046875;-0.50390625;-0.52313232421875;-0.4970703125;17.60435286331735;11.656826805312491;16.148079364854954;-0.958984375;0.21630859375;-0.0166015625;-11.9375;-0.25;69.6875;
1441975959117882;0.46417236328125;-0.51312255859375;-0.53033447265625;-0.48992919921875;17.43168990148212;12.228169280081133;16.70366011298996;-0.98095703125;0.21240234375;-0.02783203125;4.3125;-5.375;79.8125;
1441975959139883;0.4521484375;-0.5230712890625;-0.53704833984375;-0.4832763671875;17.239696606869437;12.530310047936263;16.981067908040774;-0.984375;0.216796875;-0.03271484375;16.625;-9.8125;88.5;
1441975959154884;0.43865966796875;-0.5335693359375;-0.543212890625;-0.47735595703125;17.03703591858703;12.705004476067483;17.121479639688467;-0.99365234375;0.1943359375;-0.03173828125;25.8125;-12.1875;96.3125;
1441975959178886;0.42413330078125;-0.5450439453125;-0.5487060546875;-0.47119140625;16.824528865466128;12.845563681952527;17.220580290090922;-0.99853515625;0.1796875;-0.03173828125;35.4375;-12.0625;102.3125;
1441975959199887;0.4093017578125;-0.5570068359375;-0.5535888671875;-0.46453857421875;16.607987983845852;12.967366354181157;17.29806417370895;-1.01123046875;0.19091796875;-0.017578125;43.0;-9.9375;107.5;
1441975959221888;0.3946533203125;-0.56903076171875;-0.5582275390625;-0.45703125;16.38839154711139;13.075866459353259;17.364083619095357;-1.0146484375;0.2021484375;-0.02734375;45.9375;-6.75;110.5;
1441975959237889;0.380859375;-0.5804443359375;-0.56298828125;-0.448486328125;16.16988997147668;13.169701986427798;17.422746815343388;-1.01611328125;0.2353515625;-0.02685546875;44.5625;-2.5625;111.9375;
1441975959258890;0.368408203125;-0.59075927734375;-0.5682373046875;-0.43878173828125;15.955045877683732;13.247968411962773;17.47746683986537;-1.01171875;0.2509765625;-0.0224609375;37.375;1.8125;111.9375;
1441975959274891;0.3572998046875;-0.59991455078125;-0.5738525390625;-0.42803955078125;15.745376292950384;13.31336554963483;17.53049041227432;-1.00439453125;0.25341796875;-0.01806640625;26.5;6.375;110.6875;
1441975959297892;0.34765625;-0.60797119140625;-0.5797119140625;-0.41656494140625;15.543932447137582;13.368334870347471;17.583345362877527;-1.0068359375;0.2587890625;-0.01708984375;15.6875;10.6875;108.5;
1441975959318894;0.33935546875;-0.6148681640625;-0.58575439453125;-0.40472412109375;15.352657064327492;13.412053509989288;17.63390342720672;-1.001953125;0.2548828125;-0.01318359375;6.375;15.0;104.9375;
1441975959341895;0.3338623046875;-0.6202392578125;-0.590576171875;-0.39385986328125;15.198908724886088;13.452756533327893;17.6879425808433;-0.99755859375;0.24560546875;-0.02734375;-2.1875;17.375;100.125;
1441975959357896;0.32958984375;-0.62493896484375;-0.5950927734375;-0.38311767578125;15.058002535144592;13.489874068116212;17.742866105551055;-0.98583984375;0.24853515625;-0.0244140625;-8.125;20.6875;94.625;
1441975959378897;0.3265380859375;-0.62890625;-0.59930419921875;-0.37249755859375;14.930121082324913;13.523736418862358;17.79921189658903;-0.96533203125;0.251953125;-0.0390625;-12.625;23.25;88.5625;
1441975959401898;0.3248291015625;-0.63189697265625;-0.6031494140625;-0.362548828125;14.821114410755403;13.552081688442284;17.854062006879513;-0.9423828125;0.26708984375;-0.04931640625;-16.5625;25.5;81.5;
1441975959417899;0.3240966796875;-0.6343994140625;-0.6064453125;-0.353271484375;14.727327571732891;13.579088757500873;17.908498831346623;-0.9248046875;0.25537109375;-0.05859375;-20.25;26.375;73.375;
1441975959438901;0.32440185546875;-0.63629150390625;-0.609130859375;-0.34490966796875;14.651639246304441;13.604386558925631;17.96177471221647;-0.9013671875;0.26220703125;-0.06787109375;-21.3125;27.0625;64.75;
1441975959461902;0.32574462890625;-0.63763427734375;-0.611083984375;-0.33758544921875;14.595160394487602;13.62948349502507;0.014457468047912567;-0.87109375;0.26904296875;-0.0703125;-21.375;27.4375;54.8125;
1441975959478903;0.32830810546875;-0.638427734375;-0.6121826171875;-0.33160400390625;14.561818764920595;13.655536588195552;0.06695136170479303;-0.84912109375;0.2861328125;-0.0732421875;-21.25;27.625;43.75;
1441975959498904;0.33197021484375;-0.638427734375;-0.6126708984375;-0.32696533203125;14.550847164081626;13.679810409466885;0.11756269878112509;-0.8369140625;0.29443359375;-0.0947265625;-20.25;26.6875;31.3125;
1441975959521905;0.3367919921875;-0.6375732421875;-0.61260986328125;-0.32391357421875;14.564595960939092;13.701771947329773;0.16553707732726863;-0.82666015625;0.31591796875;-0.09912109375;-20.375;25.3125;18.0625;
1441975959537906;0.3427734375;-0.6357421875;-0.6119384765625;-0.32244873046875;14.603869847693117;13.72183946388488;0.2114190694129685;-0.8310546875;0.3330078125;-0.09765625;-20.6875;23.25;4.8125;
1441975959560907;0.34942626953125;-0.63311767578125;-0.6107177734375;-0.32269287109375;14.665442315514353;13.73911697045559;0.2520760778702618;-0.8291015625;0.33154296875;-0.0966796875;-20.75;21.0;-8.1875;
1441975959581909;0.35650634765625;-0.63018798828125;-0.6085205078125;-0.32476806640625;14.748048017917606;13.758603587824066;0.2886564120640996;-0.822265625;0.31787109375;-0.0791015625;-18.625;18.0625;-19.8125;
1441975959598910;0.36376953125;-0.6273193359375;-0.60528564453125;-0.32843017578125;14.846811369842957;13.783206948832332;0.32281337001218885;-0.8212890625;0.3046875;-0.06689453125;-12.4375;15.1875;-30.0625;
1441975959618911;0.37127685546875;-0.62396240234375;-0.6014404296875;-0.3333740234375;14.960855601814151;13.808102904317076;0.35376172032805353;-0.82861328125;0.3125;-0.068359375;-5.8125;12.25;-39.4375;
1441975959641912;0.3790283203125;-0.61993408203125;-0.59735107421875;-0.33941650390625;15.088521020541727;13.830143643130992;0.38054600837039343;-0.83984375;0.32958984375;-0.06591796875;-2.75;9.0625;-48.5;
1441975959657913;0.38726806640625;-0.614990234375;-0.5931396484375;-0.3465576171875;15.232211670358883;13.847877435569059;0.40352014004029263;-0.86376953125;0.35009765625;-0.060546875;-1.9375;5.8125;-57.1875;
1441975959678914;0.39544677734375;-0.6092529296875;-0.5887451171875;-0.35479736328125;15.388276382941097;13.859269510444001;0.4185017587481958;-0.88818359375;0.34375;-0.0615234375;-3.0625;2.1875;-65.0625;
1441975959701916;0.40338134765625;-0.6031494140625;-0.58392333984375;-0.36407470703125;15.553990881710698;13.867618596108775;0.4264814392854371;-0.9287109375;0.3349609375;-0.044921875;-2.0;-2.1875;-71.25;
1441975959717916;0.41107177734375;-0.5965576171875;-0.57916259765625;-0.37384033203125;15.724187723283967;13.86887427005259;0.4268405030372279;-0.953125;0.33154296875;-0.03955078125;1.0;-6.0;-76.0625;
1441975959738918;0.41845703125;-0.58984375;-0.5743408203125;-0.3836669921875;15.893884353667321;13.86731156507594;0.4235099935059643;-0.95703125;0.31884765625;-0.01416015625;1.75;-8.5625;-79.25;
1441975959761919;0.42559814453125;-0.58270263671875;-0.56982421875;-0.39324951171875;16.061464718707352;13.857649954330325;0.41423610069324585;-0.95166015625;0.30859375;-0.00927734375;2.375;-9.625;-80.5625;
1441975959777920;0.43280029296875;-0.57537841796875;-0.565673828125;-0.40216064453125;16.224042229328482;13.845078128100443;0.40577841265071024;-0.94873046875;0.30126953125;0.0205078125;0.5625;-9.625;-80.9375;
1441975959799921;0.44024658203125;-0.56744384765625;-0.562255859375;-0.41009521484375;16.38135983899647;13.82437103710158;0.3966028805589682;-0.9638671875;0.3046875;0.02001953125;-3.5;-9.0;-80.375;
1441975959821922;0.4476318359375;-0.55926513671875;-0.55938720703125;-0.41717529296875;16.531282162788052;13.796563784682657;0.3848885890143475;-0.98046875;0.302734375;0.021484375;-10.75;-8.0625;-79.0;
1441975959837923;0.4549560546875;-0.55108642578125;-0.5570068359375;-0.4232177734375;16.671438881713456;13.766039369878776;0.374656464221485;-1.0078125;0.29248046875;0.02490234375;-15.625;-7.75;-76.1875;
1441975959858925;0.464111328125;-0.54119873046875;-0.5560302734375;-0.4273681640625;16.81241560088713;13.729666515727091;0.3782227692263498;-1.0234375;0.27197265625;0.00439453125;-20.0;-7.5625;-71.6875;
1441975959881926;0.47186279296875;-0.5323486328125;-0.55584716796875;-0.43017578125;16.926786301303206;13.685222320987798;0.3728144014914447;-1.0263671875;0.1884765625;0.00244140625;-39.5;-3.75;-68.5625;
1441975959897927;0.47906494140625;-0.52447509765625;-0.55548095703125;-0.432373046875;17.029167992115305;13.654176611502944;0.37761287583134723;-1.015625;0.255859375;0.017578125;-38.9375;-3.3125;-61.875;
1441975959918928;0.48516845703125;-0.5179443359375;-0.5550537109375;-0.43402099609375;17.11424726655261;13.633914980619652;0.387577848510475;-1.02197265625;0.24072265625;0.0107421875;-35.375;-0.6875;-55.625;
1441975959941929;0.4901123046875;-0.51275634765625;-0.55474853515625;-0.4349365234375;17.179616888697513;13.624776425953483;0.40396125287935464;-1.00927734375;0.232421875;0.0166015625;-29.75;1.0625;-47.8125;
1441975959957930;0.49395751953125;-0.50885009765625;-0.5546875;-0.43524169921875;17.226194991999968;13.623628146448658;0.42396738624427527;-0.9951171875;0.23681640625;0.013671875;-25.25;2.25;-39.625;
1441975959978931;0.496826171875;-0.5059814453125;-0.554931640625;-0.43505859375;17.25659137145163;13.62464988184804;0.44265233214449684;-0.9794921875;0.24755859375;0.0068359375;-20.9375;2.625;-31.1875;
1441975960001933;0.498779296875;-0.50421142578125;-0.555419921875;-0.43426513671875;17.270253549023195;13.633835770977399;0.466201979848405;-0.96484375;0.24462890625;-4.8828125E-4;-17.1875;2.1875;-23.5;
1441975960017934;0.499755859375;-0.503173828125;-0.55621337890625;-0.43328857421875;17.271560842773273;13.631706099602825;0.47495720775768424;-0.955078125;0.2490234375;-0.01953125;-14.375;1.5;-16.125;
1441975960040935;0.49957275390625;-0.5032958984375;-0.55718994140625;-0.43206787109375;17.257152051703244;13.627147089964398;0.4758726936866843;-0.955078125;0.234375;-0.01708984375;-10.875;0.5625;-8.375;
1441975960061936;0.49847412109375;-0.50445556640625;-0.55828857421875;-0.4305419921875;17.228968182271522;13.62600717566481;0.47584628519331573;-0.94140625;0.23681640625;-0.01611328125;-5.4375;-0.375;-1.0625;
1441975960077937;0.4967041015625;-0.50634765625;-0.55963134765625;-0.42877197265625;17.189994703198455;13.623440624181137;0.47175864299962816;-0.9345703125;0.2451171875;-0.03076171875;-1.3125;-1.1875;5.75;
1441975960100938;0.49432373046875;-0.508544921875;-0.56121826171875;-0.4267578125;17.143082328954783;13.613183235811682;0.45880756516000887;-0.931640625;0.24853515625;-0.03955078125;1.0625;-2.1875;11.4375;
1441975960121940;0.49139404296875;-0.51123046875;-0.56298828125;-0.42462158203125;17.08856723846044;13.600663835324704;0.44149163856036217;-0.9287109375;0.240234375;-0.0400390625;2.1875;-3.125;16.5;
1441975960137940;0.48785400390625;-0.51446533203125;-0.56475830078125;-0.42236328125;17.026596607784132;13.59038240002061;0.4234630150509309;-0.931640625;0.23095703125;-0.0390625;4.1875;-4.25;21.4375;
1441975960160942;0.48388671875;-0.51824951171875;-0.56646728515625;-0.4200439453125;16.958905108766935;13.585723785619244;0.4082451765048051;-0.94140625;0.2294921875;-0.04150390625;7.0;-4.5;26.375;
1441975960181943;0.47943115234375;-0.52252197265625;-0.56817626953125;-0.41754150390625;16.884408787933033;13.584676684726583;0.3943764449642707;-0.955078125;0.2197265625;-0.04296875;9.875;-4.25;31.0;
1441975960197944;0.4747314453125;-0.52728271484375;-0.56964111328125;-0.41497802734375;16.80647288257125;13.592808792955713;0.3870468918037333;-0.96142578125;0.2138671875;-0.0400390625;12.25;-3.75;35.1875;
1441975960220945;0.4697265625;-0.532470703125;-0.57098388671875;-0.41217041015625;16.723296270722603;13.607109672421625;0.3841425896573443;-0.97265625;0.20654296875;-0.03955078125;14.625;-2.875;39.0625;
1441975960241946;0.46466064453125;-0.53790283203125;-0.572265625;-0.4090576171875;16.636615033557433;13.626829813013888;0.3864783427602329;-0.9755859375;0.2041015625;-0.04443359375;16.5625;-1.5;42.5;
1441975960257947;0.459716796875;-0.54345703125;-0.573486328125;-0.405517578125;16.54730395972568;13.652585547978521;0.39590565345223944;-0.9697265625;0.2021484375;-0.0390625;16.875;0.25;45.5;
1441975960280949;0.4549560546875;-0.54901123046875;-0.57476806640625;-0.401611328125;16.456222077803307;13.680358287314164;0.40909488775858693;-0.96826171875;0.20556640625;-0.04345703125;16.3125;2.25;47.6875;
1441975960301950;0.4505615234375;-0.55438232421875;-0.57611083984375;-0.3973388671875;16.36540446198047;13.709480043627325;0.42644056955404175;-0.96484375;0.20556640625;-0.0458984375;14.4375;4.1875;49.3125;
1441975960317951;0.446533203125;-0.5595703125;-0.57745361328125;-0.39263916015625;16.27460778441624;13.740678574881661;0.44869090024831915;-0.96142578125;0.2041015625;-0.0419921875;11.8125;6.375;50.0;
1441975960340952;0.44287109375;-0.564453125;-0.578857421875;-0.38763427734375;16.18504525008041;13.770822221038065;0.472892097835464;-0.95068359375;0.21533203125;-0.04833984375;9.0625;8.25;50.0;
1441975960361953;0.43975830078125;-0.56903076171875;-0.5802001953125;-0.38238525390625;16.098642104394273;13.802448291768222;0.5015790746792408;-0.94189453125;0.2255859375;-0.04736328125;6.625;10.1875;49.3125;
1441975960377954;0.43731689453125;-0.5731201171875;-0.58148193359375;-0.37713623046875;16.01881426419038;13.833414151067245;0.5327792995288925;-0.939453125;0.24072265625;-0.05859375;3.6875;11.75;47.3125;
1441975960400956;0.4354248046875;-0.57659912109375;-0.582763671875;-0.37200927734375;15.946178990213369;13.86068404207721;0.5632968762489995;-0.9404296875;0.2490234375;-0.072265625;0.375;12.625;44.375;
1441975960421957;0.4342041015625;-0.579345703125;-0.58404541015625;-0.3670654296875;15.88257241753745;13.884447509327895;0.5938578719955536;-0.95166015625;0.26904296875;-0.072265625;-2.3125;13.0;40.3125;
1441975960437958;0.43377685546875;-0.5811767578125;-0.58538818359375;-0.362548828125;15.83134520104339;13.902949975373836;0.623045580268306;-0.94921875;0.29150390625;-0.0791015625;-5.5625;12.8125;34.75;
1441975960460959;0.43408203125;-0.58203125;-0.58673095703125;-0.358642578125;15.794145351121943;13.915715415406975;0.6496748445868723;-0.94189453125;0.29638671875;-0.083984375;-9.9375;12.0;28.625;
1441975960481960;0.43475341796875;-0.582275390625;-0.587890625;-0.35552978515625;15.768959821069144;13.924407133562163;0.6722012602132987;-0.93701171875;0.28662109375;-0.08349609375;-12.8125;10.5625;23.0625;
1441975960497961;0.43560791015625;-0.5821533203125;-0.58880615234375;-0.35321044921875;15.75365676264035;13.93048376191201;0.6906509453120906;-0.92724609375;0.26806640625;-0.07568359375;-13.4375;8.8125;18.1875;
1441975960520962;0.436767578125;-0.58172607421875;-0.58929443359375;-0.35162353515625;15.748724798700271;13.937599696892882;0.7085009383524771;-0.91162109375;0.2587890625;-0.07177734375;-11.875;7.375;13.8125;
1441975960541964;0.43817138671875;-0.5809326171875;-0.5894775390625;-0.35076904296875;15.753770149668687;13.94380979394812;0.7241570465982539;-0.90625;0.24755859375;-0.0654296875;-9.9375;6.625;9.3125;
1441975960557965;0.43975830078125;-0.58001708984375;-0.58935546875;-0.35064697265625;15.767100327603657;13.950570951729901;0.7381553321568359;-0.916015625;0.23193359375;-0.07080078125;-9.25;4.5;5.75;
1441975960580966;0.44140625;-0.57891845703125;-0.5889892578125;-0.35101318359375;15.78631025184206;13.957032254523902;0.7504079888279955;-0.91650390625;0.22216796875;-0.06298828125;-7.0625;3.9375;2.5;
1441975960601967;0.44305419921875;-0.57781982421875;-0.5882568359375;-0.3519287109375;15.810897075855719;13.965122201477307;0.7615899099100157;-0.92236328125;0.2236328125;-0.05859375;-5.25;3.25;-0.8125;
1441975960617968;0.44464111328125;-0.57672119140625;-0.58721923828125;-0.353515625;15.841279402905556;13.973284465497597;0.7697734291424774;-0.92724609375;0.22509765625;-0.0517578125;-2.9375;2.5625;-3.6875;
1441975960646970;0.446044921875;-0.575927734375;-0.585693359375;-0.35552978515625;15.873753198157683;13.985835398219171;0.7782501953550183;-0.92333984375;0.22607421875;-0.03466796875;0.5625;2.125;-6.5;
1441975960661970;0.447509765625;-0.57513427734375;-0.58404541015625;-0.35760498046875;15.907381101636668;14.000251336034676;0.7882410660760343;-0.9091796875;0.24365234375;-0.0419921875;4.875;1.625;-9.625;
1441975960677971;0.449462890625;-0.57403564453125;-0.58233642578125;-0.3597412109375;15.945984830975474;14.017200702749324;0.8026958405369191;-0.89599609375;0.27099609375;-0.0380859375;5.4375;2.1875;-13.25;
1441975960700973;0.45196533203125;-0.572265625;-0.580810546875;-0.36187744140625;15.990749158564924;14.032263261781889;0.8193373245821602;-0.89453125;0.291015625;-0.05224609375;3.25;2.25;-17.25;
1441975960722974;0.4549560546875;-0.56976318359375;-0.5794677734375;-0.3641357421875;16.042671733656828;14.044029233234212;0.8363925079997273;-0.900390625;0.29931640625;-0.0537109375;-0.5625;1.875;-21.4375;
1441975960737975;0.458251953125;-0.56683349609375;-0.5782470703125;-0.36663818359375;16.10016266847324;14.053407948573382;0.8527859459666827;-0.912109375;0.29736328125;-0.05419921875;-4.125;1.1875;-25.25;
1441975960760976;0.4617919921875;-0.5634765625;-0.57684326171875;-0.3695068359375;16.164816856106498;14.062938616971069;0.869672439892783;-0.91552734375;0.29541015625;-0.05615234375;-6.125;0.1875;-28.6875;
1441975960781977;0.46539306640625;-0.55999755859375;-0.57537841796875;-0.37261962890625;16.23255861495927;14.072563958675538;0.8862675632425845;-0.9111328125;0.28271484375;-0.05712890625;-6.5;-0.75;-31.75;
1441975960797978;0.4688720703125;-0.55633544921875;-0.5738525390625;-0.3759765625;16.302857242960474;14.079905299052003;0.8998790041882052;-0.9140625;0.2841796875;-0.0546875;-6.1875;-1.5625;-34.25;
1441975960820980;0.47222900390625;-0.55267333984375;-0.572265625;-0.37969970703125;16.37555801845877;14.085578433546406;0.9101939076984056;-0.91357421875;0.2861328125;-0.0498046875;-5.5;-2.625;-36.125;
1441975960841981;0.4754638671875;-0.5489501953125;-0.570556640625;-0.38348388671875;16.44888692912922;14.091418142119188;0.9200022086208488;-0.92919921875;0.28466796875;-0.0458984375;-4.0625;-3.75;-37.5625;
1441975960863982;0.478515625;-0.54522705078125;-0.5689697265625;-0.387451171875;16.522347316031077;14.092790631277325;0.924612113595631;-0.94140625;0.2880859375;-0.0537109375;-3.5;-5.0;-38.5;
1441975960879983;0.48126220703125;-0.54156494140625;-0.56744384765625;-0.39141845703125;16.59376665337906;14.09014151370754;0.9243461691416985;-0.95556640625;0.279296875;-0.046875;-2.75;-6.1875;-38.625;
1441975960902984;0.48370361328125;-0.53790283203125;-0.56610107421875;-0.39532470703125;16.662670363453312;14.08057594322654;0.917015255168939;-0.95751953125;0.27685546875;-0.0419921875;-2.1875;-6.8125;-38.0625;
1441975960917985;0.48590087890625;-0.53448486328125;-0.56488037109375;-0.39892578125;16.726137241703306;14.069439196624037;0.9079655880256196;-0.962890625;0.27392578125;-0.0302734375;-1.8125;-7.5625;-36.6875;
1441975960939986;0.4879150390625;-0.53118896484375;-0.56390380859375;-0.4022216796875;16.784810610632082;14.053982887448196;0.8953168474504419;-0.96044921875;0.27001953125;-0.02978515625;-2.0625;-7.5;-34.75;
1441975960961988;0.48974609375;-0.5281982421875;-0.5631103515625;-0.40509033203125;16.83680213312278;14.038136036429329;0.8826464429885652;-0.96240234375;0.2626953125;-0.02294921875;-2.8125;-7.25;-32.3125;
1441975960977989;0.49127197265625;-0.525634765625;-0.5625;-0.40740966796875;16.87984633824222;14.02273477517626;0.8704611081715352;-0.9619140625;0.2568359375;-0.0185546875;-3.1875;-6.3125;-29.375;
1441975960999990;0.49249267578125;-0.52337646484375;-0.56231689453125;-0.40911865234375;16.91339640426375;14.002422080280166;0.8546213582359832;-0.9619140625;0.255859375;-0.01904296875;-3.0625;-5.3125;-25.4375;
1441975961023991;0.49359130859375;-0.52154541015625;-0.56243896484375;-0.4100341796875;16.9366334265442;13.986289469921747;0.8445691675422191;-0.95703125;0.2529296875;-0.009765625;-4.125;-4.25;-21.0625;
1441975961037992;0.49444580078125;-0.52001953125;-0.56292724609375;-0.41021728515625;16.949996652552247;13.969456968188343;0.8354472641645955;-0.94921875;0.25244140625;-0.01708984375;-5.875;-3.125;-16.5;
1441975961059993;0.49517822265625;-0.51885986328125;-0.563720703125;-0.40966796875;16.953924158156674;13.95646865662784;0.8317794302119588;-0.9453125;0.25439453125;-0.0166015625;-7.8125;-2.0625;-12.1875;
1441975961082995;0.49560546875;-0.51812744140625;-0.56488037109375;-0.40850830078125;16.947819007190986;13.942760090140878;0.828115397312083;-0.947265625;0.26220703125;-0.02978515625;-9.0625;-1.25;-7.875;
1441975961097995;0.49578857421875;-0.517578125;-0.5662841796875;-0.406982421875;16.93576338023712;13.926311870466217;0.822274325210877;-0.95068359375;0.27294921875;-0.0400390625;-10.125;-0.875;-3.75;
1441975961119997;0.49554443359375;-0.5174560546875;-0.56787109375;-0.4052734375;16.916871555532666;13.906875346651335;0.8120459203537993;-0.9541015625;0.2568359375;-0.04052734375;-10.75;-1.0625;0.4375;
1441975961142998;0.4947509765625;-0.51800537109375;-0.5693359375;-0.40350341796875;16.891041041141808;13.890660048160163;0.8013744605504032;-0.94921875;0.2470703125;-0.0390625;-9.375;-1.5;4.8125;
1441975961157999;0.4935302734375;-0.51898193359375;-0.57086181640625;-0.401611328125;16.859262849795034;13.873850079587426;0.7881956167356251;-0.94482421875;0.2431640625;-0.04931640625;-6.25;-2.0625;8.9375;
1441975961180000;0.4918212890625;-0.52032470703125;-0.572509765625;-0.3995361328125;16.820913086275468;13.854606213588307;0.7710453941061554;-0.94580078125;0.24267578125;-0.05322265625;-4.125;-2.4375;12.6875;
1441975961203001;0.4898681640625;-0.5218505859375;-0.57427978515625;-0.3974609375;16.77966414396311;13.833124181759677;0.7507688664523197;-0.9453125;0.24267578125;-0.048828125;-2.875;-2.625;16.0;
1441975961218002;0.4876708984375;-0.52386474609375;-0.57586669921875;-0.395263671875;16.733953576042154;13.81957403315281;0.7361571300816204;-0.9453125;0.2314453125;-0.0380859375;-1.625;-2.6875;19.0625;
1441975961240004;0.48516845703125;-0.5262451171875;-0.5772705078125;-0.39306640625;16.685114245218767;13.810132253077125;0.7232208021940089;-0.9453125;0.21923828125;-0.04296875;0.5;-2.1875;22.125;
1441975961263005;0.482421875;-0.5291748046875;-0.57855224609375;-0.390625;16.630379884792895;13.80845587388814;0.7161267261391289;-0.943359375;0.21875;-0.03955078125;3.0;-1.0625;24.75;
1441975961284006;0.47979736328125;-0.5322265625;-0.5797119140625;-0.38800048828125;16.574709137564163;13.813142312678847;0.7155775254152716;-0.9267578125;0.23046875;-0.041015625;4.5625;0.125;26.8125;
1441975961300007;0.47723388671875;-0.535400390625;-0.58074951171875;-0.38519287109375;16.517769179691594;13.822756165577008;0.7199740003119819;-0.9287109375;0.22607421875;-0.0419921875;5.0625;1.5625;28.25;
1441975961323008;0.47491455078125;-0.53863525390625;-0.58172607421875;-0.38214111328125;16.460202488826027;13.837744916540634;0.7307947188440056;-0.92578125;0.23291015625;-0.05029296875;4.8125;2.875;28.875;
1441975961344009;0.47296142578125;-0.54156494140625;-0.58270263671875;-0.37884521484375;16.40456760094764;13.854399723655131;0.745954361519816;-0.92919921875;0.2451171875;-0.05859375;3.9375;4.0;28.8125;
1441975961361010;0.47137451171875;-0.54425048828125;-0.58367919921875;-0.37548828125;16.351823394956156;13.871896809988028;0.7638810525450785;-0.92822265625;0.25146484375;-0.0673828125;1.5625;5.0;27.9375;
1441975961383012;0.4703369140625;-0.54644775390625;-0.58453369140625;-0.37225341796875;16.306162158175578;13.890267920821488;0.78496289886927;-0.93359375;0.26025390625;-0.07373046875;-0.8125;5.75;26.1875;
1441975961404013;0.4696044921875;-0.54827880859375;-0.58526611328125;-0.3692626953125;16.266461354684548;13.90754323611887;0.8058220948026336;-0.9462890625;0.25;-0.0810546875;-2.8125;6.25;24.125;
1441975961420014;0.468994140625;-0.55010986328125;-0.58563232421875;-0.36669921875;16.231792234798043;13.927360302421217;0.8272480289885821;-0.95068359375;0.24560546875;-0.0791015625;-3.3125;6.375;22.0625;
1441975961443015;0.46856689453125;-0.55194091796875;-0.5855712890625;-0.36456298828125;16.202646899108906;13.951146234796195;0.8506646635146046;-0.9443359375;0.240234375;-0.07861328125;-1.625;6.5625;20.0;
1441975961464016;0.46832275390625;-0.5537109375;-0.585205078125;-0.36285400390625;16.178947452118674;13.976974914246641;0.874661237146271;-0.94677734375;0.2373046875;-0.08056640625;0.5625;7.125;17.6875;
1441975961480017;0.4683837890625;-0.55517578125;-0.5845947265625;-0.3614501953125;16.16162422869117;14.00406885766424;0.9000864480696459;-0.94775390625;0.240234375;-0.0791015625;2.125;7.5625;14.9375;
1441975961503019;0.46875;-0.55633544921875;-0.58392333984375;-0.3603515625;16.15008353104984;14.030428660403077;0.9254348187897784;-0.95703125;0.2373046875;-0.08349609375;2.0;7.4375;12.1875;
1441975961524020;0.469482421875;-0.55718994140625;-0.5830078125;-0.35955810546875;16.145181572627795;14.05912348996282;0.9534470849820352;-0.953125;0.2353515625;-0.076171875;1.6875;7.6875;9.4375;
1441975961547021;0.470458984375;-0.55780029296875;-0.58197021484375;-0.3590087890625;16.145060506553612;14.088512111891738;0.9824822165378178;-0.939453125;0.216796875;-0.07421875;1.1875;8.25;6.75;
1441975961563022;0.4716796875;-0.55853271484375;-0.58056640625;-0.3585205078125;16.146697514269867;14.125445199561938;1.0181659302502108;-0.927734375;0.2119140625;-0.0595703125;1.625;9.25;4.375;
1441975961584023;0.47332763671875;-0.558837890625;-0.5792236328125;-0.358154296875;16.153511946890614;14.162156078682301;1.0558886116592139;-0.9140625;0.22607421875;-0.072265625;2.5;10.4375;1.625;
1441975961600024;0.475341796875;-0.5587158203125;-0.57781982421875;-0.3577880859375;16.16454974864958;14.200421251306803;1.0973100943507001;-0.9111328125;0.228515625;-0.0654296875;1.0;11.3125;-1.375;
1441975961623025;0.477783203125;-0.55828857421875;-0.57647705078125;-0.35748291015625;16.17942591355921;14.24026129057306;1.142376128455914;-0.90673828125;0.23095703125;-0.06689453125;-1.375;11.6875;-4.625;
1441975961644027;0.48077392578125;-0.55718994140625;-0.5751953125;-0.3572998046875;16.20144188142613;14.280435899681724;1.1911164017269453;-0.90234375;0.24462890625;-0.07763671875;-3.375;11.8125;-8.125;
1441975961660028;0.48406982421875;-0.55572509765625;-0.57379150390625;-0.35736083984375;16.228959626536305;14.323064689134853;1.243174768083465;-0.89794921875;0.240234375;-0.08056640625;-6.375;11.5625;-11.75;
1441975961683029;0.4874267578125;-0.55426025390625;-0.572021484375;-0.35791015625;16.26104452699837;14.370993683761325;1.29819370489607;-0.89794921875;0.23388671875;-0.08203125;-7.125;11.3125;-14.9375;
1441975961704030;0.49078369140625;-0.55279541015625;-0.56982421875;-0.3590087890625;16.297968277885058;14.424818231375923;1.3562546676019709;-0.90234375;0.22607421875;-0.087890625;-5.0;11.125;-17.4375;
1441975961720031;0.49383544921875;-0.5516357421875;-0.56719970703125;-0.36077880859375;16.337413386597046;14.48333609184852;1.4140179298227196;-0.90283203125;0.2177734375;-0.0947265625;-2.0;10.0625;-20.0;
1441975961743032;0.496826171875;-0.550537109375;-0.564453125;-0.3626708984375;16.376753879835377;14.545686447343652;1.4745577498342681;-0.90234375;0.22607421875;-0.1005859375;2.6875;8.8125;-22.1875;
1441975961764033;0.4996337890625;-0.54962158203125;-0.56158447265625;-0.3646240234375;16.414155509157894;14.61153905423652;1.537030365012067;-0.88427734375;0.2353515625;-0.09814453125;4.3125;8.6875;-23.875;
1441975961780034;0.50213623046875;-0.5491943359375;-0.5582275390625;-0.3670654296875;16.451209161259545;14.685635438816197;1.6026075973092027;-0.88720703125;0.23828125;-0.09912109375;5.75;8.875;-24.4375;
1441975961809036;0.50421142578125;-0.54931640625;-0.5546875;-0.36932373046875;16.48088008849326;14.763886633470474;1.6695828817797638;-0.9052734375;0.23291015625;-0.09814453125;10.8125;9.3125;-24.125;
1441975961824037;0.50665283203125;-0.54888916015625;-0.55181884765625;-0.3709716796875;16.508501241951457;14.837398992699066;1.7381839285768;-0.9072265625;0.27001953125;-0.13720703125;13.3125;7.6875;-24.0;
1441975961848038;0.5093994140625;-0.5479736328125;-0.5491943359375;-0.37249755859375;16.538173722760416;14.911506785852438;1.810737136917163;-0.89404296875;0.275390625;-0.14697265625;7.125;7.25;-24.5625;
1441975961863039;0.51153564453125;-0.54803466796875;-0.54595947265625;-0.3741455078125;16.559919690752942;14.994603181732518;1.8856236092335878;-0.87841796875;0.20703125;-0.1123046875;4.125;9.25;-22.25;
1441975961884040;0.51287841796875;-0.5494384765625;-0.5423583984375;-0.37554931640625;16.567251291457712;15.080737543360828;1.9570577381214105;-0.84814453125;0.18896484375;-0.11279296875;10.5625;11.125;-18.5;
1441975961900041;0.51422119140625;-0.551025390625;-0.53887939453125;-0.3763427734375;16.56686323181005;15.16662986116238;2.0298914363821554;-0.81689453125;0.22265625;-0.11181640625;17.0625;13.0625;-15.5;
1441975961923043;0.515380859375;-0.55279541015625;-0.5357666015625;-0.3765869140625;16.558936719518947;15.244127580410451;2.095945461843312;-0.78759765625;0.2265625;-0.126953125;15.9375;14.0;-13.3125;
1441975961946044;0.51654052734375;-0.5545654296875;-0.53302001953125;-0.37628173828125;16.54537288405437;15.314424736639847;2.157467544168248;-0.77685546875;0.2431640625;-0.12890625;13.8125;14.625;-11.3125;
1441975961960045;0.51806640625;-0.55572509765625;-0.53082275390625;-0.37567138671875;16.533486962362204;15.377603272059028;2.2171478220051624;-0.783203125;0.26806640625;-0.1474609375;11.625;14.8125;-10.75;
1441975961983046;0.52008056640625;-0.55657958984375;-0.5286865234375;-0.37451171875;16.51898963021954;15.444615452799034;2.284761136230474;-0.779296875;0.236328125;-0.1220703125;6.0;15.75;-9.3125;
1441975962006047;0.52203369140625;-0.55767822265625;-0.52642822265625;-0.3734130859375;16.502308822101952;15.512031817702194;2.351349624063491;-0.76806640625;0.205078125;-0.11328125;2.3125;18.8125;-8.0625;
1441975962028049;0.52410888671875;-0.55902099609375;-0.523681640625;-0.37225341796875;16.482220345074644;15.58808537676391;2.4250214780396573;-0.763671875;0.18798828125;-0.0927734375;3.9375;21.25;-6.875;
1441975962043049;0.5262451171875;-0.560546875;-0.52069091796875;-0.3712158203125;16.460645243371317;15.66745538996486;2.500578814297771;-0.7744140625;0.18115234375;-0.0888671875;5.9375;24.4375;-6.625;
1441975962066051;0.5283203125;-0.562255859375;-0.5172119140625;-0.37054443359375;16.439215612695076;15.752741205770134;2.5788788224863066;-0.79443359375;0.15869140625;-0.087890625;7.375;26.3125;-5.625;
1441975962080052;0.52984619140625;-0.56451416015625;-0.513427734375;-0.37017822265625;16.414705962238692;15.834351614080065;2.6485645554075514;-0.81787109375;0.107421875;-0.0947265625;9.8125;26.6875;-3.0625;
1441975962103053;0.53094482421875;-0.5675048828125;-0.5093994140625;-0.36956787109375;16.381321703550924;15.911129839007335;2.7100879978871717;-0.80078125;0.06640625;-0.087890625;14.3125;27.3125;0.75;
1441975962126054;0.5322265625;-0.57086181640625;-0.5052490234375;-0.36822509765625;16.337767480693998;15.986682034599074;2.7716518512544353;-0.77880859375;0.06982421875;-0.0869140625;17.6875;29.25;4.0;
1441975962147055;0.5340576171875;-0.57366943359375;-0.5015869140625;-0.36627197265625;16.292759786579513;16.05623704173781;2.8335776402743877;-0.77587890625;0.10986328125;-0.10693359375;16.8125;32.375;4.0;
1441975962163056;0.53656005859375;-0.5751953125;-0.49859619140625;-0.3642578125;16.2566517848881;16.121395679554823;2.8988732253047984;-0.77490234375;0.1337890625;-0.14404296875;10.3125;31.625;1.5625;
1441975962186058;0.5391845703125;-0.5765380859375;-0.49517822265625;-0.36297607421875;16.22616938896833;16.194613928212334;2.9697197017045935;-0.79052734375;0.11962890625;-0.15087890625;3.0;28.9375;-2.0625;
1441975962207059;0.5413818359375;-0.5782470703125;-0.49072265625;-0.36297607421875;16.20068094248189;16.28027222029266;3.043960860622207;-0.79296875;0.08349609375;-0.1767578125;4.9375;27.0625;-3.875;
1441975962223060;0.54248046875;-0.5814208984375;-0.48486328125;-0.3642578125;16.171836639525736;16.374453074455328;3.1114697759974934;-0.79443359375;0.037109375;-0.17041015625;13.5625;26.1875;-3.75;
1441975962246061;0.542724609375;-0.58563232421875;-0.47802734375;-0.36602783203125;16.13676592828552;16.4704601338693;3.1710799935802614;-0.78125;0.04638671875;-0.18359375;28.625;25.875;-3.5625;
1441975962267062;0.543212890625;-0.58880615234375;-0.47186279296875;-0.36822509765625;16.112986741599453;16.561933000195516;3.230521284005665;-0.7783203125;0.1142578125;-0.21630859375;39.125;25.5;-5.625;
1441975962283063;0.54351806640625;-0.5911865234375;-0.46575927734375;-0.37176513671875;16.105149042314867;16.658389537593543;3.2929468410548077;-0.79150390625;0.10400390625;-0.20849609375;35.0625;21.625;-9.0625;
1441975962306065;0.5430908203125;-0.59423828125;-0.4588623046875;-0.3760986328125;16.096588597576467;16.759714347063053;3.3515527823622464;-0.80859375;0.0537109375;-0.18603515625;36.625;17.0;-11.4375;
1441975962327066;0.5423583984375;-0.59783935546875;-0.4515380859375;-0.3802490234375;16.08055756927147;16.85979699859418;3.4057262722737973;-0.80908203125;0.06982421875;-0.20068359375;45.5;15.5;-12.125;
1441975962343067;0.542236328125;-0.6007080078125;-0.44451904296875;-0.38421630859375;16.06630724095867;16.961982661603457;3.467303590563491;-0.80419921875;0.10791015625;-0.23828125;48.875;15.875;-13.125;
1441975962366068;0.54241943359375;-0.603515625;-0.437744140625;-0.38726806640625;16.043851872741484;17.056908548083626;3.5260359816520577;-0.8095703125;0.068359375;-0.240234375;43.5;15.6875;-14.0625;
1441975962387069;0.54254150390625;-0.60662841796875;-0.431640625;-0.38909912109375;16.011642095402408;17.132002483072764;3.5693391097276637;-0.81640625;0.041015625;-0.259765625;38.4375;18.0;-11.0;
1441975962403070;0.54302978515625;-0.6083984375;-0.4271240234375;-0.39068603515625;15.9913179585275;17.193581992606052;3.609413117535519;-0.84912109375;0.07763671875;-0.337890625;33.8125;17.1875;-8.0;
1441975962426071;0.54254150390625;-0.6103515625;-0.42333984375;-0.39239501953125;15.97663850803201;17.23736566642696;3.630084069012798;-0.9130859375;0.00732421875;-0.34033203125;21.875;12.1875;-4.6875;
1441975962447073;0.54046630859375;-0.61346435546875;-0.41961669921875;-0.3944091796875;15.962189983122464;17.26380052239433;3.6246888406330324;-0.95703125;-0.0078125;-0.369140625;21.75;6.875;1.6875;
1441975962463073;0.53729248046875;-0.61724853515625;-0.41552734375;-0.39715576171875;15.951062962050607;17.287319939039865;3.608012541885777;-0.9755859375;0.02685546875;-0.40771484375;29.75;2.75;7.875;
1441975962486075;0.5333251953125;-0.621826171875;-0.41021728515625;-0.40081787109375;15.939065289877833;17.321143615178297;3.5907614595295048;-0.98193359375;0.005859375;-0.42431640625;36.625;-0.375;12.8125;
1441975962507076;0.5279541015625;-0.62762451171875;-0.40411376953125;-0.4051513671875;15.925659595021097;17.351837718548598;3.5584251304264782;-0.98974609375;-0.001953125;-0.46240234375;47.0;-2.5;13.125;
1441975962523077;0.52227783203125;-0.63275146484375;-0.3984375;-0.41009521484375;15.924315863652776;17.38208743563907;3.5261726375164626;-0.9755859375;0.06396484375;-0.4619140625;60.0;-3.0;13.625;
1441975962552079;0.51654052734375;-0.636962890625;-0.39276123046875;-0.416259765625;15.93859551108035;17.423986817474862;3.504561449091887;-0.98291015625;0.08984375;-0.4501953125;60.375;-7.5625;10.4375;
1441975962574080;0.50970458984375;-0.64129638671875;-0.38641357421875;-0.42388916015625;15.964195846607565;17.474212640982145;3.481532161294032;-0.96826171875;0.04248046875;-0.40283203125;61.0;-11.5;8.125;
1441975962583080;0.5018310546875;-0.64642333984375;-0.37945556640625;-0.43170166015625;15.98712876966247;17.52082560009008;3.447168800098914;-0.95166015625;0.04345703125;-0.35498046875;71.375;-14.875;6.6875;
1441975962606082;0.49444580078125;-0.65155029296875;-0.37237548828125;-0.4385986328125;16.00099560151083;17.566650612710273;3.4156129009737;-0.9052734375;0.0986328125;-0.3740234375;79.75;-16.375;6.8125;
1441975962627083;0.48797607421875;-0.65594482421875;-0.36688232421875;-0.4439697265625;16.01202862716096;17.594163329900283;3.3796140883576005;-0.9013671875;0.130859375;-0.4208984375;76.8125;-14.75;4.0;
1441975962643084;0.48297119140625;-0.65826416015625;-0.36395263671875;-0.4483642578125;16.035273247171688;17.606340720830694;3.3490926282104465;-0.93115234375;0.1650390625;-0.4306640625;64.0625;-13.75;3.3125;
1441975962666085;0.4788818359375;-0.65972900390625;-0.3616943359375;-0.452392578125;16.061017768947814;17.619610398079896;3.3279229243770545;-0.919921875;0.13720703125;-0.36279296875;42.75;-15.3125;2.375;
1441975962687086;0.4744873046875;-0.662353515625;-0.35858154296875;-0.4556884765625;16.071025287504277;17.62975414282427;3.2987855800758044;-0.9013671875;0.06396484375;-0.31103515625;33.8125;-13.4375;4.0;
1441975962703087;0.4698486328125;-0.6658935546875;-0.35577392578125;-0.45751953125;16.066021880033155;17.619276889433564;3.250580552055728;-0.8935546875;0.08984375;-0.36572265625;38.375;-10.0;5.4375;
1441975962733089;0.46600341796875;-0.6680908203125;-0.3544921875;-0.459228515625;16.072501293910467;17.602473617018426;3.2072946797251665;-0.9892578125;0.16552734375;-0.48095703125;37.375;-8.625;7.9375;
1441975962747090;0.46343994140625;-0.66888427734375;-0.35394287109375;-0.46112060546875;16.08826251985846;17.59552764989332;3.18351659805189;-1.0966796875;0.15478515625;-0.48046875;26.3125;-11.8125;7.0;
1441975962763091;0.46234130859375;-0.66888427734375;-0.3526611328125;-0.463134765625;16.102120327080144;17.615441957574372;3.1906597793522304;-1.1123046875;0.11279296875;-0.431640625;16.6875;-12.375;2.4375;
1441975962785092;0.46221923828125;-0.668701171875;-0.35052490234375;-0.4652099609375;16.110628222064374;17.65652229696401;3.219672977970321;-1.0830078125;0.05322265625;-0.392578125;13.1875;-8.1875;-3.25;
1441975962807093;0.46246337890625;-0.6689453125;-0.3480224609375;-0.4664306640625;16.106602499779385;17.697485040611486;3.2495917262980734;-1.041015625;0.01416015625;-0.37744140625;12.9375;-4.4375;-8.0625;
1441975962823094;0.46240234375;-0.66949462890625;-0.34613037109375;-0.4671630859375;16.100508903268935;17.722955220162188;3.265473460980014;-1.03369140625;0.01123046875;-0.39404296875;12.125;0.1875;-7.75;
1441975962845095;0.46112060546875;-0.6708984375;-0.343505859375;-0.46832275390625;16.09322815754752;17.745296265664088;3.2686340548369617;-1.03369140625;0.017578125;-0.39501953125;9.6875;0.625;-3.75;
1441975962868097;0.45855712890625;-0.673583984375;-0.34014892578125;-0.46942138671875;16.078666269061728;17.758374025921615;3.252871116433792;-1.07275390625;-0.01220703125;-0.38037109375;18.375;3.1875;2.25;
1441975962883098;0.4552001953125;-0.6763916015625;-0.337158203125;-0.47076416015625;16.069703689294837;17.761243108982484;3.2245874444461053;-1.0751953125;0.0302734375;-0.42822265625;27.8125;3.0;5.8125;
1441975962912099;0.45263671875;-0.6778564453125;-0.33538818359375;-0.472412109375;16.074269198310994;17.764974096881105;3.2063967437021446;-1.0830078125;0.07861328125;-0.43603515625;30.3125;-0.25;6.375;
1441975962928100;0.450439453125;-0.67864990234375;-0.3330078125;-0.47515869140625;16.087540943938077;17.790584766753497;3.208273399956659;-1.06982421875;0.0576171875;-0.40478515625;21.625;-4.9375;3.875;
1441975962943101;0.44683837890625;-0.67999267578125;-0.3294677734375;-0.47900390625;16.105493129838944;17.82344750408257;3.204900016527861;-1.06689453125;-0.0185546875;-0.38525390625;22.75;-7.75;1.875;
1441975962973103;0.4412841796875;-0.6826171875;-0.324951171875;-0.4835205078125;16.123244034043154;17.84950805186932;3.180283893041838;-1.12158203125;-0.0322265625;-0.39892578125;34.5625;-9.875;4.25;
1441975962988104;0.43487548828125;-0.68572998046875;-0.32086181640625;-0.48760986328125;16.139711191126757;17.856712484927563;3.13523340260822;-1.17236328125;0.0126953125;-0.42919921875;49.25;-11.875;7.9375;
1441975963003104;0.42950439453125;-0.68817138671875;-0.31854248046875;-0.490478515625;16.155172623969534;17.845149112496642;3.0853324379485896;-1.18798828125;0.10302734375;-0.46142578125;51.5625;-12.8125;8.3125;
1441975963025106;0.4268798828125;-0.688232421875;-0.3184814453125;-0.49267578125;16.180694184176108;17.837038173626105;3.062953343938667;-1.19677734375;0.17431640625;-0.4599609375;39.1875;-12.75;5.0625;
1441975963049107;0.42608642578125;-0.6866455078125;-0.31903076171875;-0.4952392578125;16.21582341980621;17.849473257742005;3.0724042360374098;-1.22314453125;0.1357421875;-0.42822265625;15.5625;-14.875;-1.1875;
1441975963069108;0.424072265625;-0.687255859375;-0.3170166015625;-0.49737548828125;16.226703911850134;17.869251722199394;3.0722040940060515;-1.28125;0.03271484375;-0.40576171875;3.6875;-16.9375;-4.9375;
1441975963085109;0.421630859375;-0.68792724609375;-0.314697265625;-0.5;16.24114233241345;17.89240797650989;3.0716485252908745;-1.283203125;0.07958984375;-0.53955078125;21.5;-14.25;-4.3125;
1441975963108110;0.4208984375;-0.68743896484375;-0.31329345703125;-0.502197265625;16.257513775925286;17.923538695184682;3.091647239921058;-1.33447265625;0.044921875;-0.53662109375;24.0;-15.0;-2.25;
1441975963129112;0.42279052734375;-0.6854248046875;-0.31304931640625;-0.50347900390625;16.27181297727565;17.96710513179001;3.1425366765230476;-1.287109375;0.03076171875;-0.5400390625;12.375;-17.375;-7.6875;
1441975963145112;0.42523193359375;-0.6834716796875;-0.3118896484375;-0.5047607421875;16.278803081053535;0.028514475916954034;3.209859634676478;-1.24462890625;0.0205078125;-0.48681640625;-4.5625;-13.5625;-16.5;
1441975963176114;0.42510986328125;-0.6845703125;-0.30706787109375;-0.50634765625;16.26122620431184;0.09672030650607645;3.255045132742578;-1.2607421875;-0.1015625;-0.42041015625;-5.1875;-5.5;-13.375;
1441975963189115;0.42547607421875;-0.697998046875;-0.291015625;-0.49713134765625;16.031801887047713;0.14276550162198007;3.2370752323691505;-1.28515625;-0.14208984375;-0.52294921875;22.3125;0.125;-5.0625;
1441975963206116;0.42791748046875;-0.6856689453125;-0.28607177734375;-0.51470947265625;16.19254344973162;0.4469144997265848;3.5213473967178315;-0.90478515625;-0.0595703125;-1.1474609375;63.0625;59.8125;3.1875;
1441975963236118;0.42498779296875;-0.6865234375;-0.2806396484375;-0.51904296875;16.20114896325819;0.5208318343065325;3.5549090531321994;-1.4287109375;-0.5107421875;-0.04443359375;24.25;-61.0;-53.6875;
1441975963250118;0.42352294921875;-0.69354248046875;-0.2740478515625;-0.514404296875;16.100930465317255;0.49181287981771193;3.4923905856766986;-1.01806640625;-0.03466796875;-0.50732421875;42.9375;-18.3125;-11.3125;
1441975963265119;0.42449951171875;-0.69573974609375;-0.28076171875;-0.5069580078125;16.06835137791174;0.34490960081912153;3.383642972871114;-0.9560546875;0.12646484375;-0.5224609375;35.4375;39.625;-1.75;
1441975963288121;0.425048828125;-0.6904296875;-0.2867431640625;-0.51031494140625;16.151927699398357;0.3430319343708733;3.4089448802098716;-1.314453125;0.322265625;-0.24462890625;-36.25;35.3125;7.625;
1441975963309122;0.4215087890625;-0.68731689453125;-0.28289794921875;-0.5196533203125;16.230402211106345;0.46563581505240037;3.492486376441623;-1.47998046875;-0.205078125;-0.0244140625;-30.5;-10.75;6.375;
1441975963325123;0.409912109375;-0.6888427734375;-0.2784423828125;-0.5291748046875;16.318140303168395;0.4997590530889505;3.447026280681037;-1.119140625;-0.345703125;-0.14501953125;36.3125;-28.75;-0.6875;
1441975963348124;0.4027099609375;-0.6881103515625;-0.2816162109375;-0.533935546875;16.406399681370544;0.44495392601367145;3.3697668480808423;-1.171875;0.1103515625;-0.26611328125;80.8125;-35.1875;9.0625;
1441975963369125;0.39892578125;-0.68817138671875;-0.287109375;-0.53375244140625;16.45049462335566;0.329858218564076;3.2610116309221393;-1.0556640625;0.29296875;-0.20166015625;25.6875;-33.3125;5.6875;
1441975963385126;0.39508056640625;-0.69061279296875;-0.29046630859375;-0.53167724609375;16.45360624220335;0.20334199491891378;3.132021715084063;-0.90966796875;0.244140625;-0.2724609375;-5.375;-19.5625;13.5;
1441975963408128;0.387939453125;-0.697509765625;-0.29132080078125;-0.52740478515625;16.40977774832966;0.029317161256627106;2.930315472809488;-0.67138671875;0.2431640625;-0.31005859375;2.8125;-6.75;16.875;
1441975963429129;0.38421630859375;-0.709228515625;-0.29833984375;-0.5103759765625;16.238063460366035;17.706193357573998;2.6295652476931326;-0.36767578125;0.412109375;-0.45263671875;28.125;1.25;26.0;
1441975963445130;0.38690185546875;-0.7149658203125;-0.3135986328125;-0.49078369140625;16.079951156264308;17.397578835558654;2.4130955827544263;-0.36962890625;0.7373046875;-0.76904296875;-21.25;38.125;42.375;
1441975963468131;0.3912353515625;-0.71759033203125;-0.32696533203125;-0.4744873046875;15.951652580414507;17.18703213694632;2.293836475831797;-0.576171875;0.47802734375;-0.69775390625;-95.9375;33.5625;51.3125;
1441975963489132;0.390869140625;-0.72198486328125;-0.34039306640625;-0.4583740234375;15.811941236884131;16.9530249031349;2.130951187946704;-0.67529296875;0.0810546875;-0.53125;-99.6875;33.4375;54.8125;
1441975963505133;0.3922119140625;-0.72418212890625;-0.3563232421875;-0.44140625;15.674488313363796;16.726233994724428;1.9970718352250763;-0.45654296875;0.33447265625;-0.380859375;-77.5625;33.5;60.6875;
1441975963536135;0.39813232421875;-0.7220458984375;-0.37298583984375;-0.42559814453125;15.571295254707419;16.54754289453944;1.937313725751706;-0.34130859375;0.330078125;-0.33251953125;-98.75;30.0625;57.4375;
1441975963550136;0.40673828125;-0.71661376953125;-0.38970947265625;-0.41131591796875;15.502683615428579;16.398302007384203;1.9209498033305932;-0.3330078125;0.2060546875;-0.3232421875;-123.9375;31.625;42.875;
1441975963565137;0.41851806640625;-0.70782470703125;-0.40655517578125;-0.39825439453125;15.469289227566188;16.27460636397813;1.9466946572543145;-0.35498046875;0.1015625;-0.3681640625;-135.0625;22.5;23.0;
1441975963588138;0.4307861328125;-0.69842529296875;-0.4237060546875;-0.383544921875;15.426355948457772;16.149397993272558;1.9794097348805626;-0.4423828125;0.0068359375;-0.40478515625;-148.9375;16.1875;1.8125;
1441975963611139;0.4404296875;-0.6925048828125;-0.438232421875;-0.36676025390625;15.336703068263606;16.035535731748087;2.003111762722345;-0.4560546875;-0.03466796875;-0.4150390625;-156.6875;22.0;3.875;
1441975963625140;0.44647216796875;-0.6912841796875;-0.44915771484375;-0.347900390625;15.189417926108614;15.939761360322887;2.015429487511513;-0.4169921875;-0.09619140625;-0.48046875;-138.25;37.0625;23.0;
1441975963648141;0.45050048828125;-0.69598388671875;-0.45025634765625;-0.33172607421875;15.01500353837962;15.940240630124462;2.0635995689997704;-0.3955078125;-0.2236328125;-0.4560546875;-110.5;55.1875;48.9375;
1441975963669142;0.4544677734375;-0.7000732421875;-0.4534912109375;-0.3126220703125;14.819918421530774;15.913287540022766;2.101153709676979;-0.46728515625;-0.2431640625;-0.587890625;-61.0625;57.6875;65.8125;
1441975963685143;0.46063232421875;-0.70086669921875;-0.45648193359375;-0.29718017578125;14.682826344457933;15.900443356921272;2.1584616285334812;-0.43017578125;-0.21728515625;-0.39404296875;-74.1875;74.625;73.625;
1441975963707145;0.46337890625;-0.70294189453125;-0.455078125;-0.2900390625;14.60426521320516;15.919221473699574;2.1959474328256743;-0.38818359375;-0.2685546875;-0.52783203125;-81.9375;51.75;48.9375;
1441975963721145;0.4637451171875;-0.70526123046875;-0.45172119140625;-0.28912353515625;14.576140087985085;15.951063374984098;2.214441597229194;-0.31689453125;-0.337890625;-0.33203125;-30.375;33.375;38.3125;
1441975963744147;0.46307373046875;-0.7034912109375;-0.4473876953125;-0.301025390625;14.690778655533663;16.00219083806506;2.221005494588228;-0.28173828125;-0.13330078125;-0.31103515625;4.625;7.875;16.0;
1441975963768148;0.45977783203125;-0.6982421875;-0.44085693359375;-0.3267822265625;14.950466283125415;16.080593355946174;2.2109997168283746;-0.390625;-0.2412109375;-0.07470703125;36.75;-34.5625;-16.375;
1441975963781149;0.453857421875;-0.6942138671875;-0.4273681640625;-0.35992431640625;15.256834748930226;16.23180696876346;2.221260728599714;-0.494140625;-0.43212890625;0.13525390625;77.4375;-82.75;-41.5;
1441975963804150;0.45361328125;-0.68878173828125;-0.422119140625;-0.3763427734375;15.434143281910966;16.316469934335554;2.259132617080619;-0.47021484375;-0.32861328125;-0.275390625;138.75;-120.8125;-88.75;
1441975963818151;0.45654296875;-0.68017578125;-0.4354248046875;-0.373291015625;15.487408683392967;16.18410371314248;2.20955451882327;-0.1845703125;0.20947265625;-0.375;49.6875;-82.3125;-74.3125;
1441975963841152;0.4615478515625;-0.66986083984375;-0.45281982421875;-0.3651123046875;15.510228056057718;16.009043900581155;2.1550069180547116;-0.77587890625;0.400390625;-0.3583984375;-84.0;-38.3125;-9.875;
1441975963864154;0.4609375;-0.66180419921875;-0.4625244140625;-0.36834716796875;15.604792191365407;15.890803094615602;2.0782136327818734;-1.416015625;0.068359375;-0.26171875;-126.75;-19.3125;16.6875;
1441975963879154;0.45391845703125;-0.66339111328125;-0.45635986328125;-0.38165283203125;15.701715228835788;15.922312311648268;2.0280392087645573;-1.81982421875;0.05908203125;-0.1484375;-50.3125;-26.875;24.3125;
1441975963901156;0.442626953125;-0.6748046875;-0.445556640625;-0.3875732421875;15.656194536409537;15.97594315396011;1.9656186384218937;-1.83203125;0.01123046875;-0.32763671875;71.4375;-32.9375;16.0;
1441975963924157;0.435546875;-0.67962646484375;-0.45037841796875;-0.38165283203125;15.564391197365046;15.864815950785019;1.8502312958058769;-1.5908203125;0.7685546875;-0.599609375;112.5625;-0.125;28.125;
1441975963940158;0.43328857421875;-0.68389892578125;-0.45196533203125;-0.3746337890625;15.469080039811494;15.831911324220517;1.8224948114769612;-1.482421875;0.62109375;-0.1728515625;3.8125;24.25;54.75;
1441975963971160;0.4302978515625;-0.69537353515625;-0.4476318359375;-0.36187744140625;15.26832671581654;15.865938415010055;1.8365254978307286;-1.7392578125;0.1455078125;-0.14111328125;-7.25;56.25;68.0625;
1441975963984160;0.42523193359375;-0.713134765625;-0.4393310546875;-0.3431396484375;14.964649383455736;15.925866334341343;1.8559066057766953;-1.5517578125;0.29150390625;-0.2744140625;22.1875;97.875;79.875;
1441975964000161;0.4183349609375;-0.732177734375;-0.42742919921875;-0.3260498046875;14.661507539352431;16.004220961566784;1.8675006393780373;-1.5498046875;0.5009765625;-0.34033203125;44.25;123.9375;96.375;
1441975964021163;0.41217041015625;-0.7508544921875;-0.4151611328125;-0.306640625;14.338638578100403;16.07881989913397;1.8826056191705431;-1.62451171875;0.55419921875;-0.51318359375;69.375;123.4375;96.3125;
1441975964044164;0.40863037109375;-0.7642822265625;-0.40655517578125;-0.2891845703125;14.074003894748179;16.125855906928045;1.899170353538224;-1.455078125;0.87548828125;-0.63232421875;64.9375;133.75;92.1875;
1441975964058165;0.40667724609375;-0.77081298828125;-0.40533447265625;-0.27606201171875;13.904553713155929;16.117822575275156;1.897727684462484;-1.40625;0.93359375;-0.59228515625;38.0625;114.875;70.25;
1441975964090167;0.4068603515625;-0.77294921875;-0.40679931640625;-0.2677001953125;13.813830494307107;16.099294664205438;1.9013974809894703;-1.3779296875;0.8828125;-0.6005859375;8.625;85.5;43.875;
1441975964104167;0.40875244140625;-0.7723388671875;-0.408447265625;-0.26385498046875;13.7855333377531;16.088656183743144;1.9147825254534567;-1.365234375;0.78466796875;-0.5625;-8.6875;58.75;24.0;
1441975964118168;0.41302490234375;-0.76910400390625;-0.40972900390625;-0.26483154296875;13.822183770974213;16.093173351647785;1.9442743370245006;-1.322265625;0.7412109375;-0.5595703125;-9.25;37.0625;1.4375;
1441975964141169;0.4190673828125;-0.76336669921875;-0.41094970703125;-0.2698974609375;13.915129929200148;16.108383251136818;1.9858610458061308;-1.33447265625;0.69140625;-0.59228515625;-8.8125;15.875;-24.5625;
1441975964164171;0.425537109375;-0.7557373046875;-0.41302490234375;-0.27789306640625;14.049024603749427;16.122412793212032;2.027580200587034;-1.384765625;0.681640625;-0.59423828125;-7.9375;-1.0;-47.4375;
1441975964187172;0.432861328125;-0.74530029296875;-0.417236328125;-0.288330078125;14.227409938322438;16.12615629026669;2.0696765851919605;-1.365234375;0.74853515625;-0.58984375;-6.9375;-19.75;-65.5;
1441975964201173;0.441162109375;-0.732177734375;-0.423095703125;-0.3006591796875;14.443799735144633;16.12377341177953;2.1159670686334846;-1.33935546875;0.71240234375;-0.6015625;-20.125;-42.5;-79.875;
1441975964225174;0.45037841796875;-0.71722412109375;-0.43023681640625;-0.3126220703125;14.671027902597622;16.11581760350178;2.169172766690831;-1.375;0.60693359375;-0.57568359375;-33.875;-57.125;-88.4375;
1441975964239175;0.4619140625;-0.69952392578125;-0.43939208984375;-0.3228759765625;14.905161001845547;16.101194235669734;2.241003112714388;-1.287109375;0.55908203125;-0.560546875;-47.8125;-65.4375;-95.9375;
1441975964261176;0.4736328125;-0.6820068359375;-0.4468994140625;-0.33306884765625;15.134723039035842;16.108871456944478;2.3292363437843804;-1.20263671875;0.31982421875;-0.39404296875;-75.5625;-66.3125;-100.125;
1441975964284178;0.484375;-0.66607666015625;-0.45556640625;-0.33795166015625;15.30632602448755;16.095287745849653;2.4064689451755576;-1.130859375;0.1767578125;-0.27978515625;-69.8125;-50.5625;-92.8125;
1441975964299179;0.49468994140625;-0.65093994140625;-0.4652099609375;-0.33941650390625;15.44342193759859;16.065029690933912;2.47555993822311;-1.04443359375;0.23779296875;-0.27734375;-81.375;-36.75;-75.5625;
1441975964321180;0.50537109375;-0.6363525390625;-0.473876953125;-0.33935546875;15.561707696697857;16.047469107508125;2.5578442295173383;-0.95703125;0.16455078125;-0.265625;-93.125;-28.8125;-59.125;
1441975964344181;0.5145263671875;-0.6239013671875;-0.48040771484375;-0.33941650390625;15.662142710630212;16.045696438624862;2.638193120506452;-0.83056640625;0.06982421875;-0.31591796875;-96.5625;-25.3125;-53.375;
1441975964367182;0.5213623046875;-0.6143798828125;-0.48577880859375;-0.33880615234375;15.733846332728085;16.039051551863135;2.6967098281422057;-0.76220703125;0.017578125;-0.32568359375;-80.75;-23.0625;-44.8125;
1441975964381183;0.5264892578125;-0.6063232421875;-0.4908447265625;-0.33807373046875;15.79375020630282;16.02198760172865;2.73491480874348;-0.67919921875;0.111328125;-0.3818359375;-64.8125;-23.6875;-36.0625;
1441975964404185;0.530517578125;-0.59906005859375;-0.49542236328125;-0.338134765625;15.854314195380429;16.003606740889065;2.762440792557567;-0.615234375;0.16455078125;-0.42333984375;-56.1875;-29.0;-30.6875;
1441975964427186;0.533203125;-0.59246826171875;-0.49920654296875;-0.33990478515625;15.923788108284079;15.987579596239568;2.779048522942408;-0.56005859375;0.1669921875;-0.45361328125;-48.375;-35.375;-28.5;
1441975964442187;0.53466796875;-0.58642578125;-0.50244140625;-0.34326171875;16.00238911890718;15.971158279872947;2.783783896953381;-0.525390625;0.18798828125;-0.48193359375;-35.75;-44.3125;-31.0;
1441975964464188;0.5341796875;-0.581787109375;-0.5047607421875;-0.3485107421875;16.086002500172615;15.951497061350615;2.7672768889663293;-0.5107421875;0.20263671875;-0.4951171875;-24.9375;-52.0625;-32.125;
1441975964487189;0.53173828125;-0.5787353515625;-0.50640869140625;-0.3548583984375;16.1666237180372;15.920985942590345;2.724517397754634;-0.498046875;0.205078125;-0.49365234375;-8.0;-59.1875;-29.1875;
1441975964501190;0.5289306640625;-0.576904296875;-0.50738525390625;-0.36065673828125;16.232187288206067;15.89128025247657;2.677697499914928;-0.44970703125;0.2548828125;-0.48046875;7.125;-63.625;-26.625;
1441975964524191;0.5255126953125;-0.57684326171875;-0.507568359375;-0.36541748046875;16.274231677890572;15.860940121116487;2.6241836080151346;-0.36669921875;0.2646484375;-0.44482421875;12.625;-58.0625;-23.5625;
1441975964547193;0.52069091796875;-0.57879638671875;-0.5074462890625;-0.369384765625;16.293539612668265;15.815110107639876;2.546785711741958;-0.31298828125;0.25537109375;-0.40185546875;19.25;-48.25;-15.25;
1441975964561193;0.51409912109375;-0.58270263671875;-0.50714111328125;-0.372802734375;16.291973663134375;15.74969977975435;2.4401614573115347;-0.3251953125;0.2646484375;-0.34765625;26.9375;-40.875;-2.9375;
1441975964592195;0.5072021484375;-0.5867919921875;-0.508056640625;-0.3746337890625;16.274430356425874;15.66046143280122;2.3164621409657338;-0.39501953125;0.28564453125;-0.31982421875;36.0625;-36.875;9.375;
1441975964607196;0.50006103515625;-0.59130859375;-0.5093994140625;-0.37530517578125;16.24126856764422;15.564118230312014;2.1883316467919194;-0.5087890625;0.35888671875;-0.296875;29.875;-32.625;15.5625;
1441975964621197;0.4930419921875;-0.5953369140625;-0.5108642578125;-0.37628173828125;16.211995333031332;15.470616456381626;2.064251235754555;-0.6943359375;0.4091796875;-0.30322265625;26.9375;-27.5625;21.4375;
1441975964644198;0.48468017578125;-0.600341796875;-0.51263427734375;-0.37677001953125;16.166582453256805;15.364340982455587;1.9229648694511856;-0.8603515625;0.345703125;-0.27685546875;24.9375;-26.125;26.9375;
1441975964667200;0.47528076171875;-0.6064453125;-0.51495361328125;-0.375732421875;16.09437881862484;15.250447078898706;1.7738503492116626;-0.90771484375;0.31298828125;-0.1953125;28.5625;-21.3125;40.125;
1441975964681200;0.46478271484375;-0.6142578125;-0.5169677734375;-0.3734130859375;15.992970175306379;15.147332760399534;1.6301087424518927;-0.845703125;0.3212890625;-0.0673828125;30.3125;-10.75;51.75;
1441975964703202;0.45245361328125;-0.6251220703125;-0.5189208984375;-0.3677978515625;15.83367591109836;15.05726950099935;1.4944270092169805;-0.8212890625;0.2724609375;0.01513671875;36.125;0.25;67.75;
1441975964727203;0.4405517578125;-0.6380615234375;-0.51959228515625;-0.3590087890625;15.633218072739629;15.013315159526528;1.4052294809219015;-0.828125;0.40234375;0.0224609375;42.375;13.9375;85.1875;
1441975964741204;0.42718505859375;-0.65283203125;-0.5201416015625;-0.3475341796875;15.391630208062914;14.98127713138345;1.3252878797588508;-0.896484375;0.4541015625;0.001953125;39.8125;25.0;101.75;
1441975964763205;0.41259765625;-0.669189453125;-0.52105712890625;-0.3323974609375;15.10228163036949;14.957996548483216;1.2569556759031826;-0.919921875;0.4921875;-0.03564453125;41.9375;34.0;119.9375;
1441975964787206;0.39642333984375;-0.6846923828125;-0.52508544921875;-0.31378173828125;14.776754769159377;14.908241639186539;1.178686007241452;-0.88916015625;0.52392578125;-0.07421875;38.9375;46.0625;140.4375;
1441975964801207;0.37872314453125;-0.69708251953125;-0.53411865234375;-0.2923583984375;14.429882525605816;14.815069014459016;1.0844809646104794;-0.8505859375;0.61474609375;-0.12158203125;19.125;45.125;159.625;
1441975964824209;0.35931396484375;-0.706787109375;-0.54669189453125;-0.26934814453125;14.067408450106944;14.697295101115397;0.9839072557069121;-0.85107421875;0.6025390625;-0.09619140625;-13.1875;35.0625;177.3125;
1441975964847210;0.33782958984375;-0.71533203125;-0.5601806640625;-0.24578857421875;13.689482727232086;14.58022262638089;0.8858001202860579;-0.8134765625;0.59814453125;-0.142578125;-36.875;23.125;190.25;
1441975964861211;0.31475830078125;-0.72265625;-0.57403564453125;-0.221923828125;13.300523473852197;14.468395808041237;0.794109273179143;-0.74853515625;0.71533203125;-0.19921875;-42.3125;14.1875;198.625;
1441975964883212;0.29071044921875;-0.72796630859375;-0.58831787109375;-0.19873046875;12.915061224782843;14.358081735693368;0.7068645193374574;-0.6728515625;0.7626953125;-0.25927734375;-46.875;7.1875;204.0625;
1441975964907213;0.26611328125;-0.73101806640625;-0.6026611328125;-0.17791748046875;12.550963959313084;14.248735606831227;0.6193178664820523;-0.60888671875;0.697265625;-0.26708984375;-53.75;-2.6875;203.8125;
1441975964921214;0.24273681640625;-0.73248291015625;-0.61614990234375;-0.1583251953125;12.207173420475488;14.150327485458613;0.5458088098748348;-0.4931640625;0.66064453125;-0.2890625;-57.625;-17.625;194.25;
1441975964943215;0.22119140625;-0.73193359375;-0.62890625;-0.14117431640625;11.900110758101928;14.05766921277367;0.48116574104775456;-0.40869140625;0.681640625;-0.25146484375;-58.9375;-18.875;181.375;
1441975964967217;0.20184326171875;-0.72918701171875;-0.64129638671875;-0.12774658203125;11.643418912564943;13.96552388523185;0.4190366229763973;-0.39453125;0.60009765625;-0.1708984375;-60.5625;-22.6875;162.5625;
1441975964981218;0.18560791015625;-0.72442626953125;-0.6534423828125;-0.117919921875;11.441611836111358;13.873358501425379;0.362127311753124;-0.35693359375;0.50830078125;-0.0859375;-63.375;-30.9375;137.5;
1441975965003219;0.1744384765625;-0.71539306640625;-0.66729736328125;-0.112060546875;11.314852628270378;13.763228869834775;0.3122521447802968;-0.32421875;0.52001953125;-0.06103515625;-67.6875;-36.125;108.625;
1441975965027220;0.16943359375;-0.7034912109375;-0.681640625;-0.10882568359375;11.258595318846002;13.646286154301933;0.2797622416043298;-0.29052734375;0.53515625;0.02099609375;-85.75;-36.0;72.125;
1441975965041221;0.1707763671875;-0.6890869140625;-0.695556640625;-0.11083984375;11.297259348449812;13.524644246255647;0.2528670880721739;-0.240234375;0.43017578125;0.0615234375;-103.0;-27.375;31.0;
1441975965063222;0.1783447265625;-0.672607421875;-0.70819091796875;-0.11956787109375;11.442066208134207;13.400488437129052;0.2222094992724141;-0.2568359375;0.33154296875;0.115234375;-109.5;-24.5;-16.75;
1441975965087224;0.190185546875;-0.65521240234375;-0.71881103515625;-0.1339111328125;11.667009307436437;13.278120573973688;0.1819109222710787;-0.3173828125;0.302734375;0.1796875;-109.1875;-26.0;-70.25;
1441975965101224;0.20770263671875;-0.6358642578125;-0.72796630859375;-0.15069580078125;11.960329594940864;13.152629761778194;0.1474570294066302;-0.3828125;0.38427734375;0.2294921875;-101.75;-28.625;-111.3125;
1441975965124226;0.23358154296875;-0.61322021484375;-0.735595703125;-0.16839599609375;12.337655756659858;13.021437592308965;0.13291036962308078;-0.3857421875;0.56103515625;0.296875;-105.875;-14.1875;-148.0625;
1441975965147227;0.266845703125;-0.587890625;-0.74151611328125;-0.1827392578125;12.763032670914296;12.893532749712854;0.1546837902202138;-0.46728515625;0.74462890625;0.29833984375;-121.125;16.75;-189.1875;
1441975965161228;0.30230712890625;-0.55975341796875;-0.7467041015625;-0.1943359375;13.19896952737937;12.757021208015349;0.18594681050277878;-0.576171875;0.74267578125;0.20263671875;-140.125;57.875;-205.9375;
1441975965184229;0.3336181640625;-0.53460693359375;-0.7509765625;-0.1976318359375;13.542212176858937;12.647086694013602;0.24465333555914268;-0.80419921875;0.890625;0.1376953125;-157.75;72.9375;-206.875;
1441975965207230;0.366455078125;-0.5126953125;-0.75244140625;-0.19183349609375;13.842528035208222;12.596656699568554;0.3769423866386775;-0.568359375;0.955078125;0.23046875;-151.4375;88.75;-158.625;
1441975965221231;0.4041748046875;-0.4852294921875;-0.7537841796875;-0.18182373046875;14.178825384861295;12.544866180346647;0.5504161416177188;-0.0869140625;0.775390625;-0.150390625;-151.75;129.125;-124.9375;
1441975965243232;0.4425048828125;-0.45721435546875;-0.7506103515625;-0.17822265625;14.581632128111174;12.51001125305587;0.7060952308343343;-0.29052734375;0.03955078125;-0.38037109375;-189.125;153.3125;-121.3125;
1441975965267234;0.474365234375;-0.43463134765625;-0.74383544921875;-0.18121337890625;14.967471698394;12.50299371641875;0.8211680803124687;-1.10986328125;-0.33447265625;-0.4892578125;-163.9375;143.625;-144.25;
1441975965281235;0.49847412109375;-0.41668701171875;-0.7364501953125;-0.18865966796875;15.304679181259706;12.494528727769573;0.8831688024585146;-1.36669921875;-0.2470703125;-0.39306640625;-106.625;113.875;-145.25;
1441975965303236;0.51373291015625;-0.41094970703125;-0.72515869140625;-0.2034912109375;15.582037213714317;12.541847225416939;0.9038891243078512;-1.36474609375;-0.21875;-0.04345703125;-62.625;81.625;-134.8125;
1441975965327237;0.52093505859375;-0.4178466796875;-0.709228515625;-0.22589111328125;15.807888139299267;12.658730091088989;0.8964487289747664;-1.20068359375;-0.083984375;0.1474609375;29.75;54.3125;-118.5;
1441975965341238;0.521240234375;-0.4326171875;-0.6907958984375;-0.25299072265625;15.988235955606966;12.807369567486084;0.8578320348885741;-1.0439453125;0.18994140625;0.13720703125;124.25;32.1875;-105.0625;
1441975965363239;0.515625;-0.45166015625;-0.6717529296875;-0.28094482421875;16.11704478782484;12.96149083954456;0.7940574294631771;-0.98876953125;0.37744140625;0.09130859375;184.75;10.75;-90.875;
1441975965387241;0.5030517578125;-0.4747314453125;-0.65252685546875;-0.30963134765625;16.187937033959553;13.100536092551987;0.6838192628056202;-0.97314453125;0.36083984375;0.07275390625;214.3125;-7.0;-68.0625;
1441975965401242;0.4842529296875;-0.5032958984375;-0.6307373046875;-0.3382568359375;16.20465212432851;13.272635402941038;0.5682220393074806;-1.037109375;0.3955078125;0.0546875;243.8125;-28.75;-41.8125;
1441975965423243;0.46209716796875;-0.53558349609375;-0.6053466796875;-0.364990234375;16.187494721493678;13.506639258088333;0.49129645986082804;-0.9599609375;0.5068359375;0.00244140625;282.0625;-35.0625;-15.5;
1441975965447244;0.4398193359375;-0.56842041015625;-0.5784912109375;-0.3858642578125;16.134250920055024;13.796010906806492;0.48191449214345194;-0.927734375;0.58984375;-0.02197265625;307.4375;-23.875;2.75;
1441975965461245;0.4212646484375;-0.59759521484375;-0.55413818359375;-0.39801025390625;16.047816598043834;14.096679720115723;0.5379541792646796;-0.912109375;0.65966796875;-0.1201171875;298.125;-2.875;20.75;
1441975965483246;0.407958984375;-0.62176513671875;-0.53448486328125;-0.40167236328125;15.931763284734899;14.373285227598053;0.6373619631767757;-0.82177734375;0.71923828125;-0.15673828125;247.6875;23.5;32.75;
1441975965507248;0.39996337890625;-0.63885498046875;-0.52618408203125;-0.393798828125;15.752102356536968;14.543036136030976;0.7318069583652165;-0.84765625;0.92578125;-0.2138671875;183.5625;46.1875;37.375;
1441975965521248;0.39825439453125;-0.64788818359375;-0.52471923828125;-0.38262939453125;15.601517564470997;14.633056332016757;0.8179486682338953;-0.9140625;0.94970703125;-0.2099609375;85.5;58.1875;34.4375;
1441975965543250;0.397705078125;-0.65740966796875;-0.52294921875;-0.369140625;15.431949115798883;14.731470121922673;0.9201816895314647;-1.04296875;0.60791015625;-0.10302734375;14.5625;64.375;45.5;
1441975965567251;0.39154052734375;-0.677001953125;-0.514404296875;-0.3519287109375;15.155131429303573;14.89662667924125;1.0329287221767813;-1.2099609375;0.47314453125;-0.02392578125;11.1875;87.375;64.0625;
1441975965589252;0.3853759765625;-0.69659423828125;-0.5048828125;-0.33380126953125;14.866179610748098;15.047039563821846;1.1297317885478344;-1.10791015625;0.5810546875;-0.1005859375;65.9375;109.75;100.5;
1441975965603253;0.38079833984375;-0.7152099609375;-0.4931640625;-0.31671142578125;14.595328412200079;15.199541051672918;1.2257584574367912;-0.93359375;0.619140625;-0.24658203125;67.3125;113.9375;100.25;
1441975965627254;0.3758544921875;-0.73309326171875;-0.48101806640625;-0.30010986328125;14.327292261133273;15.333906668631961;1.3009206730225835;-1.09033203125;0.47314453125;-0.33984375;71.5625;117.4375;88.375;
1441975965641255;0.36907958984375;-0.74951171875;-0.47100830078125;-0.2833251953125;14.056138414087128;15.427127306837924;1.339545634740647;-1.10107421875;0.49609375;-0.3388671875;73.3125;115.1875;86.4375;
1441975965663257;0.36126708984375;-0.76708984375;-0.45928955078125;-0.264892578125;13.757865527647095;15.523315889583522;1.3722301490530486;-0.92333984375;0.53173828125;-0.259765625;64.3125;104.375;93.625;
1441975965687258;0.353271484375;-0.78375244140625;-0.44818115234375;-0.24517822265625;13.450280022939854;15.60450293436193;1.3960696826903112;-0.841796875;0.5810546875;-0.236328125;73.5625;114.9375;101.5;
1441975965701259;0.34649658203125;-0.79913330078125;-0.43731689453125;-0.223876953125;13.136440006349744;15.6784786633365;1.424352326843817;-0.6611328125;0.69775390625;-0.197265625;67.75;116.9375;102.4375;
1441975965723260;0.3424072265625;-0.81134033203125;-0.42999267578125;-0.19927978515625;12.81525450317598;15.723311527989425;1.4623184507013889;-0.4892578125;0.90185546875;-0.34619140625;59.3125;122.375;94.9375;
1441975965746261;0.34027099609375;-0.81964111328125;-0.42803955078125;-0.17095947265625;12.485673053623463;15.724866124300899;1.5045843289029832;-0.39208984375;0.84228515625;-0.46728515625;24.0625;131.5;90.0;
1441975965769263;0.3406982421875;-0.82568359375;-0.427734375;-0.138671875;12.136223575091392;15.711534886980772;1.566442794141918;-0.41796875;0.97265625;-0.49462890625;-19.0625;139.125;88.25;
1441975965783263;0.345458984375;-0.82843017578125;-0.42828369140625;-0.1046142578125;11.798469187680276;15.690218601979144;1.656997297232357;-0.193359375;0.822265625;-0.5615234375;-44.8125;156.0;83.4375;
1441975965806265;0.352783203125;-0.82861328125;-0.42901611328125;-0.07049560546875;11.480257086479376;15.662503012977606;1.7632865176057992;-0.28857421875;0.5869140625;-0.64697265625;-67.1875;171.75;65.25;
1441975965821266;0.35552978515625;-0.82733154296875;-0.4329833984375;-0.041259765625;11.209398386032447;15.606964223748202;1.8303026027192228;-0.56103515625;0.61767578125;-0.61865234375;-75.4375;180.0625;51.4375;
1441975965843267;0.35595703125;-0.82476806640625;-0.438720703125;-0.02447509765625;11.065230375372193;15.549836283183785;1.8597285075285743;-0.74755859375;0.39599609375;-0.33935546875;-81.75;143.125;64.25;
1441975965866268;0.3580322265625;-0.822265625;-0.44189453125;-0.02105712890625;11.055132759733958;15.526868742877108;1.8755935027304411;-0.501953125;0.1748046875;-0.18115234375;-69.1875;85.5;55.875;
1441975965881269;0.36016845703125;-0.82037353515625;-0.4434814453125;-0.02642822265625;11.12709498172342;15.525362562712992;1.8755941013553918;-0.4287109375;0.0849609375;-0.1005859375;-29.9375;30.25;12.875;
1441975965903270;0.3592529296875;-0.8175048828125;-0.44873046875;-0.0361328125;11.242520988176214;15.50205863458409;1.8446737411029845;-0.373046875;0.33056640625;-0.22119140625;1.625;-13.4375;-17.375;
1441975965926272;0.3577880859375;-0.81500244140625;-0.45343017578125;-0.047607421875;11.370459877747424;15.48271692446842;1.8068567446024708;-0.32666015625;0.4599609375;-0.2490234375;-5.1875;-52.375;-21.4375;
1441975965941272;0.35650634765625;-0.8115234375;-0.459228515625;-0.0592041015625;11.505576178479421;15.45462668974476;1.7678610573257343;-0.26220703125;0.4677734375;-0.38037109375;-4.125;-67.375;-27.125;
1441975965963274;0.35491943359375;-0.80615234375;-0.46820068359375;-0.07049560546875;11.648692971923145;15.40248496279071;1.7221129635205326;-0.3369140625;0.64208984375;-0.5126953125;-11.5;-72.375;-32.125;
1441975965986275;0.35418701171875;-0.8004150390625;-0.4761962890625;-0.084716796875;11.82238412951072;15.357668037989892;1.6748777127522674;-0.32763671875;0.6123046875;-0.52294921875;-34.4375;-80.375;-33.25;
1441975966001276;0.35418701171875;-0.7947998046875;-0.481689453125;-0.1043701171875;12.046992161840736;15.331309540974434;1.622390595548812;-0.29296875;0.49609375;-0.48486328125;-28.375;-91.5;-45.5;
1441975966023277;0.3543701171875;-0.788330078125;-0.4866943359375;-0.127197265625;12.305446240766733;15.305463818723606;1.562729188964161;-0.34375;0.5146484375;-0.4755859375;-1.9375;-105.125;-62.75;
1441975966046278;0.35406494140625;-0.78106689453125;-0.49188232421875;-0.15057373046875;12.569743047304426;15.271490217901166;1.4954943209461549;-0.4267578125;0.59033203125;-0.458984375;5.25;-117.9375;-74.6875;
1441975966061279;0.35357666015625;-0.77264404296875;-0.498291015625;-0.17236328125;12.82227308008953;15.22065596973238;1.4239332097072726;-0.48876953125;0.62841796875;-0.48046875;3.75;-123.375;-75.6875;
1441975966083281;0.353515625;-0.76348876953125;-0.50506591796875;-0.19268798828125;13.063643123184045;15.160453974608597;1.3526216593171576;-0.49267578125;0.63671875;-0.4423828125;-8.0;-120.1875;-71.9375;
1441975966106282;0.35333251953125;-0.755615234375;-0.50927734375;-0.21197509765625;13.28566968760997;15.113859762837519;1.2855703192513157;-0.490234375;0.61767578125;-0.3955078125;-14.5625;-114.0625;-71.25;
1441975966121283;0.35247802734375;-0.75;-0.51068115234375;-0.22918701171875;13.47281768140908;15.085342518679301;1.2249793660516983;-0.49853515625;0.63525390625;-0.42724609375;-2.625;-103.75;-68.4375;
1441975966143284;0.3515625;-0.74578857421875;-0.50982666015625;-0.24560546875;13.645062367636182;15.072784740265176;1.1714133022732662;-0.5205078125;0.65087890625;-0.45361328125;11.3125;-95.4375;-66.5625;
1441975966166285;0.35009765625;-0.74261474609375;-0.50872802734375;-0.2593994140625;13.7848664211875;15.061306068769856;1.1212918231709745;-0.5966796875;0.640625;-0.51416015625;20.75;-88.125;-61.6875;
1441975966181286;0.34906005859375;-0.7392578125;-0.50830078125;-0.2708740234375;13.904987839288783;15.044986415281015;1.0773173441292871;-0.626953125;0.71484375;-0.5322265625;21.5;-77.9375;-54.25;
1441975966203287;0.348388671875;-0.73583984375;-0.50860595703125;-0.2803955078125;14.007924278759031;15.02389906268073;1.038003653910625;-0.64697265625;0.71826171875;-0.53759765625;12.0625;-69.1875;-49.25;
1441975966226289;0.34649658203125;-0.7337646484375;-0.50787353515625;-0.2891845703125;14.092427740936857;15.009050654461156;0.9959235667868235;-0.6962890625;0.640625;-0.47705078125;5.0;-57.9375;-38.6875;
1441975966249290;0.342529296875;-0.7342529296875;-0.50531005859375;-0.297119140625;14.148379677936784;15.007683086019691;0.9498743317882712;-0.74609375;0.56982421875;-0.43017578125;14.0625;-51.3125;-25.6875;
1441975966263291;0.33697509765625;-0.73626708984375;-0.50244140625;-0.30322265625;14.17299710754956;15.008315654700903;0.9004983240854509;-0.75;0.57958984375;-0.416015625;31.3125;-45.5;-13.375;
1441975966286292;0.33099365234375;-0.7393798828125;-0.499755859375;-0.30670166015625;14.165802239472919;15.01186032549094;0.8573578712665694;-0.744140625;0.60595703125;-0.390625;38.0;-37.6875;-0.6875;
1441975966301293;0.3253173828125;-0.743408203125;-0.49713134765625;-0.307373046875;14.129504635224384;15.022168217648028;0.827204480866315;-0.734375;0.62548828125;-0.3466796875;38.125;-24.4375;9.8125;
1441975966323294;0.32025146484375;-0.74737548828125;-0.49554443359375;-0.3056640625;14.07318181351963;15.029460860141658;0.8059761987351782;-0.72314453125;0.65185546875;-0.35205078125;34.9375;-10.25;16.625;
1441975966346296;0.31524658203125;-0.75140380859375;-0.49462890625;-0.30242919921875;14.002004897209993;15.033949066210187;0.7881933275526787;-0.74658203125;0.67333984375;-0.35205078125;25.625;0.375;22.6875;
1441975966364297;0.31005859375;-0.7554931640625;-0.4945068359375;-0.29766845703125;13.9146755378547;15.033919552824148;0.7717303743318326;-0.7939453125;0.68994140625;-0.375;19.4375;6.5625;30.125;
1441975966383298;0.30517578125;-0.75946044921875;-0.49505615234375;-0.291748046875;13.817787553852552;15.031190199825609;0.759208811838378;-0.78857421875;0.7158203125;-0.40234375;13.5;10.125;36.125;
1441975966406299;0.30126953125;-0.76287841796875;-0.49615478515625;-0.284912109375;13.718839793753887;15.02721615501954;0.754522598082827;-0.787109375;0.72314453125;-0.427734375;6.625;14.0625;39.5;
1441975966421300;0.29754638671875;-0.76580810546875;-0.4979248046875;-0.2777099609375;13.618855934500807;15.01811241378456;0.7499306388581313;-0.78125;0.6787109375;-0.43896484375;-2.125;18.4375;41.375;
1441975966443301;0.2933349609375;-0.7689208984375;-0.49969482421875;-0.2703857421875;13.514580788891575;15.008438327515792;0.7429367400348148;-0.76513671875;0.62646484375;-0.41015625;-7.6875;20.875;44.875;
1441975966466302;0.28802490234375;-0.77264404296875;-0.5009765625;-0.2630615234375;13.402822428834732;15.00100205654567;0.7310204611623103;-0.7451171875;0.58740234375;-0.3740234375;-6.0625;21.875;50.1875;
1441975966481303;0.281494140625;-0.7772216796875;-0.50164794921875;-0.2552490234375;13.277443248952723;14.997526713484145;0.7156044375386105;-0.71923828125;0.5810546875;-0.3583984375;0.125;21.25;55.75;
1441975966503305;0.27496337890625;-0.78155517578125;-0.50244140625;-0.24737548828125;13.152380831329499;14.993037527950952;0.7003112034575543;-0.69384765625;0.62158203125;-0.38037109375;6.0;21.25;60.9375;
1441975966526306;0.26849365234375;-0.78564453125;-0.503173828125;-0.239990234375;13.033261238957973;14.988544161716064;0.6842526648483391;-0.6982421875;0.65625;-0.4091796875;4.4375;20.6875;61.4375;
1441975966542307;0.26202392578125;-0.78948974609375;-0.50372314453125;-0.233154296875;12.920450335025288;14.984598605973062;0.6671539678229186;-0.7294921875;0.68017578125;-0.4375;3.6875;18.3125;60.3125;
1441975966563308;0.255615234375;-0.793701171875;-0.50335693359375;-0.22686767578125;12.812481053333833;14.987719020075826;0.6514472296267461;-0.7275390625;0.66943359375;-0.4306640625;4.625;17.125;60.1875;
1441975966586309;0.248779296875;-0.79827880859375;-0.50213623046875;-0.220947265625;12.705186952945619;14.996259574244103;0.6343553279348375;-0.70263671875;0.63134765625;-0.40234375;10.875;18.0;59.3125;
1441975966609311;0.2413330078125;-0.80291748046875;-0.50103759765625;-0.21490478515625;12.593398887720745;15.00323430454055;0.6138290418127734;-0.65771484375;0.61083984375;-0.3720703125;17.8125;17.125;59.5;
1441975966623311;0.2340087890625;-0.80706787109375;-0.5006103515625;-0.2081298828125;12.476537869852605;15.005734955646892;0.5947665213178016;-0.61572265625;0.6513671875;-0.3408203125;21.0625;17.4375;60.0625;
1441975966646313;0.22711181640625;-0.81072998046875;-0.50091552734375;-0.20086669921875;12.358372337428865;15.00400012016101;0.5781865572821032;-0.5751953125;0.662109375;-0.33203125;16.0625;19.0;60.375;
1441975966668314;0.22125244140625;-0.8134765625;-0.50189208984375;-0.193603515625;12.24819170280929;14.998066274660399;0.5661300982818754;-0.552734375;0.66455078125;-0.34619140625;9.4375;20.6875;60.25;
1441975966683315;0.21636962890625;-0.81585693359375;-0.50274658203125;-0.186767578125;12.148467340917978;14.993721682892465;0.558658729682562;-0.5478515625;0.6591796875;-0.3486328125;2.125;21.875;55.8125;
1441975966706316;0.21160888671875;-0.818359375;-0.50311279296875;-0.18023681640625;12.052228084583856;14.992803618750225;0.5520335915121739;-0.55126953125;0.6279296875;-0.35498046875;0.1875;22.6875;52.125;
1441975966728317;0.20745849609375;-0.82049560546875;-0.50341796875;-0.17431640625;11.966280983161715;14.992127459974443;0.5470256744338047;-0.537109375;0.64111328125;-0.3740234375;2.0;21.8125;49.5625;
1441975966743318;0.203857421875;-0.822265625;-0.50384521484375;-0.1689453125;11.889603626791917;14.99053205208458;0.5431315855244425;-0.53369140625;0.64697265625;-0.38134765625;1.1875;20.5625;45.3125;
1441975966766320;0.20068359375;-0.8240966796875;-0.50360107421875;-0.16455078125;11.824826595628151;14.993326743121777;0.5398271007547905;-0.52734375;0.62841796875;-0.37890625;-0.6875;19.3125;41.5625;
1441975966788321;0.19805908203125;-0.8258056640625;-0.5029296875;-0.16119384765625;11.773615845074568;14.998746544265328;0.5370673150348737;-0.5244140625;0.61865234375;-0.39599609375;2.1875;16.4375;37.25;
1441975966803322;0.19561767578125;-0.82733154296875;-0.50213623046875;-0.1585693359375;11.73109300900023;15.004398954348586;0.5332265613848503;-0.52099609375;0.61767578125;-0.4091796875;3.8125;13.4375;31.375;
1441975966826323;0.193359375;-0.828857421875;-0.50103759765625;-0.15679931640625;11.698012500458306;15.011811065943665;0.5282876174789316;-0.50146484375;0.6103515625;-0.40478515625;4.6875;10.5625;27.4375;
1441975966848324;0.19134521484375;-0.83050537109375;-0.49945068359375;-0.1558837890625;11.674453963155752;15.02243919403456;0.5229021035685342;-0.48876953125;0.59521484375;-0.3798828125;7.875;7.5625;23.875;
1441975966863325;0.1893310546875;-0.83203125;-0.49786376953125;-0.1553955078125;11.655445249456859;15.03260701304666;0.5161868251829721;-0.47216796875;0.5947265625;-0.37548828125;11.625;4.8125;19.375;
1441975966886326;0.18780517578125;-0.83319091796875;-0.49639892578125;-0.15557861328125;11.646581889735383;15.04162824586405;0.5098560120670315;-0.43798828125;0.62744140625;-0.36181640625;13.8125;2.375;15.125;
1441975966908328;0.1866455078125;-0.83404541015625;-0.4949951171875;-0.15673828125;11.650053836788064;15.04974836812859;0.5024727059632965;-0.40625;0.61328125;-0.361328125;12.125;-0.9375;9.4375;
1441975966923329;0.18585205078125;-0.83477783203125;-0.49359130859375;-0.15838623046875;11.660606079411284;15.057949129787385;0.4956301458208355;-0.41552734375;0.603515625;-0.35205078125;11.9375;-4.0625;5.3125;
1441975966946330;0.18505859375;-0.83551025390625;-0.4918212890625;-0.1607666015625;11.678536899902896;15.067959633458294;0.4872153702709605;-0.39892578125;0.5625;-0.3369140625;11.4375;-5.6875;2.125;
1441975966968331;0.18450927734375;-0.8363037109375;-0.48968505859375;-0.16400146484375;11.706180022371058;15.080296089485032;0.4782483860096237;-0.39453125;0.52783203125;-0.31689453125;13.8125;-8.1875;0.5625;
1441975966983332;0.18408203125;-0.8369140625;-0.48736572265625;-0.168212890625;11.74470734217415;15.092995543420727;0.4673783373889125;-0.3916015625;0.4736328125;-0.29150390625;16.4375;-10.625;-1.75;
1441975967006333;0.1842041015625;-0.83685302734375;-0.48553466796875;-0.1734619140625;11.79796771696521;15.101535112963665;0.45557882330039456;-0.39111328125;0.46240234375;-0.2734375;18.4375;-14.3125;-5.625;
1441975967029335;0.18499755859375;-0.8360595703125;-0.48388671875;-0.1807861328125;11.877084894868696;15.107192808011025;0.4408971751057946;-0.3857421875;0.42919921875;-0.26220703125;14.25;-19.0625;-11.1875;
1441975967043335;0.1864013671875;-0.8348388671875;-0.48175048828125;-0.19036865234375;11.983075489993317;15.114281546037573;0.4236048767901558;-0.43798828125;0.3720703125;-0.244140625;12.1875;-25.8125;-16.125;
1441975967066337;0.1883544921875;-0.83319091796875;-0.47930908203125;-0.20172119140625;12.110754656129325;15.121702498562698;0.4044720135410884;-0.498046875;0.32958984375;-0.2431640625;13.6875;-33.625;-22.875;
1441975967088338;0.19085693359375;-0.83160400390625;-0.475341796875;-0.21478271484375;12.259066717751208;15.137840213206733;0.3861918932166676;-0.52099609375;0.29833984375;-0.22314453125;15.1875;-39.375;-29.75;
1441975967103339;0.19366455078125;-0.82989501953125;-0.47039794921875;-0.229248046875;12.424053300659347;15.158817076057762;0.36750983354462385;-0.556640625;0.23095703125;-0.2099609375;22.8125;-43.375;-35.3125;
1441975967126340;0.19720458984375;-0.82757568359375;-0.46514892578125;-0.24481201171875;12.60591507111247;15.18032908178786;0.35045816343043384;-0.5576171875;0.21142578125;-0.181640625;29.1875;-47.4375;-42.0;
1441975967148341;0.20184326171875;-0.8243408203125;-0.4598388671875;-0.261474609375;12.807248826148388;15.20087763324971;0.3366375301848861;-0.58154296875;0.18798828125;-0.154296875;29.625;-50.125;-48.9375;
1441975967163342;0.2076416015625;-0.820068359375;-0.4542236328125;-0.27960205078125;13.032609556140356;15.221646667778947;0.32591925257515786;-0.63671875;0.19677734375;-0.1552734375;27.9375;-52.5;-56.9375;
1441975967186344;0.214111328125;-0.8153076171875;-0.447021484375;-0.29949951171875;13.28222629257533;15.251439773438118;0.3184322840141569;-0.71630859375;0.17919921875;-0.15576171875;26.0625;-55.875;-65.1875;
1441975967208345;0.220947265625;-0.8099365234375;-0.43853759765625;-0.32073974609375;13.550749483765081;15.288368945396416;0.31372419725474554;-0.775390625;0.16259765625;-0.16162109375;32.375;-60.5;-74.625;
1441975967223346;0.2281494140625;-0.80364990234375;-0.42974853515625;-0.3427734375;13.83287266059482;15.326199211660242;0.3112212706322868;-0.84423828125;0.18798828125;-0.17236328125;38.875;-65.125;-83.1875;
1441975967246347;0.23651123046875;-0.79534912109375;-0.42169189453125;-0.36566162109375;14.136027940336843;15.356786411853339;0.31177409627590846;-0.89794921875;0.22900390625;-0.2021484375;38.3125;-70.3125;-91.125;
1441975967268348;0.24383544921875;-0.78704833984375;-0.4141845703125;-0.3868408203125;14.417741565852145;15.383509829657813;0.3107776749424896;-0.9521484375;0.2099609375;-0.20703125;28.4375;-77.0;-99.75;
1441975967283349;0.25091552734375;-0.778076171875;-0.40545654296875;-0.40899658203125;14.71298600409978;15.417014768599532;0.3109815319954619;-1.01904296875;0.15576171875;-0.19482421875;26.8125;-82.625;-105.6875;
1441975967306351;0.25811767578125;-0.76812744140625;-0.396240234375;-0.4317626953125;15.020284751273113;15.453477614354698;0.3140539015692897;-1.0693359375;0.173828125;-0.20751953125;33.0625;-87.625;-110.9375;
1441975967328352;0.2659912109375;-0.75640869140625;-0.3870849609375;-0.455322265625;15.346856659148745;15.488379115953173;0.320674331997585;-1.138671875;0.20068359375;-0.2275390625;33.375;-92.0625;-116.625;
1441975967343353;0.2744140625;-0.74298095703125;-0.377685546875;-0.479736328125;15.693289960575264;15.525395670498046;0.332584985142124;-1.2197265625;0.19091796875;-0.22265625;28.5625;-98.875;-123.75;
1441975967366354;0.2830810546875;-0.72784423828125;-0.36767578125;-0.50494384765625;16.058949756822003;15.569446540586078;0.35228757394252674;-1.29443359375;0.1708984375;-0.2353515625;25.6875;-105.9375;-131.75;
1441975967388355;0.2918701171875;-0.71099853515625;-0.35687255859375;-0.531005859375;16.444607353539684;15.628185064140016;0.38615027022128107;-1.375;0.142578125;-0.23291015625;25.25;-112.9375;-139.375;
1441975967403356;0.30078125;-0.69244384765625;-0.3450927734375;-0.55767822265625;16.848588435784727;15.723791424782029;0.456099595513099;-1.4765625;0.11328125;-0.22802734375;25.625;-120.5625;-147.0;
1441975967426357;0.30828857421875;-0.67327880859375;-0.33135986328125;-0.584716796875;17.25794103666569;15.922330620937265;0.6175110768247385;-1.5302734375;0.02392578125;-0.2001953125;27.125;-127.0;-154.5625;
1441975967448359;0.3148193359375;-0.65350341796875;-0.31640625;-0.61138916015625;17.65847683341124;16.566062537504063;1.2181424172801802;-1.5654296875;-0.02099609375;-0.18359375;38.8125;-130.8125;-157.75;
1441975967463359;0.32171630859375;-0.63232421875;-0.3016357421875;-0.636962890625;17.833002898271747;3.8425746494550967;6.458158856119946;-1.59521484375;0.0224609375;-0.17236328125;45.375;-132.0625;-160.375;
1441975967494361;0.329345703125;-0.60943603515625;-0.28741455078125;-0.6614990234375;17.458150326396037;5.763293991831307;8.351934391313815;-1.60693359375;0.0673828125;-0.16796875;38.9375;-133.5625;-164.0625;
1441975967508362;0.3372802734375;-0.5848388671875;-0.273193359375;-0.685302734375;17.033317371444305;6.089762483154345;8.656816114680275;-1.60302734375;0.09130859375;-0.16015625;29.3125;-136.875;-168.5;
1441975967525363;0.34405517578125;-0.5592041015625;-0.25811767578125;-0.708740234375;16.59901933684421;6.235513818084019;8.775914314224497;-1.60791015625;0.060546875;-0.17236328125;24.4375;-142.125;-172.4375;
1441975967546364;0.34893798828125;-0.53350830078125;-0.24188232421875;-0.7315673828125;16.16800481993798;6.328701515338206;8.832070403465849;-1.59423828125;0.04541015625;-0.19482421875;29.5;-146.5625;-174.5;
1441975967568365;0.352294921875;-0.50811767578125;-0.22528076171875;-0.75299072265625;15.750422807916072;6.398858721991724;8.85959176882332;-1.5302734375;0.05322265625;-0.2255859375;40.0625;-146.9375;-173.75;
1441975967585366;0.35504150390625;-0.4830322265625;-0.208984375;-0.772705078125;15.347887844717995;6.452722394641321;8.871489168111479;-1.453125;0.08447265625;-0.234375;45.25;-143.75;-169.6875;
1441975967607368;0.35650634765625;-0.4583740234375;-0.1929931640625;-0.79095458984375;14.961676668597612;6.503867716249975;8.878029153681098;-1.392578125;0.0849609375;-0.21923828125;43.6875;-139.5625;-164.0625;
1441975967628369;0.355224609375;-0.43524169921875;-0.1773681640625;-0.80804443359375;14.603590028172924;6.565303740172488;8.884212207414935;-1.34375;0.02880859375;-0.17626953125;46.375;-135.6875;-156.5625;
1441975967645370;0.3529052734375;-0.41387939453125;-0.16302490234375;-0.82318115234375;14.27901712322054;6.623683683793098;8.887596889875974;-1.26708984375;0.056640625;-0.13330078125;56.75;-129.125;-143.625;
1441975967666371;0.3515625;-0.3948974609375;-0.15087890625;-0.8353271484375;13.997515200287788;6.664380662221869;8.885961662212589;-1.13525390625;0.14501953125;-0.1259765625;55.625;-119.6875;-130.625;
1441975967688372;0.34857177734375;-0.38653564453125;-0.14276123046875;-0.84185791015625;13.861880232835137;6.6938046801133435;8.873847460703452;-0.99560546875;0.15283203125;-0.11279296875;41.625;-103.75;-113.9375;
1441975967705373;0.3446044921875;-0.38427734375;-0.13665771484375;-0.8455810546875;13.807187591301137;6.718195619082981;8.855311452090774;-0.86376953125;0.1240234375;-0.08544921875;37.625;-73.125;-90.125;
1441975967726375;0.3414306640625;-0.38629150390625;-0.13397216796875;-0.84637451171875;13.818561528735852;6.731925151423592;8.840940365059385;-0.76904296875;0.27685546875;-0.201171875;35.75;-45.3125;-68.0625;
1441975967748376;0.340576171875;-0.39068603515625;-0.13494873046875;-0.84454345703125;13.874252347800022;6.728558799847495;8.834074022557708;-0.75;0.38427734375;-0.3544921875;23.375;-31.25;-47.375;
1441975967771377;0.34100341796875;-0.39874267578125;-0.13818359375;-0.84002685546875;13.983026283163714;6.708408532933185;8.82318011308955;-0.68359375;0.46435546875;-0.4443359375;1.125;-22.25;-29.625;
1441975967786378;0.3397216796875;-0.41387939453125;-0.14361572265625;-0.832275390625;14.185873278642468;6.6843829651624835;8.804326277442968;-0.6064453125;0.47021484375;-0.5048828125;-10.25;-2.125;-10.0625;
1441975967808379;0.33709716796875;-0.4376220703125;-0.153564453125;-0.8193359375;14.514666778320422;6.649883717068896;8.782234371347872;-0.59716796875;0.56982421875;-0.603515625;-7.6875;28.5625;15.75;
1441975967833381;0.34075927734375;-0.45355224609375;-0.16314697265625;-0.80718994140625;14.750028331815054;6.57730467089174;8.755915079172967;-0.6123046875;0.84326171875;-0.75341796875;-17.9375;63.5625;46.0;
1441975967846381;0.3447265625;-0.47442626953125;-0.177978515625;-0.79022216796875;15.074738029691884;6.485426422076065;8.731057341819271;-0.78564453125;1.1005859375;-1.0029296875;-50.875;89.9375;77.0;
1441975967876383;0.3392333984375;-0.5057373046875;-0.19403076171875;-0.76910400390625;15.544404423976696;6.421556896042189;8.691505215449741;-1.01611328125;0.96533203125;-0.9609375;-70.5;115.375;114.875;
1441975967885384;0.323974609375;-0.54913330078125;-0.2113037109375;-0.74090576171875;16.190326179802415;6.351481381135655;8.604993371733775;-1.234375;0.7041015625;-0.87939453125;-28.5625;162.0;171.0;
1441975967906385;0.30657958984375;-0.60064697265625;-0.234130859375;-0.70037841796875;16.999960894053615;6.071799056815366;8.328592241759377;-1.4306640625;0.85595703125;-0.9296875;10.4375;222.75;236.625;
1441975967928386;0.2894287109375;-0.65533447265625;-0.2628173828125;-0.6463623046875;17.77244186348534;2.418951424074236;4.717864499826365;-1.7470703125;1.087890625;-1.00390625;-11.0;283.375;296.9375;
1441975967954388;0.2730712890625;-0.708984375;-0.29705810546875;-0.5784912109375;16.923401492004196;16.284964019749125;0.673471271325984;-2.16357421875;1.12255859375;-1.021484375;-51.5;333.0625;343.75;
1441975967966388;0.2611083984375;-0.75372314453125;-0.3389892578125;-0.49884033203125;15.827506427408927;15.870515026316568;0.4304026444848182;-2.61376953125;1.27392578125;-1.119140625;-100.3125;373.6875;381.1875;
1441975967988390;0.2518310546875;-0.781005859375;-0.39080810546875;-0.41705322265625;14.801988538479423;15.544564300901873;0.3654761842627734;-3.0;1.48583984375;-1.2880859375;-180.0625;387.75;395.3125;
1441975968005390;0.23040771484375;-0.80035400390625;-0.43487548828125;-0.3424072265625;13.845897777792835;15.286652827153155;0.30732797634311626;-3.314453125;1.42333984375;-1.2734375;-267.875;337.4375;389.6875;
1441975968026392;0.20074462890625;-0.82366943359375;-0.45184326171875;-0.27789306640625;12.972621078063423;15.232530801844968;0.2968665709127192;-3.42333984375;0.43505859375;-1.29833984375;-211.5;269.875;397.9375;
1441975968048393;0.17242431640625;-0.84161376953125;-0.46014404296875;-0.22430419921875;12.24244764239351;15.216170881712705;0.28486949967996045;-2.92041015625;0.3486328125;-1.4326171875;-46.875;245.9375;361.625;
1441975968065394;0.14898681640625;-0.84832763671875;-0.47412109375;-0.18292236328125;11.684528607569424;15.140860443174628;0.25500610837242915;-3.01220703125;1.017578125;-1.18115234375;-9.5;199.0625;307.0;
1441975968086395;0.134765625;-0.847900390625;-0.49127197265625;-0.14703369140625;11.244079752797749;15.043000811720795;0.26091452824253997;-3.09521484375;0.7529296875;-0.69287109375;-60.25;132.6875;247.0;
1441975968108396;0.12469482421875;-0.84185791015625;-0.51251220703125;-0.11444091796875;10.869248291049605;14.912971721369935;0.2806280343131586;-2.77099609375;0.40283203125;-0.38720703125;-100.5;120.5;184.375;
1441975968125397;0.1168212890625;-0.83319091796875;-0.53399658203125;-0.08392333984375;10.534315586929988;14.776550911838672;0.3126416704706364;-2.486328125;-0.14208984375;-0.13134765625;-136.9375;108.9375;154.0;
1441975968146399;0.10943603515625;-0.8277587890625;-0.54779052734375;-0.05352783203125;10.203395614196278;14.688413778344298;0.35981678815166673;-2.1044921875;-0.76904296875;0.04345703125;-145.9375;102.875;135.5;
1441975968168400;0.10552978515625;-0.8248291015625;-0.5548095703125;-0.02764892578125;9.936363472613017;14.641660602795435;0.41783840426605806;-1.541015625;-0.6689453125;0.06201171875;-99.1875;110.75;131.5;
1441975968185401;0.10455322265625;-0.8226318359375;-0.5589599609375;-0.00469970703125;9.715767581922657;14.610803292120526;0.48373629797176;-1.13232421875;-0.326171875;-0.05615234375;-60.5;112.4375;118.5625;
