1441976047188920;0.15313720703125;-0.64739990234375;-0.7454833984375;-0.04241943359375;10.645202827987696;13.15579709464481;0.40465958166380234;-0.373046875;0.21533203125;0.19189453125;-38.125;-2.875;-34.125;
1441976047204920;0.1661376953125;-0.63494873046875;-0.75262451171875;-0.0537109375;10.855756632306857;13.079795162758176;0.3944500606846593;-0.49609375;0.30419921875;0.17333984375;-50.875;0.9375;-53.625;
1441976047226922;0.18231201171875;-0.6220703125;-0.75848388671875;-0.06756591796875;11.113686127320104;13.007243778950679;0.3829720783025391;-0.58984375;0.29736328125;0.154296875;-65.875;2.3125;-73.5625;
1441976047249923;0.19732666015625;-0.610595703125;-0.76287841796875;-0.0799560546875;11.349429706338459;12.944921328525743;0.37266156860432237;-0.6689453125;0.27685546875;0.1162109375;-64.25;5.5625;-93.25;
1441976047264924;0.21551513671875;-0.599365234375;-0.76531982421875;-0.09307861328125;11.61947824539067;12.89307278618951;0.3709635530142302;-0.7431640625;0.25390625;0.1044921875;-57.6875;10.5;-107.9375;
1441976047286925;0.23773193359375;-0.587646484375;-0.76611328125;-0.10638427734375;11.929109107590996;12.849345237572328;0.38345447858904763;-0.7861328125;0.2978515625;0.0625;-51.3125;23.6875;-123.125;
1441976047309926;0.2630615234375;-0.57568359375;-0.76483154296875;-0.12042236328125;12.275184853629103;12.816214378819664;0.405564555921877;-0.82275390625;0.328125;-0.00732421875;-50.75;41.875;-139.375;
1441976047324927;0.2904052734375;-0.5628662109375;-0.761962890625;-0.13543701171875;12.651062230059209;12.78781068401894;0.43116802934986226;-0.87939453125;0.380859375;-0.07177734375;-46.8125;54.75;-155.0;
1441976047346929;0.318603515625;-0.550537109375;-0.75640869140625;-0.15264892578125;13.054393231197624;12.772740244284833;0.4537936321656598;-0.9365234375;0.40380859375;-0.0302734375;-44.6875;62.5;-168.9375;
1441976047369930;0.34710693359375;-0.5377197265625;-0.74884033203125;-0.1722412109375;13.483373202914127;12.76149388667005;0.4679540551512217;-0.98193359375;0.5126953125;-0.08056640625;-32.0;63.0625;-184.4375;
1441976047384931;0.37548828125;-0.52337646484375;-0.7401123046875;-0.19342041015625;13.930582091080904;12.743210803862935;0.47105089802158195;-1.07763671875;0.509765625;-0.10546875;-23.9375;59.625;-198.4375;
1441976047406932;0.4034423828125;-0.50970458984375;-0.72857666015625;-0.216064453125;14.390847745044582;12.73756814509881;0.47106144529647737;-1.12060546875;0.45947265625;-0.02587890625;-22.3125;56.375;-209.3125;
1441976047429933;0.430419921875;-0.49456787109375;-0.71612548828125;-0.2393798828125;14.856704650709888;12.719781290054318;0.45729443232797534;-1.08984375;0.56005859375;-0.0322265625;-7.375;56.9375;-219.1875;
1441976047450935;0.457275390625;-0.47650146484375;-0.70428466796875;-0.26055908203125;15.317157403878042;12.677888373953275;0.4381974148230109;-1.0751953125;0.57861328125;-0.06689453125;-8.75;51.3125;-225.9375;
1441976047466935;0.4825439453125;-0.4598388671875;-0.68994140625;-0.28240966796875;15.774549737518615;12.644159199620638;0.4105503203409172;-1.18408203125;0.4228515625;-0.029296875;-26.5;51.3125;-221.6875;
1441976047489937;0.5047607421875;-0.44854736328125;-0.6708984375;-0.30657958984375;16.22220460575702;12.661358952494142;0.39009196979252525;-1.27197265625;0.25830078125;0.05126953125;-8.875;53.4375;-218.5625;
1441976047504938;0.5225830078125;-0.4425048828125;-0.64764404296875;-0.33416748046875;16.65622890822632;12.72367931718729;0.3664812695564264;-1.36279296875;0.2265625;0.06494140625;36.625;57.625;-213.25;
1441976047526939;0.53570556640625;-0.44000244140625;-0.621826171875;-0.3643798828125;17.0703211598131;12.804113836825067;0.32452502125095095;-1.46337890625;0.236328125;0.07275390625;84.875;53.9375;-208.875;
1441976047549940;0.5452880859375;-0.4384765625;-0.59515380859375;-0.395263671875;17.46515543547773;12.85405224695555;0.23711907388441025;-1.4794921875;0.34814453125;0.015625;121.25;44.0625;-204.1875;
1441976047570941;0.5523681640625;-0.43670654296875;-0.5679931640625;-0.42608642578125;17.84691137022209;12.590170587232159;17.830175095585425;-1.5244140625;0.37939453125;-0.00927734375;136.75;34.4375;-198.875;
1441976047586942;0.55865478515625;-0.43292236328125;-0.5416259765625;-0.45513916015625;17.77317132121519;4.571910764763509;9.681132244426072;-1.529296875;0.44873046875;-0.048828125;142.375;26.5;-197.5;
1441976047617944;0.56488037109375;-0.42706298828125;-0.51641845703125;-0.4815673828125;17.408789318946813;4.419964862063453;9.415884821221027;-1.5087890625;0.4375;-0.0732421875;130.375;21.0;-195.375;
1441976047630945;0.57061767578125;-0.41998291015625;-0.4925537109375;-0.50543212890625;17.061162003550983;4.431166056776906;9.327440917422823;-1.447265625;0.4423828125;-0.06298828125;112.875;18.1875;-192.25;
1441976047646946;0.5751953125;-0.4124755859375;-0.47027587890625;-0.5272216796875;16.737666928620822;4.475572200336447;9.280567685109268;-1.37744140625;0.40576171875;-0.033203125;98.875;15.8125;-184.375;
1441976047669947;0.5782470703125;-0.40496826171875;-0.44989013671875;-0.54705810546875;16.443710926471788;4.535286459496838;9.255403844184244;-1.27294921875;0.4169921875;0.0;90.5;11.8125;-173.8125;
1441976047690948;0.5799560546875;-0.39874267578125;-0.431884765625;-0.5640869140625;16.194127503275155;4.586635287201816;9.228813962737318;-1.16064453125;0.35791015625;0.0634765625;83.625;7.1875;-158.1875;
1441976047706949;0.583251953125;-0.392578125;-0.41766357421875;-0.57562255859375;15.989768715333126;4.59572922727342;9.190911524312273;-1.076171875;0.40869140625;0.07958984375;76.1875;6.1875;-137.5625;
1441976047730951;0.58624267578125;-0.3896484375;-0.412109375;-0.5784912109375;15.906967174132493;4.5720210114538515;9.160041060790153;-0.9912109375;0.40478515625;0.10400390625;44.375;10.75;-115.0625;
1441976047750952;0.59246826171875;-0.3861083984375;-0.410400390625;-0.57574462890625;15.857397602373519;4.498525831904138;9.118119407567722;-0.90380859375;0.4404296875;0.11474609375;2.1875;16.8125;-93.1875;
1441976047766953;0.60009765625;-0.3828125;-0.41156005859375;-0.56915283203125;15.83926719666458;4.39614864411666;9.070269062779321;-0.81005859375;0.37548828125;0.140625;-38.1875;23.5;-70.1875;
1441976047789954;0.60675048828125;-0.38134765625;-0.4146728515625;-0.56085205078125;15.85739675035594;4.2875818451230545;9.018620042238972;-0.72705078125;0.3212890625;0.1376953125;-61.3125;26.75;-48.3125;
1441976047810955;0.61083984375;-0.38250732421875;-0.41943359375;-0.552001953125;15.917000630521517;4.186761004782098;8.965801706397388;-0.70556640625;0.2626953125;0.14794921875;-63.8125;29.0;-25.0;
1441976047826956;0.61248779296875;-0.38616943359375;-0.42578125;-0.54266357421875;16.016146217528988;4.0892442996105975;8.907670384910642;-0.70458984375;0.25439453125;0.09033203125;-53.4375;23.9375;-2.5;
1441976047849957;0.61175537109375;-0.3916015625;-0.434326171875;-0.53271484375;16.155122980703243;3.9979882934780653;8.851610652478763;-0.70263671875;0.27099609375;0.04052734375;-43.1875;18.375;17.5;
1441976047870959;0.60931396484375;-0.398193359375;-0.4444580078125;-0.522216796875;16.322467476474472;3.9045013749881816;8.790964090442332;-0.720703125;0.3115234375;-0.00146484375;-37.25;9.625;35.1875;
1441976047886959;0.60528564453125;-0.4051513671875;-0.45611572265625;-0.51141357421875;16.51187462167127;3.813821253527372;8.732621690533259;-0.74560546875;0.3271484375;-0.0546875;-33.0625;1.1875;48.875;
1441976047909961;0.599609375;-0.4124755859375;-0.46893310546875;-0.50042724609375;16.72100109520976;3.7225623003424197;8.671690145512216;-0.78076171875;0.32861328125;-0.0888671875;-31.75;-8.375;60.0;
1441976047930962;0.592041015625;-0.4202880859375;-0.48248291015625;-0.49005126953125;16.946133839291306;3.637953335059583;8.610817902327016;-0.81689453125;0.3212890625;-0.11083984375;-28.9375;-16.6875;70.5625;
1441976047946963;0.5821533203125;-0.42864990234375;-0.4962158203125;-0.4808349609375;17.184673056818923;3.5705950119925642;8.556202893110457;-0.86328125;0.29638671875;-0.1259765625;-22.0;-25.4375;80.625;
1441976047970964;0.5701904296875;-0.43621826171875;-0.50885009765625;-0.47509765625;17.41129464169701;3.6275463630903966;8.609232012027395;-0.89892578125;0.2548828125;-0.12646484375;-11.3125;-34.125;90.1875;
1441976047990965;0.5546875;-0.44598388671875;-0.5208740234375;-0.4713134765625;17.65762004294909;3.864806855199197;8.818871971902656;-0.951171875;0.18994140625;-0.12939453125;4.6875;-42.9375;100.625;
1441976048006966;0.5352783203125;-0.45867919921875;-0.5316162109375;-0.4696044921875;17.906634638304343;5.6247479646077245;10.522159879075424;-1.0068359375;0.13037109375;-0.12158203125;28.5;-50.5625;111.1875;
1441976048029968;0.51214599609375;-0.474853515625;-0.5401611328125;-0.46954345703125;17.768943107610056;11.631958643478665;16.441307812186906;-1.06103515625;0.08251953125;-0.1142578125;57.4375;-55.5;122.3125;
1441976048050969;0.48590087890625;-0.49493408203125;-0.54583740234375;-0.47015380859375;17.474299299067916;12.277526804550163;16.968698620833447;-1.10498046875;0.0498046875;-0.0966796875;88.8125;-54.8125;133.375;
1441976048066970;0.45745849609375;-0.51849365234375;-0.548583984375;-0.47015380859375;17.163460941780077;12.622260643613492;17.172225097677316;-1.119140625;0.052734375;-0.083984375;119.125;-47.8125;144.3125;
1441976048089971;0.4283447265625;-0.54400634765625;-0.54925537109375;-0.46795654296875;16.840671703309816;12.907918233025582;17.308969504904503;-1.1298828125;0.09521484375;-0.06689453125;142.125;-35.3125;154.6875;
1441976048110972;0.4000244140625;-0.56988525390625;-0.5489501953125;-0.462646484375;16.50890482147959;13.158581300936735;17.417116710125757;-1.15234375;0.16162109375;-0.05078125;150.9375;-19.625;163.4375;
1441976048126973;0.3736572265625;-0.59442138671875;-0.54888916015625;-0.45367431640625;16.171120600573936;13.370848231694394;17.506310347283186;-1.15966796875;0.2177734375;-0.0380859375;145.0;-4.0;169.25;
1441976048157975;0.35052490234375;-0.61651611328125;-0.55023193359375;-0.44091796875;15.832458451950544;13.544951947523476;17.587495939438963;-1.1474609375;0.29833984375;-0.017578125;126.75;10.9375;171.625;
1441976048172976;0.3316650390625;-0.634765625;-0.55413818359375;-0.42431640625;15.498821281725613;13.675019329341849;17.665889064552413;-1.14404296875;0.3681640625;9.765625E-4;97.5;25.3125;171.375;
1441976048186977;0.3172607421875;-0.64886474609375;-0.56097412109375;-0.40460205078125;15.175698182211292;13.7623913611523;17.74405844244746;-1.13330078125;0.40673828125;0.00341796875;58.4375;37.9375;167.3125;
1441976048209978;0.30731201171875;-0.6585693359375;-0.57061767578125;-0.382568359375;14.870571632728495;13.810477364813888;17.824372358665055;-1.1181640625;0.42578125;-0.0087890625;17.5;48.0;160.875;
1441976048232979;0.30096435546875;-0.6644287109375;-0.58233642578125;-0.35906982421875;14.58531420528394;13.827309295680822;17.906797738425556;-1.10595703125;0.41015625;-0.02880859375;-21.4375;55.6875;151.8125;
1441976048247980;0.29718017578125;-0.667236328125;-0.59521484375;-0.335205078125;14.322217355396992;13.82061781778693;17.98823457188681;-1.09765625;0.3642578125;-0.04833984375;-52.75;60.5;141.9375;
1441976048269981;0.29510498046875;-0.66778564453125;-0.60833740234375;-0.3115234375;14.080462547195527;13.799249043409361;0.06849679977128467;-1.06201171875;0.330078125;-0.0751953125;-73.4375;62.25;131.9375;
1441976048292983;0.29400634765625;-0.66680908203125;-0.62091064453125;-0.288818359375;13.861304603128756;13.769599100314386;0.14492049333052548;-1.0341796875;0.30908203125;-0.09033203125;-85.0625;62.125;122.0;
1441976048306983;0.2933349609375;-0.665283203125;-0.63226318359375;-0.26763916015625;13.663684121178832;13.739174375999303;0.21659487534768906;-1.00927734375;0.27197265625;-0.1142578125;-89.0625;59.875;112.0625;
1441976048329985;0.295654296875;-0.66314697265625;-0.6402587890625;-0.2509765625;13.534820235514102;13.721356337895013;0.28883562776142946;-0.9736328125;0.2626953125;-0.11962890625;-84.625;56.3125;102.375;
1441976048352986;0.2979736328125;-0.6614990234375;-0.64642333984375;-0.236328125;13.425377856482543;13.710775809190137;0.3555837182203326;-0.9169921875;0.25048828125;-0.13134765625;-74.75;52.4375;92.6875;
1441976048366987;0.3004150390625;-0.6605224609375;-0.6507568359375;-0.2237548828125;13.335548992286059;13.708939503759353;0.41766653359436207;-0.86279296875;0.248046875;-0.13037109375;-62.875;48.3125;82.125;
1441976048389988;0.30322265625;-0.66009521484375;-0.6533203125;-0.21337890625;13.267859601600822;13.715735458407456;0.4756362818104439;-0.8076171875;0.25341796875;-0.13232421875;-50.375;44.8125;70.5;
1441976048413990;0.30670166015625;-0.659912109375;-0.6544189453125;-0.2054443359375;13.226485886352918;13.728937426223109;0.5290705504877945;-0.7734375;0.26708984375;-0.1318359375;-38.5;41.6875;57.4375;
1441976048433991;0.31097412109375;-0.65985107421875;-0.654296875;-0.1998291015625;13.21100571340977;13.74769682246577;0.5788383256803623;-0.744140625;0.28369140625;-0.13134765625;-28.25;37.8125;42.8125;
1441976048449992;0.3162841796875;-0.65924072265625;-0.65325927734375;-0.1966552734375;13.225880062530571;13.768282595324893;0.6245325089597771;-0.71240234375;0.31298828125;-0.138671875;-20.3125;34.0625;26.625;
1441976048472993;0.32293701171875;-0.65789794921875;-0.65155029296875;-0.1959228515625;13.273428055584603;13.789945684056828;0.6675444692478486;-0.68896484375;0.3447265625;-0.1337890625;-15.375;30.1875;9.0;
1441976048493994;0.33111572265625;-0.65557861328125;-0.64923095703125;-0.19775390625;13.356745232788617;13.812222760988323;0.7084627266654072;-0.673828125;0.365234375;-0.1357421875;-12.3125;26.3125;-9.875;
1441976048509995;0.3406982421875;-0.6522216796875;-0.646240234375;-0.20233154296875;13.476920139428588;13.835287943113581;0.746481191977916;-0.6728515625;0.38232421875;-0.13330078125;-10.0;22.5;-29.0625;
1441976048532996;0.3515625;-0.64801025390625;-0.64239501953125;-0.2095947265625;13.632263618789704;13.86145291913141;0.7826295308465069;-0.68994140625;0.39111328125;-0.12353515625;-7.4375;18.3125;-48.0;
1441976048554998;0.3634033203125;-0.64288330078125;-0.6375732421875;-0.2196044921875;13.821822259913539;13.890870697394053;0.8158995848048555;-0.7109375;0.40087890625;-0.12451171875;-3.0625;13.75;-66.3125;
1441976048569999;0.3751220703125;-0.63671875;-0.6328125;-0.231201171875;14.027840519813447;13.91484914597362;0.8417159532864431;-0.74365234375;0.41796875;-0.134765625;1.1875;7.875;-84.5;
1441976048593000;0.38751220703125;-0.62921142578125;-0.62762451171875;-0.2451171875;14.26393513739198;13.936346443799081;0.862542392167993;-0.794921875;0.431640625;-0.14013671875;3.5625;1.375;-101.3125;
1441976048614001;0.40032958984375;-0.6202392578125;-0.62213134765625;-0.26092529296875;14.525669033463082;13.953414790310116;0.8779136395737088;-0.83984375;0.43408203125;-0.14208984375;4.375;-5.3125;-116.125;
1441976048630002;0.41339111328125;-0.60986328125;-0.61639404296875;-0.27801513671875;14.806791319669708;13.965613837051038;0.8888301293036749;-0.8857421875;0.4306640625;-0.12939453125;4.1875;-11.6875;-128.3125;
1441976048653003;0.426513671875;-0.59808349609375;-0.6107177734375;-0.2957763671875;15.100818759886167;13.969941247583975;0.8945479407477173;-0.92529296875;0.41357421875;-0.115234375;2.4375;-16.8125;-137.4375;
1441976048674004;0.43963623046875;-0.5848388671875;-0.60528564453125;-0.31365966796875;15.403074435546369;13.9636344059;0.8945045741493747;-0.96484375;0.39013671875;-0.09326171875;-1.0;-21.125;-143.5;
1441976048690005;0.45220947265625;-0.57073974609375;-0.60009765625;-0.33111572265625;15.702992237040839;13.94579612822964;0.8860498343687577;-1.01171875;0.3447265625;-0.06787109375;-6.25;-24.4375;-146.8125;
1441976048713007;0.4638671875;-0.5567626953125;-0.59478759765625;-0.3480224609375;15.993272094908816;13.921169514391359;0.8692656611199077;-1.06298828125;0.30517578125;-0.0322265625;-10.0625;-26.5625;-145.5625;
1441976048734008;0.4742431640625;-0.54376220703125;-0.58905029296875;-0.36407470703125;16.265691932530306;13.895750615324756;0.846690111603393;-1.10693359375;0.22900390625;0.02197265625;-8.6875;-26.625;-139.9375;
1441976048750009;0.4827880859375;-0.5330810546875;-0.5821533203125;-0.3792724609375;16.512089690117367;13.886174295018376;0.8274513663565678;-1.12646484375;0.17431640625;0.07080078125;-3.5625;-24.5625;-130.875;
1441976048773010;0.48968505859375;-0.524658203125;-0.5748291015625;-0.39312744140625;16.727825022845334;13.892522938427513;0.815850503425173;-1.14501953125;0.13623046875;0.1025390625;9.5;-19.6875;-118.8125;
1441976048801012;0.49560546875;-0.51629638671875;-0.5689697265625;-0.4051513671875;16.919336676815558;13.872504551554531;0.784707504351829;-1.12744140625;0.2158203125;0.11376953125;18.125;-14.8125;-105.75;
1441976048810012;0.50152587890625;-0.50799560546875;-0.56439208984375;-0.4146728515625;17.087319717189967;13.845693402296979;0.7577167131634488;-1.0986328125;0.18212890625;0.09375;11.8125;-10.75;-92.4375;
1441976048833014;0.5057373046875;-0.50189208984375;-0.56097412109375;-0.42156982421875;17.209521371526918;13.818356379556379;0.7300522835394003;-1.09814453125;0.14794921875;0.09130859375;1.4375;-7.375;-80.9375;
1441976048854015;0.50860595703125;-0.49713134765625;-0.55731201171875;-0.42852783203125;17.317880922402786;13.77990716317015;0.6827532172294789;-1.0625;0.294921875;0.05126953125;0.9375;-6.5;-70.625;
1441976048870016;0.51055908203125;-0.4940185546875;-0.55419921875;-0.43377685546875;17.396977153573975;13.757379868730903;0.6505974401280571;-1.0380859375;0.24267578125;0.044921875;8.8125;-7.5625;-61.625;
1441976048893017;0.5118408203125;-0.49224853515625;-0.5518798828125;-0.437255859375;17.44861065047022;13.75450607801265;0.6397328603187912;-1.0048828125;0.2802734375;9.765625E-4;9.6875;-6.75;-51.4375;
1441976048914018;0.51275634765625;-0.49078369140625;-0.550537109375;-0.439453125;17.483385529246807;13.741368601200508;0.6232185140898593;-0.98974609375;0.3369140625;-0.03466796875;7.9375;-5.0625;-42.6875;
1441976048930019;0.51318359375;-0.48968505859375;-0.5501708984375;-0.440673828125;17.502323011107197;13.707141874643924;0.5887821948658434;-0.96923828125;0.35791015625;-0.0478515625;3.3125;-6.0625;-36.0625;
1441976048953020;0.5130615234375;-0.48895263671875;-0.55029296875;-0.44146728515625;17.510922964081;13.654341209789772;0.5357952592527723;-0.947265625;0.3623046875;-0.05322265625;-0.4375;-7.125;-29.0;
1441976048974022;0.511962890625;-0.48858642578125;-0.55078125;-0.442626953125;17.512416198135153;13.552040724906712;0.4294437090685528;-0.9296875;0.35302734375;-0.0712890625;0.0;-9.375;-23.3125;
1441976048990023;0.5096435546875;-0.48870849609375;-0.55133056640625;-0.44439697265625;17.50688967336226;13.403949804050074;0.27085176310730247;-0.90869140625;0.3291015625;-0.07177734375;3.1875;-14.0;-18.125;
1441976049013024;0.50604248046875;-0.48968505859375;-0.552001953125;-0.4466552734375;17.48970400904184;13.231117418764367;0.08032260415765761;-0.90185546875;0.30029296875;-0.07177734375;9.4375;-18.9375;-12.875;
1441976049034025;0.5013427734375;-0.4915771484375;-0.55267333984375;-0.448974609375;17.459289061947427;13.071780251573967;17.89736604504768;-0.89404296875;0.27978515625;-0.07421875;16.25;-22.75;-6.4375;
1441976049050026;0.4957275390625;-0.494384765625;-0.55328369140625;-0.451416015625;17.417769482243916;12.939074964559818;17.735255997819955;-0.890625;0.25439453125;-0.07421875;22.1875;-24.5;0.6875;
1441976049080028;0.48895263671875;-0.498291015625;-0.55389404296875;-0.45379638671875;17.36182898470904;12.840606953013127;17.60109376953863;-0.91162109375;0.2236328125;-0.0615234375;27.75;-24.9375;8.4375;
1441976049094028;0.48126220703125;-0.5035400390625;-0.55426025390625;-0.45574951171875;17.29260091039055;12.80117655689734;17.520029238035374;-0.9267578125;0.20556640625;-0.04541015625;34.25;-24.3125;16.875;
1441976049110029;0.47271728515625;-0.5101318359375;-0.55450439453125;-0.45709228515625;17.209550139211533;12.81203197014018;17.484339009030958;-0.94140625;0.18701171875;-0.033203125;40.5;-21.9375;26.1875;
1441976049132031;0.463623046875;-0.51800537109375;-0.5545654296875;-0.4573974609375;17.113587286693992;12.872586138865993;17.495533132643782;-0.95361328125;0.17724609375;-0.02197265625;45.6875;-18.125;35.5625;
1441976049154032;0.4542236328125;-0.52685546875;-0.5548095703125;-0.4564208984375;17.00377287127545;12.96303332650846;17.537101925353372;-0.95458984375;0.1796875;-0.02099609375;49.0;-13.0625;44.75;
1441976049170033;0.4451904296875;-0.53594970703125;-0.555419921875;-0.4539794921875;16.885193689095765;13.066412075741741;17.597156457372495;-0.95654296875;0.197265625;-0.01708984375;48.625;-7.8125;52.875;
1441976049192034;0.436767578125;-0.54510498046875;-0.55645751953125;-0.45001220703125;16.75895547770486;13.176070201907379;17.670617985224492;-0.9697265625;0.2021484375;-0.021484375;43.5;-2.4375;59.375;
1441976049215035;0.42889404296875;-0.55413818359375;-0.557861328125;-0.44482421875;16.626896010354308;13.28185807113089;17.74663642129993;-0.96875;0.1982421875;-0.02978515625;37.0;2.5625;65.125;
1441976049230036;0.421630859375;-0.56304931640625;-0.55963134765625;-0.43829345703125;16.48828912218217;13.384732782525802;17.82670345358604;-0.9765625;0.19921875;-0.0263671875;30.9375;7.875;70.0625;
1441976049252038;0.41497802734375;-0.57177734375;-0.56158447265625;-0.43072509765625;16.345821646121852;13.482239805435418;17.907145551094878;-0.9697265625;0.20166015625;-0.029296875;24.9375;13.0;74.25;
1441976049275039;0.4090576171875;-0.5802001953125;-0.56378173828125;-0.4222412109375;16.201069671757686;13.572565848417582;17.986707389593047;-0.978515625;0.20849609375;-0.0380859375;19.3125;17.75;77.25;
1441976049290040;0.4039306640625;-0.588134765625;-0.56610107421875;-0.41302490234375;16.056925255245524;13.65508652279955;0.06461581748560538;-0.97705078125;0.21533203125;-0.03759765625;13.5625;22.125;78.875;
1441976049312041;0.3994140625;-0.5955810546875;-0.56854248046875;-0.40325927734375;15.913382727866246;13.728555586521438;0.1385938128411012;-0.96875;0.21826171875;-0.048828125;7.875;25.75;79.25;
1441976049335042;0.395751953125;-0.6024169921875;-0.57086181640625;-0.393310546875;15.776182550492916;13.795326045147386;0.21032687918969142;-0.9560546875;0.2373046875;-0.048828125;3.375;28.8125;78.0625;
1441976049356043;0.392822265625;-0.6083984375;-0.57318115234375;-0.3834228515625;15.64708803979416;13.851849607813008;0.27629793523045126;-0.95361328125;0.24853515625;-0.0615234375;-1.0;31.125;75.25;
1441976049372044;0.390625;-0.61376953125;-0.5753173828125;-0.3739013671875;15.527976352855307;13.902093703794176;0.3383707079965323;-0.9501953125;0.25830078125;-0.0615234375;-5.0;32.1875;70.9375;
1441976049395046;0.38909912109375;-0.618408203125;-0.57720947265625;-0.36480712890625;15.419873346668636;13.946521924744292;0.3968348984432679;-0.9384765625;0.2666015625;-0.068359375;-7.3125;32.3125;65.8125;
1441976049416047;0.3883056640625;-0.6221923828125;-0.57891845703125;-0.3564453125;15.325986572953159;13.984263658759414;0.45065684624781244;-0.92529296875;0.28369140625;-0.0771484375;-9.3125;32.0;59.875;
1441976049432048;0.38824462890625;-0.62518310546875;-0.580322265625;-0.348876953125;15.247010596055073;14.017822104895561;0.5016206269128528;-0.9228515625;0.29150390625;-0.07080078125;-11.0625;31.5625;52.875;
1441976049455049;0.38909912109375;-0.6273193359375;-0.58148193359375;-0.3421630859375;15.184684263193539;14.048084315434856;0.5513289008529412;-0.9140625;0.3017578125;-0.07568359375;-12.5625;30.625;45.125;
1441976049476050;0.39068603515625;-0.62847900390625;-0.58245849609375;-0.33648681640625;15.139921527424715;14.07312026883262;0.597298605045558;-0.89990234375;0.3046875;-0.0791015625;-14.25;29.125;36.75;
1441976049492051;0.3931884765625;-0.628662109375;-0.5831298828125;-0.33197021484375;15.115206991320003;14.095437060799485;0.6418359687732619;-0.89794921875;0.3076171875;-0.0791015625;-16.0;27.0;28.0625;
1441976049515053;0.396240234375;-0.6279296875;-0.583740234375;-0.3287353515625;15.108543665795034;14.11177862996377;0.6807541434736628;-0.900390625;0.3017578125;-0.0810546875;-17.25;24.5;19.25;
1441976049536054;0.4000244140625;-0.62640380859375;-0.58392333984375;-0.32666015625;15.120445682201797;14.127828760627342;0.7191736312111334;-0.89990234375;0.2978515625;-0.068359375;-17.875;21.625;10.6875;
1441976049552055;0.40435791015625;-0.62420654296875;-0.58367919921875;-0.32586669921875;15.150255394795748;14.143463757635764;0.7556808575041843;-0.9033203125;0.2900390625;-0.07177734375;-17.5625;19.0;2.125;
1441976049581056;0.4090576171875;-0.62158203125;-0.5830078125;-0.3262939453125;15.195189426263834;14.159666939268345;0.7901570347963616;-0.904296875;0.2802734375;-0.0693359375;-16.625;16.375;-6.125;
1441976049596057;0.41387939453125;-0.61865234375;-0.58184814453125;-0.3280029296875;15.253931330382025;14.176440506821876;0.8211615026575352;-0.900390625;0.27685546875;-0.064453125;-14.125;13.6875;-13.6875;
1441976049612058;0.4185791015625;-0.6153564453125;-0.58026123046875;-0.3309326171875;15.324908680708951;14.191807303260736;0.8465648069554088;-0.90673828125;0.27587890625;-0.0576171875;-10.5625;10.4375;-20.6875;
1441976049636059;0.42333984375;-0.61181640625;-0.57830810546875;-0.3348388671875;15.406328268956573;14.207814761399298;0.8694945156502697;-0.90869140625;0.28369140625;-0.05029296875;-6.625;6.8125;-27.3125;
1441976049656061;0.427978515625;-0.60784912109375;-0.57623291015625;-0.33966064453125;15.4972006771905;14.220105900137007;0.8865155431025638;-0.9189453125;0.29931640625;-0.05810546875;-3.875;3.0;-33.375;
1441976049672062;0.43267822265625;-0.60333251953125;-0.57421875;-0.34515380859375;15.596782004026675;14.22781226591678;0.8989136814312142;-0.91796875;0.310546875;-0.05810546875;-2.5625;-0.875;-39.125;
1441976049695063;0.4375;-0.59814453125;-0.572265625;-0.35125732421875;15.7056411662193;14.230345093460823;0.9068228810301773;-0.92138671875;0.3212890625;-0.06005859375;-2.9375;-4.8125;-44.75;
1441976049716064;0.44244384765625;-0.59222412109375;-0.57049560546875;-0.35797119140625;15.823848358874525;14.225332513252088;0.9083943768078524;-0.92431640625;0.3212890625;-0.060546875;-4.3125;-8.3125;-49.875;
1441976049732065;0.44732666015625;-0.585693359375;-0.56878662109375;-0.365234375;15.949614468217506;14.212489590666872;0.9022919589398538;-0.93310546875;0.31494140625;-0.05615234375;-5.8125;-12.0;-54.375;
1441976049755066;0.4520263671875;-0.57879638671875;-0.567138671875;-0.37286376953125;16.07938892958237;14.191696514483102;0.8878698433639076;-0.93701171875;0.29638671875;-0.05322265625;-6.625;-15.4375;-57.8125;
1441976049776067;0.45660400390625;-0.5716552734375;-0.5655517578125;-0.38067626953125;16.21121107526603;14.163561416588657;0.8660933148543501;-0.9443359375;0.29638671875;-0.044921875;-6.5625;-18.1875;-60.0625;
1441976049792068;0.46087646484375;-0.5643310546875;-0.56402587890625;-0.38861083984375;16.343229355332898;14.12514886902474;0.8335177647665946;-0.955078125;0.2841796875;-0.0380859375;-6.625;-20.0625;-61.5625;
1441976049815070;0.46490478515625;-0.5570068359375;-0.5626220703125;-0.3963623046875;16.471926150275156;14.077231294308895;0.7916262356008118;-0.96435546875;0.2744140625;-0.0283203125;-6.875;-21.6875;-61.8125;
1441976049840071;0.4683837890625;-0.54998779296875;-0.561279296875;-0.4039306640625;16.593948449620413;14.017796553038725;0.7364787658533717;-0.958984375;0.2578125;-0.02294921875;-6.9375;-22.875;-60.6875;
1441976049852072;0.4713134765625;-0.54345703125;-0.55987548828125;-0.41119384765625;16.70750281496103;13.949348096751937;0.670067799494517;-0.966796875;0.2509765625;-0.01806640625;-5.75;-23.5625;-58.375;
1441976049875073;0.4737548828125;-0.53753662109375;-0.55841064453125;-0.41815185546875;16.81203114368966;13.872816623268912;0.5931372452753084;-0.9697265625;0.2470703125;-0.013671875;-3.5625;-23.625;-55.125;
1441976049896074;0.4755859375;-0.53228759765625;-0.55694580078125;-0.4246826171875;16.905284727550107;13.786605376805062;0.5041108934907887;-0.9677734375;0.234375;-0.02294921875;-1.3125;-23.4375;-51.5;
1441976049912075;0.47686767578125;-0.52783203125;-0.55548095703125;-0.4306640625;16.985949644265876;13.695055011544287;0.4075024892923826;-0.97265625;0.2236328125;-0.01806640625;1.125;-22.8125;-47.0625;
1441976049935077;0.4774169921875;-0.52423095703125;-0.55419921875;-0.43609619140625;17.05180668577658;13.594412103935495;0.2993787686925785;-0.97265625;0.2236328125;-0.025390625;3.4375;-22.125;-42.0;
1441976049956078;0.47747802734375;-0.5213623046875;-0.55316162109375;-0.4407958984375;17.103443526406284;13.491087295945034;0.18790376487957708;-0.97119140625;0.22509765625;-0.0224609375;5.4375;-21.125;-36.5;
1441976049972079;0.4771728515625;-0.51922607421875;-0.55230712890625;-0.4447021484375;17.141752159935244;13.394144050043545;0.08248912211886231;-0.97119140625;0.22314453125;-0.021484375;6.5;-19.75;-30.5625;
1441976049995080;0.47637939453125;-0.5177001953125;-0.5518798828125;-0.44781494140625;17.165668213340684;13.29928295734034;17.97953345860264;-0.96484375;0.21923828125;-0.02734375;6.8125;-18.0625;-24.5;
1441976050016081;0.47515869140625;-0.51702880859375;-0.55169677734375;-0.45013427734375;17.17566038167525;13.221944180202279;17.89341201839424;-0.95947265625;0.21533203125;-0.0185546875;6.75;-16.375;-18.125;
1441976050032082;0.4736328125;-0.51708984375;-0.55169677734375;-0.45166015625;17.173977511985218;13.167147783917978;17.829674003439358;-0.958984375;0.21484375;-0.02294921875;7.3125;-14.5;-11.625;
1441976050056084;0.47161865234375;-0.51800537109375;-0.5518798828125;-0.4525146484375;17.159913032381667;13.134574078397957;17.786765812441732;-0.9501953125;0.20849609375;-0.03125;7.8125;-12.5;-4.9375;
1441976050068084;0.46923828125;-0.51971435546875;-0.5521240234375;-0.45269775390625;17.135531333352915;13.12752887393228;17.768170475981947;-0.94384765625;0.20458984375;-0.0302734375;9.0;-10.4375;1.4375;
1441976050091086;0.46636962890625;-0.522216796875;-0.552490234375;-0.45233154296875;17.10042839390083;13.139263060987732;17.766605028422134;-0.9443359375;0.2041015625;-0.0361328125;10.8125;-8.375;7.4375;
1441976050106086;0.463134765625;-0.525390625;-0.5528564453125;-0.45147705078125;17.05701545285879;13.1678671700358;17.78033501938772;-0.9443359375;0.2099609375;-0.03955078125;12.5625;-6.4375;13.0;
1441976050128088;0.4595947265625;-0.5291748046875;-0.55328369140625;-0.45013427734375;17.005531127920605;13.209361100017409;17.805898160925825;-0.94287109375;0.2158203125;-0.04150390625;14.25;-4.5;17.6875;
1441976050151089;0.4559326171875;-0.53338623046875;-0.5538330078125;-0.4483642578125;16.947932348399608;13.258343385289962;17.838937422104987;-0.939453125;0.2216796875;-0.0419921875;15.5;-2.625;22.0;
1441976050166090;0.4522705078125;-0.5377197265625;-0.55438232421875;-0.44610595703125;16.88667794695904;13.312055481820254;17.877760382435795;-0.9365234375;0.2197265625;-0.04296875;15.5625;-0.6875;25.6875;
1441976050188091;0.44866943359375;-0.54229736328125;-0.5550537109375;-0.443359375;16.820761648705172;13.370134421042412;17.92216572903743;-0.9345703125;0.21923828125;-0.0390625;15.0;1.3125;28.75;
1441976050211092;0.4453125;-0.546875;-0.55584716796875;-0.44012451171875;16.752427707354194;13.429709267850829;17.97051603426497;-0.9384765625;0.2255859375;-0.04345703125;13.6875;3.5625;31.3125;
1441976050226093;0.44207763671875;-0.551513671875;-0.556640625;-0.4365234375;16.681850575069948;13.48993048978283;0.02073342921418403;-0.9375;0.22314453125;-0.0380859375;11.75;5.5625;33.375;
1441976050248094;0.4390869140625;-0.55615234375;-0.5574951171875;-0.4326171875;16.61009236379375;13.549424755811634;0.07197093732789561;-0.94384765625;0.22607421875;-0.04345703125;10.3125;7.6875;34.875;
1441976050271096;0.43646240234375;-0.560546875;-0.55841064453125;-0.42840576171875;16.539098369230828;13.606310808635698;0.123409766003936;-0.95556640625;0.2392578125;-0.0419921875;9.0;9.75;35.75;
1441976050286097;0.43426513671875;-0.56463623046875;-0.559326171875;-0.42401123046875;16.470609102992036;13.660483617762246;0.1747735722461132;-0.96484375;0.244140625;-0.044921875;6.5625;11.3125;35.5625;
1441976050308098;0.43231201171875;-0.568359375;-0.5604248046875;-0.4195556640625;16.40382897611689;13.706682940137407;0.22063122413399675;-0.9638671875;0.2373046875;-0.04736328125;3.75;12.5;35.375;
1441976050331099;0.43060302734375;-0.57196044921875;-0.5614013671875;-0.4150390625;16.338884098437084;13.752147666036251;0.2666376854778862;-0.95361328125;0.23046875;-0.03466796875;1.75;13.4375;35.0;
1441976050346100;0.42919921875;-0.57550048828125;-0.562255859375;-0.41058349609375;16.276621888261975;13.79737268905523;0.3129344674471591;-0.94384765625;0.228515625;-0.03466796875;0.9375;14.75;34.875;
1441976050368101;0.427978515625;-0.578857421875;-0.5628662109375;-0.4061279296875;16.21701163187365;13.842157219583289;0.35914838080045397;-0.93798828125;0.2255859375;-0.033203125;0.75;16.0625;34.0;
1441976050391103;0.42718505859375;-0.5819091796875;-0.5634765625;-0.40191650390625;16.162884641002996;13.883420867458199;0.40325734865235074;-0.9404296875;0.234375;-0.037109375;0.5625;17.125;32.4375;
1441976050422104;0.426513671875;-0.584716796875;-0.56390380859375;-0.3978271484375;16.112020424973178;13.922511989325933;0.44537700501278565;-0.93994140625;0.23095703125;-0.03076171875;-0.625;17.75;30.375;
1441976050428105;0.42608642578125;-0.58740234375;-0.56414794921875;-0.39398193359375;16.06534031497155;13.961197756888765;0.4869162110011961;-0.931640625;0.23974609375;-0.0322265625;-0.8125;17.75;28.25;
1441976050451106;0.42584228515625;-0.58966064453125;-0.5643310546875;-0.3905029296875;16.02468211450628;13.994762148058348;0.5238694741349504;-0.921875;0.24462890625;-0.04150390625;-0.625;17.625;25.6875;
1441976050474107;0.4259033203125;-0.59173583984375;-0.5643310546875;-0.38739013671875;15.989859259532789;14.02811735985949;0.5604353456063839;-0.92041015625;0.25244140625;-0.0322265625;-1.0;17.3125;22.8125;
1441976050488108;0.42620849609375;-0.59332275390625;-0.564208984375;-0.384765625;15.962988306672704;14.057444087665273;0.5933289820260144;-0.9150390625;0.26220703125;-0.0458984375;-0.9375;16.3125;19.3125;
1441976050511110;0.42681884765625;-0.59442138671875;-0.56402587890625;-0.3826904296875;15.94473284803754;14.082796031375194;0.6227778604248991;-0.912109375;0.26904296875;-0.04541015625;-1.5;15.125;15.25;
1441976050534111;0.42767333984375;-0.59490966796875;-0.56378173828125;-0.38134765625;15.936949010156326;14.10235512404353;0.6466070097222457;-0.9130859375;0.2734375;-0.04443359375;-1.875;13.3125;10.8125;
1441976050548112;0.4287109375;-0.59503173828125;-0.5633544921875;-0.38055419921875;15.936971383972544;14.120029408528822;0.6680147015901439;-0.91162109375;0.2734375;-0.04052734375;-2.3125;11.25;6.4375;
1441976050571113;0.429931640625;-0.59478759765625;-0.56268310546875;-0.380615234375;15.947400402418072;14.135342152754465;0.6854506935234483;-0.9111328125;0.2763671875;-0.04443359375;-2.0625;9.125;2.0625;
1441976050594114;0.43121337890625;-0.5941162109375;-0.56182861328125;-0.38140869140625;15.966846661598904;14.146887031493314;0.697869745423117;-0.9228515625;0.27197265625;-0.0498046875;-0.75;6.8125;-2.375;
1441976050608115;0.4326171875;-0.5931396484375;-0.56085205078125;-0.3828125;15.99381257404619;14.156002477816276;0.7069630725424174;-0.927734375;0.2783203125;-0.04150390625;0.5;4.3125;-6.8125;
1441976050631116;0.4342041015625;-0.59173583984375;-0.559814453125;-0.384765625;16.028673562491033;14.161854428041458;0.7127866119771648;-0.935546875;0.29248046875;-0.046875;1.125;1.9375;-11.125;
1441976050646117;0.43603515625;-0.58966064453125;-0.558837890625;-0.38720703125;16.072327364633534;14.161848499811173;0.714167909078224;-0.931640625;0.294921875;-0.052734375;0.625;-0.4375;-15.5625;
1441976050668119;0.43798828125;-0.58709716796875;-0.55810546875;-0.39007568359375;16.122019404218342;14.154070576893163;0.7090076240105913;-0.93212890625;0.294921875;-0.044921875;-0.75;-2.875;-19.75;
1441976050691120;0.4400634765625;-0.58392333984375;-0.5574951171875;-0.3931884765625;16.177415025575087;14.13934871698266;0.6986736643091571;-0.93408203125;0.298828125;-0.04345703125;-2.375;-5.1875;-23.1875;
1441976050714121;0.44232177734375;-0.580322265625;-0.55718994140625;-0.396484375;16.236633357030694;14.117161952754;0.6829837326364323;-0.9365234375;0.29638671875;-0.04150390625;-4.4375;-7.5;-25.9375;
1441976050728122;0.4447021484375;-0.576171875;-0.55694580078125;-0.40020751953125;16.302687156901477;14.086761627407244;0.659950847733155;-0.94091796875;0.291015625;-0.03857421875;-6.6875;-9.75;-28.1875;
1441976050751123;0.44671630859375;-0.5721435546875;-0.5565185546875;-0.40423583984375;16.36890021652161;14.052016648904381;0.6297393985694988;-0.9443359375;0.2587890625;-0.03125;-7.8125;-11.75;-29.0625;
1441976050774125;0.4483642578125;-0.56854248046875;-0.55584716796875;-0.408447265625;16.43270539551398;14.016831622315696;0.5955509992727246;-0.94921875;0.24755859375;-0.0263671875;-5.4375;-13.25;-29.0625;
1441976050788125;0.4495849609375;-0.565185546875;-0.55499267578125;-0.412841796875;16.49459333016179;13.977656476370075;0.5543802221734043;-0.95458984375;0.2490234375;-0.033203125;-2.0625;-14.3125;-28.75;
1441976050811127;0.450439453125;-0.56201171875;-0.55426025390625;-0.417236328125;16.552635468516538;13.9310039174148;0.5045034696946245;-0.955078125;0.2470703125;-0.0361328125;0.375;-15.5;-28.25;
1441976050834128;0.45098876953125;-0.55914306640625;-0.553466796875;-0.42156982421875;16.606609730280685;13.881621131521504;0.45014379288913203;-0.953125;0.2490234375;-0.02587890625;2.0;-16.375;-27.125;
1441976050848129;0.4512939453125;-0.5565185546875;-0.55267333984375;-0.42572021484375;16.6560476367739;13.829730927018543;0.3924083404158513;-0.9560546875;0.24853515625;-0.0322265625;3.25;-16.9375;-25.75;
1441976050871130;0.45123291015625;-0.55426025390625;-0.55194091796875;-0.42962646484375;16.698856991771855;13.77522934039;0.33084089514651854;-0.95654296875;0.2412109375;-0.0322265625;4.0625;-17.0625;-23.875;
1441976050894131;0.4510498046875;-0.55230712890625;-0.5513916015625;-0.43310546875;16.734972343473935;13.72095635118589;0.27003716876030875;-0.95263671875;0.240234375;-0.02392578125;5.25;-16.5;-21.375;
1441976050908132;0.45074462890625;-0.55059814453125;-0.55096435546875;-0.4361572265625;16.765076370078027;13.66797098723486;0.21105764234640206;-0.951171875;0.24609375;-0.01904296875;5.1875;-15.3125;-19.0;
1441976050931134;0.4503173828125;-0.54913330078125;-0.5506591796875;-0.43865966796875;16.78845498346098;13.618586063300633;0.15656699596070775;-0.95166015625;0.23681640625;-0.0205078125;4.375;-14.1875;-16.375;
1441976050954135;0.449951171875;-0.548095703125;-0.550537109375;-0.44061279296875;16.80509135692754;13.577961241738434;0.11189071976808221;-0.9482421875;0.2412109375;-0.017578125;3.6875;-12.875;-13.625;
1441976050968136;0.44952392578125;-0.54718017578125;-0.5506591796875;-0.44195556640625;16.81532041343916;13.540854028894776;0.0726719943664273;-0.951171875;0.2412109375;-0.02490234375;2.75;-11.1875;-10.8125;
1441976050990137;0.44921875;-0.546630859375;-0.55084228515625;-0.44268798828125;16.820033736881093;13.51685202737379;0.047790111645268016;-0.9482421875;0.244140625;-0.025390625;1.0625;-9.5;-8.0625;
1441976051014138;0.44879150390625;-0.54644775390625;-0.5511474609375;-0.4429931640625;16.81869942836941;13.500174842991857;0.03040980218952332;-0.94287109375;0.2373046875;-0.0341796875;-0.0625;-7.625;-5.125;
1441976051028139;0.44830322265625;-0.54656982421875;-0.55157470703125;-0.44287109375;16.812068594873548;13.490883690577357;0.02094379060522581;-0.93505859375;0.23681640625;-0.03173828125;-0.25;-5.75;-2.375;
1441976051051140;0.44781494140625;-0.5469970703125;-0.55206298828125;-0.4422607421875;16.800482184417213;13.491398282067635;0.02198855794506165;-0.93408203125;0.23876953125;-0.0322265625;-0.625;-3.875;0.3125;
1441976051066141;0.44744873046875;-0.54754638671875;-0.55267333984375;-0.441162109375;16.78533290120273;13.499259204344732;0.032139956680705996;-0.935546875;0.2412109375;-0.02978515625;-1.0;-2.0;2.75;
1441976051088143;0.447021484375;-0.54827880859375;-0.55340576171875;-0.439697265625;16.76590622875647;13.511342548789198;0.047220092691573574;-0.93896484375;0.240234375;-0.03564453125;-2.375;-0.5;5.0625;
1441976051111144;0.44671630859375;-0.5491943359375;-0.55413818359375;-0.43798828125;16.744703044237873;13.529879960759617;0.06928206160818394;-0.93359375;0.2392578125;-0.03173828125;-3.3125;0.9375;7.0625;
1441976051125145;0.44635009765625;-0.55029296875;-0.55487060546875;-0.43603515625;16.720531757958835;13.552296541129767;0.09522710425251123;-0.94091796875;0.2333984375;-0.0390625;-3.625;2.3125;9.1875;
1441976051148146;0.44586181640625;-0.5516357421875;-0.5555419921875;-0.4339599609375;16.69374184103104;13.577915666755118;0.12349789319839201;-0.94775390625;0.2216796875;-0.03857421875;-3.375;3.375;11.1875;
1441976051171147;0.4453125;-0.55322265625;-0.55615234375;-0.43182373046875;16.6650682472237;13.606485404610343;0.15383912003923159;-0.9482421875;0.2177734375;-0.03564453125;-2.625;4.625;13.25;
1441976051186148;0.44451904296875;-0.55517578125;-0.556640625;-0.42950439453125;16.63218643364332;13.639290791987685;0.18683660392528922;-0.94384765625;0.20947265625;-0.0302734375;-1.1875;6.0;15.25;
1441976051210150;0.44366455078125;-0.55743408203125;-0.556884765625;-0.42706298828125;16.597422082518047;13.678207088461367;0.22453879697870538;-0.939453125;0.21044921875;-0.0244140625;0.375;7.5;17.125;
1441976051231151;0.4427490234375;-0.5599365234375;-0.55718994140625;-0.42437744140625;16.558788397052975;13.718864872520152;0.2639815024674038;-0.93115234375;0.20849609375;-0.025390625;1.9375;9.0625;18.5625;
1441976051254152;0.44189453125;-0.5625;-0.55743408203125;-0.42144775390625;16.518484913389813;13.761693504322801;0.30612708277528383;-0.927734375;0.21826171875;-0.02392578125;2.5625;10.6875;19.75;
1441976051268153;0.44134521484375;-0.56500244140625;-0.557861328125;-0.41815185546875;16.47661631751114;13.805320390978304;0.35171486331614477;-0.93115234375;0.228515625;-0.02294921875;1.75;12.25;20.5;
1441976051290154;0.44110107421875;-0.5672607421875;-0.558349609375;-0.4146728515625;16.435945809421504;13.847739762660098;0.3983926915955535;-0.93115234375;0.23388671875;-0.02734375;-0.1875;13.625;20.6875;
1441976051314155;0.441162109375;-0.5692138671875;-0.5589599609375;-0.4110107421875;16.39654323137904;13.887650899234028;0.4452166873770448;-0.935546875;0.23828125;-0.0322265625;-2.9375;14.75;20.3125;
1441976051328156;0.44158935546875;-0.5709228515625;-0.55963134765625;-0.40740966796875;16.360417938540937;13.925581019969519;0.49182515382559727;-0.94384765625;0.24462890625;-0.033203125;-5.1875;15.4375;19.4375;
1441976051351158;0.44219970703125;-0.5723876953125;-0.56011962890625;-0.4039306640625;16.32795266549772;13.962755401204396;0.5380425789397385;-0.94970703125;0.248046875;-0.03564453125;-6.75;15.75;17.9375;
1441976051374159;0.44305419921875;-0.57354736328125;-0.5606689453125;-0.400634765625;16.29937543954419;13.996043808728466;0.5816115911453591;-0.95751953125;0.25048828125;-0.04248046875;-7.375;15.75;16.125;
1441976051388160;0.44403076171875;-0.5743408203125;-0.5611572265625;-0.3975830078125;16.275350512139983;14.025306915837678;0.6216958083650892;-0.9541015625;0.25830078125;-0.0390625;-7.875;15.4375;13.875;
1441976051411161;0.44525146484375;-0.5748291015625;-0.561767578125;-0.394775390625;16.25558496238455;14.050397329958573;0.6588367898939854;-0.9462890625;0.26025390625;-0.0390625;-9.125;14.875;11.625;
1441976051434162;0.44671630859375;-0.57489013671875;-0.5623779296875;-0.39215087890625;16.240815239138424;14.072492422295984;0.6944025267911555;-0.9404296875;0.2626953125;-0.0361328125;-10.0;14.0625;9.25;
1441976051448163;0.44842529296875;-0.574462890625;-0.5631103515625;-0.38970947265625;16.23103392778792;14.089845977794482;0.7271737830264237;-0.93359375;0.265625;-0.03662109375;-11.375;13.375;6.875;
1441976051470164;0.450439453125;-0.57342529296875;-0.56402587890625;-0.38751220703125;16.22761043078184;14.101217392419219;0.7564347742797467;-0.9375;0.26611328125;-0.03564453125;-13.75;12.1875;4.375;
1441976051494166;0.45257568359375;-0.572021484375;-0.56500244140625;-0.3857421875;16.230028602598857;14.1076488359791;0.781090659792529;-0.9375;0.26025390625;-0.03662109375;-16.0625;10.8125;2.0625;
1441976051508167;0.45458984375;-0.570556640625;-0.5657958984375;-0.3843994140625;16.23605429857668;14.112487350333653;0.8022000797392405;-0.935546875;0.24951171875;-0.03173828125;-16.5625;9.3125;0.25;
1441976051531168;0.45635986328125;-0.56915283203125;-0.56634521484375;-0.38360595703125;16.24549496278693;14.115712257025201;0.8184977244361659;-0.93310546875;0.23974609375;-0.03466796875;-14.875;7.5;-1.1875;
1441976051554169;0.457763671875;-0.56787109375;-0.5665283203125;-0.3834228515625;16.25824635852647;14.117852956908466;0.8294650168686897;-0.93798828125;0.23828125;-0.03955078125;-12.0;5.3125;-2.4375;
1441976051568170;0.4588623046875;-0.56683349609375;-0.56646728515625;-0.3837890625;16.27302055671088;14.11925534469423;0.8357767719950602;-0.93896484375;0.240234375;-0.0439453125;-8.3125;3.125;-3.625;
1441976051590171;0.4595947265625;-0.5657958984375;-0.56634521484375;-0.38470458984375;16.290419676427067;14.114771751488115;0.8333599243670001;-0.947265625;0.24462890625;-0.05029296875;-4.5;1.0;-4.875;
1441976051614173;0.460205078125;-0.56475830078125;-0.56622314453125;-0.3857421875;16.308151254928134;14.108269507381806;0.8282168198999079;-0.94482421875;0.255859375;-0.044921875;-1.875;-1.125;-6.375;
1441976051628173;0.46075439453125;-0.56329345703125;-0.56622314453125;-0.38714599609375;16.3305881746738;14.093611759711111;0.8152706871208444;-0.943359375;0.26904296875;-0.0498046875;-1.5625;-2.875;-7.8125;
1441976051651175;0.46136474609375;-0.56170654296875;-0.56622314453125;-0.388671875;16.354967404648896;14.077444586067013;0.8009838899330315;-0.93701171875;0.2587890625;-0.03759765625;-1.875;-4.4375;-9.0625;
1441976051674176;0.4619140625;-0.56005859375;-0.56634521484375;-0.3902587890625;16.37941719178061;14.057577857142393;0.7831659711006668;-0.93505859375;0.25439453125;-0.03564453125;-2.1875;-5.625;-10.125;
1441976051688177;0.46258544921875;-0.55828857421875;-0.56634521484375;-0.3919677734375;16.406494098645105;14.038276724962715;0.7659123277034836;-0.93798828125;0.25927734375;-0.04638671875;-2.6875;-6.5625;-10.75;
1441976051719179;0.46319580078125;-0.55645751953125;-0.56640625;-0.39373779296875;16.433808601988893;14.015844865947265;0.7455266369161234;-0.9404296875;0.2529296875;-0.04541015625;-2.75;-7.25;-11.5625;
1441976051742180;0.4637451171875;-0.55462646484375;-0.56640625;-0.3956298828125;16.461850132265994;13.992010386352941;0.7230318262786759;-0.94140625;0.25537109375;-0.04638671875;-2.6875;-7.8125;-12.125;
1441976051748180;0.4642333984375;-0.55291748046875;-0.56634521484375;-0.3975830078125;16.48941637279968;13.96828330122292;0.6997552394916791;-0.9404296875;0.25;-0.0458984375;-2.3125;-8.375;-12.5625;
1441976051771182;0.46466064453125;-0.55133056640625;-0.566162109375;-0.39947509765625;16.51582948704716;13.946429244110256;0.6776609006664889;-0.93896484375;0.2509765625;-0.0478515625;-1.5;-8.6875;-12.625;
1441976051794183;0.465087890625;-0.5498046875;-0.5660400390625;-0.40130615234375;16.541113387844764;13.923988927722954;0.6551494629385415;-0.93701171875;0.25244140625;-0.0478515625;-0.75;-8.4375;-12.6875;
1441976051808184;0.465576171875;-0.54827880859375;-0.56591796875;-0.403076171875;16.56618303656887;13.90196507327079;0.6334066870041112;-0.9384765625;0.255859375;-0.04296875;-0.75;-8.125;-12.6875;
1441976051831185;0.466064453125;-0.5467529296875;-0.5657958984375;-0.40460205078125;16.589394002265806;13.881119186586105;0.6135743733787767;-0.939453125;0.25244140625;-0.041015625;-1.125;-7.75;-12.5625;
1441976051854186;0.46673583984375;-0.54534912109375;-0.56573486328125;-0.40594482421875;16.611239221365963;13.863798823775525;0.598125620417758;-0.939453125;0.24853515625;-0.04345703125;-1.75;-7.1875;-12.0625;
1441976051868187;0.46734619140625;-0.54400634765625;-0.565673828125;-0.40704345703125;16.630592327603416;13.847955258790858;0.5845335240254376;-0.9345703125;0.2421875;-0.05029296875;-2.625;-6.5;-11.1875;
1441976051890188;0.4678955078125;-0.54290771484375;-0.565673828125;-0.407958984375;16.646589871963684;13.834399781551635;0.5730454942219263;-0.9384765625;0.23876953125;-0.04833984375;-3.0;-5.9375;-10.1875;
1441976051914190;0.4683837890625;-0.54193115234375;-0.56561279296875;-0.40869140625;16.660453407622022;13.823753647384383;0.564312267667644;-0.93994140625;0.24072265625;-0.05078125;-2.875;-5.375;-8.8125;
1441976051928191;0.46868896484375;-0.541259765625;-0.5655517578125;-0.409423828125;16.671517765303232;13.814197764489784;0.5552470527801492;-0.94140625;0.23095703125;-0.04931640625;-2.5625;-4.6875;-7.3125;
1441976051951192;0.46875;-0.54095458984375;-0.56536865234375;-0.409912109375;16.677857566449;13.80983652751355;0.5499990878567202;-0.9453125;0.22802734375;-0.044921875;-1.1875;-3.9375;-5.5625;
1441976051974193;0.46868896484375;-0.541015625;-0.565185546875;-0.41015625;16.679651944942176;13.810448161323412;0.5490205812698562;-0.939453125;0.2265625;-0.04345703125;0.5;-2.875;-3.625;
1441976051988194;0.46856689453125;-0.5413818359375;-0.56500244140625;-0.41009521484375;16.677156842742807;13.816650724621926;0.5534644744579622;-0.94384765625;0.228515625;-0.04345703125;1.3125;-1.6875;-1.5625;
1441976052011195;0.46856689453125;-0.5418701171875;-0.56488037109375;-0.40966796875;16.67174445997163;13.828126781633118;0.5644201789037923;-0.939453125;0.2314453125;-0.04443359375;1.375;-0.3125;0.125;
1441976052033197;0.46856689453125;-0.54241943359375;-0.56488037109375;-0.408935546875;16.66327674515543;13.840987667742215;0.5778305136870234;-0.93994140625;0.23681640625;-0.048828125;0.625;1.1875;1.4375;
1441976052048197;0.4686279296875;-0.54302978515625;-0.56494140625;-0.40789794921875;16.652311239745387;13.85682462810372;0.5952870959725123;-0.9501953125;0.24755859375;-0.04443359375;-0.4375;2.4375;2.375;
1441976052070199;0.46881103515625;-0.543701171875;-0.5650634765625;-0.4066162109375;16.63958515882685;13.875725017358118;0.6168631788090362;-0.9560546875;0.2470703125;-0.046875;-1.5625;3.3125;3.1875;
1441976052093200;0.46905517578125;-0.5443115234375;-0.565185546875;-0.40533447265625;16.627480025382958;13.894337039350816;0.6385035193795734;-0.94921875;0.24951171875;-0.05224609375;-2.375;4.1875;4.0625;
1441976052108201;0.46923828125;-0.54510498046875;-0.5653076171875;-0.4039306640625;16.613000390901664;13.914810851887495;0.6616545004779583;-0.9404296875;0.236328125;-0.0439453125;-2.75;5.0625;4.8125;
1441976052131202;0.46929931640625;-0.5460205078125;-0.5654296875;-0.4024658203125;16.596625707180934;13.93510140188651;0.6841026071092998;-0.93017578125;0.23291015625;-0.0390625;-1.9375;5.8125;5.875;
1441976052153203;0.46942138671875;-0.54693603515625;-0.5655517578125;-0.40087890625;16.579588725401074;13.956567366467173;0.7082626697679879;-0.93603515625;0.23486328125;-0.03955078125;-1.5625;6.5;6.9375;
1441976052168204;0.46954345703125;-0.54791259765625;-0.56573486328125;-0.399169921875;16.56096617048397;13.978097816319192;0.7328403889129123;-0.939453125;0.2373046875;-0.03759765625;-1.9375;7.0625;7.5625;
1441976052199206;0.46954345703125;-0.54888916015625;-0.56591796875;-0.3974609375;16.541635484018045;13.997563626500432;0.7550182930718142;-0.9423828125;0.236328125;-0.03759765625;-2.375;7.5;8.125;
1441976052213207;0.46966552734375;-0.5499267578125;-0.56610107421875;-0.395751953125;16.522470937314406;14.018551498875222;0.7788717650220044;-0.94482421875;0.24365234375;-0.0390625;-1.9375;7.6875;8.4375;
1441976052228208;0.46978759765625;-0.55096435546875;-0.56610107421875;-0.39410400390625;16.50431020088905;14.041238389667198;0.8037367299759841;-0.9482421875;0.24560546875;-0.041015625;-1.75;7.8125;8.375;
1441976052250209;0.46978759765625;-0.5518798828125;-0.5662841796875;-0.392578125;16.486508144467813;14.057314024855806;0.822159487261355;-0.94677734375;0.2431640625;-0.0498046875;-1.625;7.5625;8.0;
1441976052273210;0.46990966796875;-0.552734375;-0.56640625;-0.39111328125;16.470298019770166;14.074344321711878;0.8417058266587713;-0.93896484375;0.24609375;-0.03759765625;-1.625;7.375;7.8125;
1441976052288211;0.47003173828125;-0.55340576171875;-0.56658935546875;-0.3896484375;16.454961566983833;14.088438156317066;0.8590381691383258;-0.9365234375;0.24658203125;-0.04150390625;-1.625;7.1875;7.1875;
1441976052311213;0.47027587890625;-0.55389404296875;-0.56683349609375;-0.3883056640625;16.442046682709673;14.100373674614765;0.8749018628786323;-0.93359375;0.25341796875;-0.0458984375;-2.3125;6.625;6.5;
1441976052333214;0.4705810546875;-0.55413818359375;-0.567138671875;-0.38720703125;16.432590815415818;14.108289442018147;0.8870824226503516;-0.9404296875;0.25244140625;-0.048828125;-3.5;5.6875;5.5625;
1441976052348215;0.47088623046875;-0.5543212890625;-0.56732177734375;-0.38629150390625;16.42529516681255;14.116205903769343;0.8985592423307377;-0.935546875;0.24658203125;-0.044921875;-3.8125;4.9375;4.6875;
1441976052370216;0.4710693359375;-0.554443359375;-0.56744384765625;-0.38568115234375;16.420324115578644;14.121201393244403;0.9058728254180851;-0.93896484375;0.2421875;-0.052734375;-2.9375;3.9375;4.0;
1441976052393217;0.47119140625;-0.5545654296875;-0.5675048828125;-0.38531494140625;16.4171310247619;14.124921804297847;0.9108361611293807;-0.94384765625;0.24169921875;-0.048828125;-1.9375;3.0;3.3125;
1441976052409218;0.47125244140625;-0.55450439453125;-0.567626953125;-0.3851318359375;16.41600607336112;14.124408027165158;0.9115653584063543;-0.9453125;0.2412109375;-0.056640625;-1.3125;1.9375;2.4375;
1441976052431219;0.47125244140625;-0.55450439453125;-0.567626953125;-0.3851318359375;16.41600607336112;14.124408027165158;0.9115653584063543;-0.94287109375;0.24658203125;-0.046875;-1.0625;1.1875;1.5625;
1441976052453221;0.471435546875;-0.55426025390625;-0.56768798828125;-0.38519287109375;16.418684184299668;14.123135276796205;0.9115178689661182;-0.94287109375;0.24560546875;-0.0458984375;-0.875;0.5625;0.6875;
1441976052468221;0.47161865234375;-0.55389404296875;-0.5677490234375;-0.38531494140625;16.422593491146113;14.120429872306167;0.910222836632555;-0.93896484375;0.2470703125;-0.048828125;-1.25;0.125;-0.125;
1441976052490223;0.47186279296875;-0.55340576171875;-0.56787109375;-0.3856201171875;16.42877468676119;14.115396737923037;0.9067494124147008;-0.9423828125;0.244140625;-0.05029296875;-1.4375;-0.3125;-1.0;
1441976052513224;0.47216796875;-0.55291748046875;-0.56787109375;-0.38592529296875;16.435633532329035;14.112777754213765;0.9055225680420487;-0.943359375;0.24560546875;-0.04736328125;-1.5;-0.6875;-1.8125;
1441976052528225;0.4725341796875;-0.55230712890625;-0.56793212890625;-0.38623046875;16.443351446807103;14.108880566841938;0.9037222797626786;-0.94775390625;0.24609375;-0.05126953125;-1.5625;-0.875;-2.5625;
1441976052550226;0.47283935546875;-0.55169677734375;-0.5679931640625;-0.38665771484375;16.45171251665128;14.103512810981748;0.8999132896287564;-0.94287109375;0.248046875;-0.052734375;-1.9375;-1.1875;-3.125;
1441976052573227;0.47320556640625;-0.551025390625;-0.56805419921875;-0.3870849609375;16.460744119514846;14.098256207466882;0.8965675141593167;-0.93994140625;0.2490234375;-0.05419921875;-1.8125;-1.5625;-3.5;
1441976052588228;0.4735107421875;-0.55035400390625;-0.568115234375;-0.3875732421875;16.469945119919622;14.091856103798214;0.8917254689001283;-0.94482421875;0.24658203125;-0.048828125;-1.875;-1.8125;-3.75;
1441976052611230;0.4737548828125;-0.54974365234375;-0.568115234375;-0.38812255859375;16.47913063888094;14.085740879319093;0.8864633492336081;-0.93701171875;0.24365234375;-0.0556640625;-1.875;-2.125;-3.8125;
1441976052633231;0.473876953125;-0.54925537109375;-0.568115234375;-0.388671875;16.486958797175674;14.079239393509562;0.8801102431738523;-0.93603515625;0.23974609375;-0.04931640625;-1.3125;-2.4375;-3.625;
1441976052648232;0.47393798828125;-0.54876708984375;-0.56817626953125;-0.38922119140625;16.494280855403044;14.071046032199183;0.8720652337672761;-0.9345703125;0.2421875;-0.05029296875;-0.4375;-2.5;-3.1875;
1441976052671233;0.47406005859375;-0.5484619140625;-0.568115234375;-0.3896484375;16.500228235650727;14.067813552697867;0.868628865014508;-0.9345703125;0.24658203125;-0.04736328125;-0.0625;-2.5;-3.0625;
1441976052693234;0.47412109375;-0.548095703125;-0.568115234375;-0.39007568359375;16.506050802601216;14.06234117969708;0.8631379841162955;-0.939453125;0.24462890625;-0.0634765625;-0.25;-2.5625;-2.9375;
1441976052708235;0.47418212890625;-0.54779052734375;-0.56805419921875;-0.39056396484375;16.5121575113452;14.057914580001736;0.8581553835577472;-0.94189453125;0.2509765625;-0.056640625;-0.4375;-2.5625;-2.8125;
1441976052730236;0.4742431640625;-0.5474853515625;-0.5679931640625;-0.3909912109375;16.517796683179704;14.053849620273684;0.8537198105532895;-0.94921875;0.25;-0.05810546875;0.1875;-2.4375;-2.875;
1441976052753238;0.474365234375;-0.54718017578125;-0.56787109375;-0.391357421875;16.523474732435204;14.051804710580697;0.8514896104101565;-0.9521484375;0.25146484375;-0.05810546875;0.125;-2.375;-2.9375;
1441976052768239;0.4744873046875;-0.546875;-0.5677490234375;-0.3917236328125;16.529152362294813;14.04974323315617;0.8492428533267791;-0.94873046875;0.24755859375;-0.05859375;-0.125;-2.125;-2.8125;
1441976052790240;0.47467041015625;-0.54669189453125;-0.56768798828125;-0.3919677734375;16.533242111148354;14.049496602872072;0.8491446368526684;-0.9404296875;0.23876953125;-0.056640625;-0.1875;-1.625;-2.625;
1441976052813241;0.474853515625;-0.54644775390625;-0.567626953125;-0.39208984375;16.536784679984027;14.049471449094073;0.8498236620582365;-0.939453125;0.2421875;-0.05615234375;-0.1875;-1.0625;-2.1875;
1441976052828242;0.47515869140625;-0.5462646484375;-0.56756591796875;-0.39215087890625;16.540084615238968;14.05195159822541;0.8533415252286529;-0.94482421875;0.24169921875;-0.05615234375;-0.875;-0.625;-1.75;
1441976052850243;0.47515869140625;-0.5462646484375;-0.56756591796875;-0.39215087890625;16.540084615238968;14.05195159822541;0.8533415252286529;-0.94482421875;0.23388671875;-0.05517578125;-1.0;-0.125;-1.1875;
1441976052873245;0.47515869140625;-0.5462646484375;-0.5675048828125;-0.39215087890625;16.540290108140926;14.05286966142822;0.8540928217563116;-0.94384765625;0.23583984375;-0.0458984375;-0.6875;0.375;-0.5625;
1441976052889246;0.4752197265625;-0.5465087890625;-0.5672607421875;-0.39208984375;16.539428968975887;14.06006916354687;0.8602361013871349;-0.93603515625;0.232421875;-0.0517578125;0.75;0.8125;0.0625;
1441976052911247;0.4752197265625;-0.54681396484375;-0.56707763671875;-0.39190673828125;16.53675175241433;14.066983380105285;0.8662793211949985;-0.9345703125;0.236328125;-0.05419921875;1.125;1.125;0.4375;
1441976052933248;0.475341796875;-0.54705810546875;-0.56695556640625;-0.39166259765625;16.53437249914783;14.074273491374015;0.8735694324637269;-0.935546875;0.2392578125;-0.0595703125;0.75;1.25;0.75;
1441976052949249;0.47552490234375;-0.5472412109375;-0.5667724609375;-0.3914794921875;16.533326333534937;14.082231339137248;0.8815272802269631;-0.93505859375;0.23681640625;-0.0546875;0.125;1.375;0.75;
1441976052970250;0.4755859375;-0.5474853515625;-0.5665283203125;-0.391357421875;16.531965944761417;14.08977683271017;0.8882017095296993;-0.939453125;0.232421875;-0.0625;0.0625;1.3125;0.8125;
1441976052993252;0.47564697265625;-0.5478515625;-0.56610107421875;-0.39141845703125;16.53182892617258;14.100049959382549;0.896176962956108;-0.94580078125;0.22998046875;-0.0595703125;0.8125;1.125;0.8125;
1441976053009252;0.47552490234375;-0.54827880859375;-0.565673828125;-0.39154052734375;16.53088826634259;14.108240635490096;0.9011985202040701;-0.94384765625;0.23291015625;-0.06494140625;2.1875;1.0;0.625;
1441976053031254;0.4754638671875;-0.54876708984375;-0.565185546875;-0.3916015625;16.529575326081527;14.119060047628327;0.908848634062971;-0.94140625;0.2333984375;-0.05908203125;3.1875;1.0625;0.5;
1441976053053255;0.4754638671875;-0.54913330078125;-0.5648193359375;-0.3917236328125;16.52938407536329;14.127250819139357;0.9145565988753077;-0.94140625;0.23876953125;-0.060546875;3.3125;1.25;0.125;
1441976053069256;0.4757080078125;-0.54931640625;-0.564453125;-0.3917236328125;16.53055067300869;14.137534774954815;0.9239513690676423;-0.9404296875;0.24267578125;-0.05615234375;2.625;1.375;-0.4375;
1441976053090257;0.47607421875;-0.54931640625;-0.56414794921875;-0.3917236328125;16.533237255167823;14.146734304694057;0.9333181556550443;-0.94189453125;0.24169921875;-0.0615234375;1.125;1.625;-1.0625;
1441976053113258;0.47650146484375;-0.54913330078125;-0.56390380859375;-0.3917236328125;16.53716190996105;14.154109963791205;0.9417501967448912;-0.943359375;0.2373046875;-0.05908203125;-0.1875;1.6875;-1.5;
1441976053129259;0.47698974609375;-0.54901123046875;-0.56365966796875;-0.3917236328125;16.540971763752772;14.162860116204598;0.9515389554721768;-0.9443359375;0.22998046875;-0.05712890625;-0.75;1.6875;-1.875;
1441976053153261;0.47735595703125;-0.5489501953125;-0.5633544921875;-0.391845703125;16.544947762076305;14.17086113688554;0.959522222228393;-0.9423828125;0.2294921875;-0.05712890625;-0.625;1.75;-2.0;
1441976053173262;0.47772216796875;-0.5489501953125;-0.56292724609375;-0.3919677734375;16.548898885266915;14.181352662837515;0.9694767742082746;-0.94677734375;0.2314453125;-0.05322265625;0.0625;1.875;-1.9375;
1441976053189263;0.47802734375;-0.548828125;-0.56268310546875;-0.39208984375;16.55277305405402;14.18716021679367;0.9754514965086462;-0.9482421875;0.23291015625;-0.05908203125;0.6875;1.6875;-2.125;
1441976053210264;0.47833251953125;-0.5487060546875;-0.56243896484375;-0.39227294921875;16.55711502157308;14.192625721932203;0.9808992736613014;-0.9501953125;0.23291015625;-0.05517578125;0.1875;1.375;-2.125;
1441976053233265;0.47857666015625;-0.54864501953125;-0.5621337890625;-0.3924560546875;16.560968719075802;14.19884918804267;0.9865858402290136;-0.947265625;0.22998046875;-0.05126953125;0.1875;1.25;-2.0;
1441976053249266;0.4786376953125;-0.54864501953125;-0.5618896484375;-0.3927001953125;16.563884352776967;14.20196411021511;0.9884598498396682;-0.94677734375;0.228515625;-0.05517578125;0.875;0.9375;-1.6875;
1441976053270267;0.47869873046875;-0.54864501953125;-0.5616455078125;-0.3929443359375;16.56679904178592;14.205089162497943;0.9903440390926119;-0.94384765625;0.2314453125;-0.0517578125;1.25;0.6875;-1.5625;
1441976053293269;0.478759765625;-0.548583984375;-0.56146240234375;-0.39324951171875;16.570394364020004;14.206330637442411;0.9905119715166594;-0.9443359375;0.2333984375;-0.052734375;1.25;0.4375;-1.5;
1441976053310270;0.47882080078125;-0.548583984375;-0.561279296875;-0.39349365234375;16.573123073676637;14.208510796525962;0.9916187003392029;-0.9423828125;0.22900390625;-0.05078125;1.125;0.25;-1.5;
1441976053330271;0.47882080078125;-0.54852294921875;-0.56109619140625;-0.393798828125;16.57644226181395;14.208963651825124;0.9908309151340587;-0.93896484375;0.23095703125;-0.05712890625;1.1875;-0.125;-1.4375;
1441976053353272;0.4788818359375;-0.5484619140625;-0.5609130859375;-0.39410400390625;16.580037277726554;14.21021518203162;0.9910092139504703;-0.9404296875;0.22998046875;-0.052734375;1.3125;-0.3125;-1.5;
1441976053369273;0.47894287109375;-0.54833984375;-0.56072998046875;-0.3944091796875;16.584024619452645;14.21090743304708;0.9908129273041169;-0.9365234375;0.228515625;-0.05712890625;0.9375;-0.4375;-1.75;
1441976053390274;0.47900390625;-0.54827880859375;-0.56048583984375;-0.39483642578125;16.588753297776336;14.212378246562988;0.9906742118391898;-0.9404296875;0.22998046875;-0.06396484375;1.0;-0.6875;-1.9375;
1441976053413276;0.47906494140625;-0.5482177734375;-0.5601806640625;-0.39520263671875;16.593192605331023;14.21520996274133;0.9919136611476191;-0.94580078125;0.22705078125;-0.06201171875;1.4375;-0.8125;-2.1875;
1441976053429276;0.47918701171875;-0.548095703125;-0.55987548828125;-0.39569091796875;16.599247949314673;14.217536447482972;0.9926310235855033;-0.94970703125;0.232421875;-0.06640625;1.4375;-0.9375;-2.5;
1441976053450278;0.4793701171875;-0.54791259765625;-0.5595703125;-0.396240234375;16.606444603113754;14.219740339521255;0.9933935844008192;-0.94970703125;0.228515625;-0.0673828125;1.125;-1.0625;-2.875;
1441976053473279;0.47943115234375;-0.5478515625;-0.55908203125;-0.3968505859375;16.61333515312876;14.22403862880887;0.9948600968313973;-0.94580078125;0.22216796875;-0.06201171875;1.625;-1.125;-3.1875;
1441976053489280;0.4794921875;-0.5478515625;-0.5584716796875;-0.3975830078125;16.62114886736961;14.230153010456645;0.997255021759528;-0.93896484375;0.2177734375;-0.064453125;2.75;-0.9375;-3.125;
1441976053510281;0.4796142578125;-0.5479736328125;-0.557861328125;-0.398193359375;16.627491271627264;14.239068363782442;1.002619209341927;-0.9365234375;0.2138671875;-0.06201171875;3.6875;-0.5625;-3.25;
1441976053533282;0.479736328125;-0.54803466796875;-0.5572509765625;-0.39874267578125;16.63374599728241;14.247864999063884;1.008233168551022;-0.93896484375;0.22021484375;-0.06640625;3.75;-0.25;-3.3125;
1441976053549283;0.48004150390625;-0.548095703125;-0.556640625;-0.39923095703125;16.64032129508417;14.259647300391117;1.0175208473760171;-0.9326171875;0.22314453125;-0.0595703125;3.0625;0.3125;-3.75;
1441976053570285;0.48052978515625;-0.5482177734375;-0.55584716796875;-0.3995361328125;16.64638313566892;14.278860478276815;1.0346074115643151;-0.927734375;0.21630859375;-0.0634765625;2.625;1.0625;-4.0625;
1441976053593286;0.48114013671875;-0.5484619140625;-0.554931640625;-0.3997802734375;16.651985996534666;14.303508889994932;1.056945719630846;-0.9150390625;0.220703125;-0.06884765625;2.5625;2.3125;-4.5;
1441976053609287;0.48175048828125;-0.54901123046875;-0.55377197265625;-0.39984130859375;16.654726234759387;14.33635893003666;1.0864460722808391;-0.908203125;0.216796875;-0.0615234375;2.625;4.0625;-4.5;
1441976053630288;0.48248291015625;-0.55023193359375;-0.55224609375;-0.39935302734375;16.649971307536745;14.386410755722586;1.1321079467940596;-0.90625;0.2158203125;-0.05126953125;4.625;7.25;-4.0;
1441976053653289;0.48370361328125;-0.55145263671875;-0.55084228515625;-0.398193359375;16.641085076303725;14.444650548516284;1.1896591451499614;-0.89697265625;0.24609375;-0.06591796875;5.6875;10.5625;-3.8125;
1441976053669290;0.4857177734375;-0.55230712890625;-0.549560546875;-0.396240234375;16.63042982653681;14.512426319892425;1.2627585650708584;-0.87890625;0.26904296875;-0.07666015625;2.625;13.5625;-4.5625;
1441976053690291;0.488525390625;-0.55255126953125;-0.548583984375;-0.3939208984375;16.622346865092524;14.582336924629706;1.343960637424411;-0.87451171875;0.2802734375;-0.10986328125;-3.5;15.6875;-6.375;
1441976053713293;0.491943359375;-0.55230712890625;-0.547607421875;-0.39129638671875;16.616255008920398;14.657950751662142;1.4349382811373044;-0.85693359375;0.27197265625;-0.1103515625;-9.0;17.3125;-8.375;
1441976053735294;0.4957275390625;-0.5518798828125;-0.5465087890625;-0.38861083984375;16.61115054582004;14.739261422968097;1.5330227231668112;-0.845703125;0.24658203125;-0.11279296875;-13.1875;18.9375;-9.375;
1441976053751295;0.49951171875;-0.55194091796875;-0.54498291015625;-0.3858642578125;16.601341603027997;14.830356734832048;1.6384313875887935;-0.822265625;0.21435546875;-0.10595703125;-13.875;21.0625;-9.25;
1441976053773296;0.5032958984375;-0.5528564453125;-0.542724609375;-0.3828125;16.582025993692476;14.937903021693435;1.7566288247964421;-0.80419921875;0.19091796875;-0.1064453125;-11.25;23.875;-7.4375;
1441976053797298;0.50701904296875;-0.554443359375;-0.540283203125;-0.3790283203125;16.549469811035532;15.048669482135551;1.877573523680724;-0.7919921875;0.18701171875;-0.12255859375;-7.6875;27.875;-5.75;
1441976053812298;0.51116943359375;-0.5557861328125;-0.538330078125;-0.374267578125;16.508652986201813;15.151846667793137;1.9971494623150718;-0.8330078125;0.25048828125;-0.17138671875;-6.6875;30.0625;-5.25;
1441976053833300;0.51629638671875;-0.55548095703125;-0.53741455078125;-0.368896484375;16.473990503678728;15.240086536084188;2.114171489241934;-0.91748046875;0.32958984375;-0.2470703125;-13.0;28.875;-7.625;
1441976053855301;0.522216796875;-0.5533447265625;-0.53753662109375;-0.3636474609375;16.45328170577895;15.312605144880388;2.2256800131505434;-0.9990234375;0.349609375;-0.310546875;-25.8125;24.375;-10.9375;
1441976053872302;0.52838134765625;-0.5499267578125;-0.53790283203125;-0.35931396484375;16.4488759802264;15.379759796569806;2.334274191069443;-1.02978515625;0.3232421875;-0.34130859375;-36.75;18.25;-15.3125;
1441976053893303;0.5340576171875;-0.54644775390625;-0.5377197265625;-0.3564453125;16.45549543773589;15.450373702340135;2.439208013937654;-1.02490234375;0.265625;-0.33154296875;-39.4375;13.5;-18.0;
1441976053916304;0.538818359375;-0.54376220703125;-0.53668212890625;-0.35498046875;16.465683870888657;15.526608167390275;2.5382242508143964;-0.98681640625;0.1982421875;-0.30126953125;-32.6875;11.25;-19.0;
1441976053932305;0.54254150390625;-0.542236328125;-0.53485107421875;-0.35443115234375;16.47249307592004;15.605702457859392;2.6287868869230846;-0.93310546875;0.15380859375;-0.2451171875;-20.8125;11.25;-18.125;
1441976053953306;0.5458984375;-0.54150390625;-0.53253173828125;-0.35394287109375;16.471916448288667;15.689000734063862;2.7186334203955775;-0.88916015625;0.1396484375;-0.212890625;-9.4375;12.8125;-15.6875;
1441976053975308;0.5491943359375;-0.54083251953125;-0.53033447265625;-0.3531494140625;16.46706939102715;15.76835897321326;2.8054674503144725;-0.8671875;0.14013671875;-0.19775390625;-4.4375;14.9375;-13.75;
1441976053992309;0.552490234375;-0.54034423828125;-0.5283203125;-0.35174560546875;16.454686300336515;15.841943289398817;2.888352008632403;-0.87353515625;0.119140625;-0.2001953125;-5.125;16.0625;-11.0625;
1441976054013310;0.55615234375;-0.5396728515625;-0.52642822265625;-0.34979248046875;16.43788355407542;15.91520088735041;2.97449423295434;-0.86328125;0.12060546875;-0.20654296875;-7.5;17.4375;-8.875;
1441976054035311;0.55999755859375;-0.5391845703125;-0.5245361328125;-0.34735107421875;16.41429730101434;15.986847959895483;3.0604718332959076;-0.82861328125;0.09033203125;-0.2021484375;-10.9375;19.75;-6.8125;
1441976054052312;0.56390380859375;-0.538818359375;-0.52227783203125;-0.34490966796875;16.387718373900963;16.06239164655121;3.149177664899404;-0.80517578125;0.0732421875;-0.20556640625;-12.5625;22.125;-5.1875;
1441976054081314;0.56756591796875;-0.538818359375;-0.51971435546875;-0.3427734375;16.359285787472963;16.137637428074214;3.2340441800988318;-0.775390625;0.04931640625;-0.2099609375;-11.5;23.4375;-4.3125;
1441976054095315;0.57110595703125;-0.5391845703125;-0.51666259765625;-0.34088134765625;16.32781218331541;16.216343578669854;3.3188629997295696;-0.75146484375;0.0322265625;-0.201171875;-8.3125;24.125;-3.3125;
1441976054112316;0.574462890625;-0.5404052734375;-0.5128173828125;-0.3392333984375;16.288858602967558;16.30052614131832;3.4031481147282965;-0.72802734375;0.02392578125;-0.20263671875;-4.375;25.4375;-3.125;
1441976054133317;0.57757568359375;-0.54217529296875;-0.5084228515625;-0.3377685546875;16.24476459123274;16.38538705907296;3.4837318829341686;-0.69873046875;0.02978515625;-0.21728515625;1.3125;27.5;-2.9375;
1441976054155318;0.58050537109375;-0.54388427734375;-0.50384521484375;-0.33673095703125;16.2029015429012;16.469412065906827;3.5613619696691585;-0.72607421875;0.06591796875;-0.240234375;6.4375;28.375;-4.1875;
1441976054172319;0.5831298828125;-0.54498291015625;-0.49957275390625;-0.3367919921875;16.174598781758103;16.55140279785343;3.6353960719440592;-0.75390625;0.0947265625;-0.26806640625;8.875;26.125;-7.5625;
1441976054193320;0.5853271484375;-0.54571533203125;-0.49530029296875;-0.3380126953125;16.157789607118378;16.635495065940788;3.707893947398124;-0.755859375;0.0908203125;-0.259765625;10.625;21.0625;-10.8125;
1441976054215321;0.58697509765625;-0.5472412109375;-0.49041748046875;-0.33984375;16.138120799958433;16.721597497128897;3.7749204194686823;-0.7080078125;0.04248046875;-0.22021484375;13.9375;17.25;-11.8125;
1441976054232322;0.58807373046875;-0.55010986328125;-0.48455810546875;-0.341796875;16.106621206465373;16.80839038817413;3.8339958732282224;-0.6533203125;0.02197265625;-0.2021484375;21.125;18.1875;-10.1875;
1441976054253324;0.58892822265625;-0.55322265625;-0.478759765625;-0.3433837890625;16.070528058338184;16.88612362644213;3.8838889766144855;-0.6533203125;0.06201171875;-0.212890625;30.0625;21.5625;-8.75;
1441976054275325;0.5902099609375;-0.55487060546875;-0.474365234375;-0.3447265625;16.046279674769167;16.953256433138755;3.9333777019688068;-0.7197265625;0.138671875;-0.25244140625;31.3125;21.6875;-11.0;
1441976054292326;0.59149169921875;-0.55511474609375;-0.47100830078125;-0.3466796875;16.0397275463676;17.017620129852475;3.9853345847772887;-0.79248046875;0.154296875;-0.27001953125;21.5;16.75;-14.1875;
1441976054322328;0.5921630859375;-0.55523681640625;-0.4674072265625;-0.35015869140625;16.045523772290643;17.091360156239183;4.039994170779787;-0.85107421875;0.13623046875;-0.25634765625;16.5625;11.3125;-17.6875;
1441976054335328;0.591796875;-0.55615234375;-0.463134765625;-0.35504150390625;16.056247205096497;17.171404090459383;4.089533234774052;-0.87548828125;0.0966796875;-0.22412109375;22.6875;7.9375;-18.125;
1441976054353329;0.590576171875;-0.5574951171875;-0.45831298828125;-0.361083984375;16.072236122144176;17.258350493507393;4.137280500317421;-0.88818359375;0.07275390625;-0.23095703125;33.5625;4.25;-16.3125;
1441976054373330;0.58831787109375;-0.56011962890625;-0.452392578125;-0.36810302734375;16.084852178203928;17.351209941774922;4.178192978677165;-0.90283203125;0.04541015625;-0.21875;41.4375;2.4375;-15.0625;
1441976054395332;0.58526611328125;-0.56329345703125;-0.44586181640625;-0.37603759765625;16.099734394200308;17.449944281977217;4.216672670501405;-0.95361328125;0.05908203125;-0.2421875;54.375;2.3125;-13.5;
1441976054412333;0.58135986328125;-0.5670166015625;-0.43890380859375;-0.3846435546875;16.11646632049962;17.55008710045739;4.2493395845834065;-0.982421875;0.0322265625;-0.24267578125;61.75;1.25;-11.75;
1441976054433334;0.57635498046875;-0.57196044921875;-0.43121337890625;-0.3934326171875;16.12740195234488;17.644310551491476;4.266771045614274;-0.96142578125;-0.0126953125;-0.21826171875;68.25;0.625;-7.6875;
1441976054455335;0.57073974609375;-0.5780029296875;-0.4232177734375;-0.4013671875;16.126945277120225;17.72221454898262;4.2645684566165984;-0.884765625;-0.0087890625;-0.19189453125;76.9375;2.125;-3.25;
1441976054472336;0.5655517578125;-0.5843505859375;-0.41558837890625;-0.407470703125;16.112520179882313;17.780116534662813;4.249098240899967;-0.8212890625;0.037109375;-0.17919921875;80.5;7.0;0.1875;
1441976054493337;0.56121826171875;-0.5897216796875;-0.408935546875;-0.41241455078125;16.09747447816905;17.829355779168544;4.236453763581459;-0.78955078125;0.05908203125;-0.20068359375;73.5;11.125;3.1875;
1441976054515339;0.55712890625;-0.59490966796875;-0.40252685546875;-0.4168701171875;16.080528880139354;17.874209993156672;4.222757365369596;-0.81396484375;0.029296875;-0.212890625;61.875;11.625;3.625;
1441976054532340;0.55230712890625;-0.60028076171875;-0.39599609375;-0.4217529296875;16.068225369623903;17.917348498079846;4.203046339271967;-0.82861328125;0.0;-0.2353515625;57.4375;11.625;5.5;
1441976054553341;0.54705810546875;-0.60601806640625;-0.38836669921875;-0.4273681640625;16.054466162761663;17.973129499847758;4.188279855744628;-0.83056640625;-0.01513671875;-0.25537109375;61.0625;8.3125;8.1875;
1441976054575342;0.5411376953125;-0.6126708984375;-0.3800048828125;-0.4329833984375;16.034805262945714;0.025310155794171306;4.163072016977292;-0.84423828125;-0.05126953125;-0.2646484375;68.5625;8.9375;8.75;
1441976054592343;0.534912109375;-0.61920166015625;-0.37286376953125;-0.4376220703125;16.018195729958713;0.05427184900487347;4.12041831697776;-0.85791015625;-0.025390625;-0.3095703125;75.375;9.625;10.0;
1441976054613344;0.52935791015625;-0.62408447265625;-0.3675537109375;-0.44195556640625;16.01619630333279;0.07712498739871453;4.084679251860197;-0.85986328125;0.0615234375;-0.3525390625;70.5625;5.625;9.5;
1441976054635345;0.5235595703125;-0.6278076171875;-0.36260986328125;-0.44757080078125;16.03243182643899;0.11370948983374826;4.0627445824432;-0.88671875;0.04638671875;-0.33544921875;57.9375;0.3125;8.375;
1441976054652346;0.5162353515625;-0.6317138671875;-0.35650634765625;-0.45538330078125;16.062992129741613;0.17068547045528457;4.046499545919422;-0.93505859375;-0.01953125;-0.3251953125;57.0;-7.375;8.25;
1441976054673348;0.50677490234375;-0.63671875;-0.3494873046875;-0.46441650390625;16.101003378461566;0.22611978269155156;4.01304644774826;-0.96923828125;-0.06298828125;-0.31884765625;71.1875;-13.5625;8.8125;
1441976054695349;0.49713134765625;-0.6419677734375;-0.3431396484375;-0.47235107421875;16.135599566199204;0.2608479080583227;3.9627217425084416;-0.9921875;-0.0166015625;-0.31201171875;87.25;-16.375;11.4375;
1441976054712350;0.48870849609375;-0.646240234375;-0.33868408203125;-0.47845458984375;16.168534190083587;0.27304306004394674;3.9070847280371295;-0.99365234375;0.0673828125;-0.3095703125;84.4375;-14.0;11.125;
1441976054733351;0.48211669921875;-0.64898681640625;-0.33526611328125;-0.4837646484375;16.20153149565401;0.2908524723890048;3.8722387028837857;-1.00634765625;0.09619140625;-0.2890625;67.875;-11.8125;10.5625;
1441976054755352;0.4754638671875;-0.65179443359375;-0.3314208984375;-0.48919677734375;16.232918580031463;0.31350702203280073;3.8402209730306414;-1.046875;0.02587890625;-0.2666015625;52.0;-10.75;8.5;
1441976054772353;0.46832275390625;-0.65509033203125;-0.327392578125;-0.494384765625;16.261444380043528;0.32782028300584404;3.7970825083931423;-1.09228515625;-0.0048828125;-0.28125;53.625;-10.1875;9.125;
1441976054794355;0.461669921875;-0.658447265625;-0.32415771484375;-0.498291015625;16.28319720462533;0.3229834053789625;3.74199767323776;-1.09619140625;0.00341796875;-0.30322265625;56.0;-10.1875;11.4375;
1441976054815356;0.4556884765625;-0.661865234375;-0.3218994140625;-0.50067138671875;16.29633243309419;0.2957421099531031;3.6734866684623593;-1.07958984375;0.0146484375;-0.30712890625;49.125;-7.125;13.9375;
1441976054832357;0.45098876953125;-0.6650390625;-0.32049560546875;-0.501708984375;16.299888494552448;0.25747561315585626;3.604847812999857;-1.06640625;0.0322265625;-0.30908203125;39.5625;-3.3125;16.25;
1441976054854358;0.44659423828125;-0.6678466796875;-0.319580078125;-0.50244140625;16.304035207626008;0.21541127731785364;3.5366426061399734;-1.07763671875;0.01904296875;-0.32275390625;28.0625;0.5;16.875;
1441976054875359;0.44189453125;-0.6710205078125;-0.31817626953125;-0.50323486328125;16.304668629709052;0.1744705140722316;3.4658837906725424;-1.12060546875;0.009765625;-0.3115234375;23.8125;1.6875;17.5625;
1441976054892360;0.4371337890625;-0.67437744140625;-0.31689453125;-0.5037841796875;16.302739642085346;0.12789600998018558;3.3898371628785284;-1.1875;0.015625;-0.36181640625;27.6875;0.875;17.875;
1441976054914361;0.4337158203125;-0.6763916015625;-0.31683349609375;-0.5040283203125;16.30641073531474;0.08461519416973655;3.3295677528700525;-1.23876953125;0.0673828125;-0.44921875;27.8125;-2.5625;16.1875;
1441976054937363;0.43109130859375;-0.6776123046875;-0.317138671875;-0.50445556640625;16.31434399356005;0.05076712713032184;3.284082480881973;-1.29638671875;0.0322265625;-0.46142578125;15.4375;-5.75;14.8125;
1441976054952364;0.42803955078125;-0.67987060546875;-0.31549072265625;-0.5050048828125;16.308845911236826;0.032877613841373186;3.2437772550862505;-1.294921875;-0.0625;-0.42333984375;8.375;-5.875;17.0;
1441976054974365;0.42510986328125;-0.68292236328125;-0.31341552734375;-0.50469970703125;16.2894226355063;0.01001869295778583;3.197569243427368;-1.26513671875;-0.08544921875;-0.45263671875;19.0625;-1.8125;17.0;
1441976054995366;0.42120361328125;-0.687255859375;-0.3114013671875;-0.50335693359375;16.25784832237106;17.96179178957578;3.122263413954414;-1.28369140625;-0.06005859375;-0.4873046875;20.375;3.5625;17.5;
1441976055012367;0.417724609375;-0.6907958984375;-0.30938720703125;-0.502685546875;16.234169880258722;17.92937140889118;3.0644989814318757;-1.32470703125;0.041015625;-0.50390625;24.25;9.625;19.75;
1441976055034368;0.41326904296875;-0.69482421875;-0.307373046875;-0.50201416015625;16.210358421510332;17.886180864262997;2.991485767234671;-1.32666015625;0.0625;-0.509765625;23.75;5.625;13.9375;
1441976055055369;0.409423828125;-0.697021484375;-0.30548095703125;-0.5032958984375;16.211423429036476;17.87188841407117;2.949676241271999;-1.37060546875;0.17724609375;-0.56884765625;29.75;2.8125;12.0;
1441976055072370;0.40802001953125;-0.69683837890625;-0.30584716796875;-0.50439453125;16.227468214809274;17.86213707692134;2.934348667133384;-1.513671875;0.1533203125;-0.572265625;28.3125;-7.0;3.4375;
1441976055094372;0.40911865234375;-0.69622802734375;-0.30609130859375;-0.5042724609375;16.22776657041376;17.871938934292288;2.9504176277084806;-1.45703125;0.13818359375;-0.525390625;7.375;-12.375;-3.3125;
1441976055115373;0.41131591796875;-0.6968994140625;-0.304443359375;-0.5025634765625;16.195564020499596;17.899105101564167;2.9816979520740277;-1.45263671875;0.04833984375;-0.49365234375;-5.375;-1.9375;-7.0;
1441976055132374;0.41070556640625;-0.7042236328125;-0.29962158203125;-0.49566650390625;16.0763745816251;17.87079451857486;2.933320166263551;-1.4462890625;-0.1650390625;-0.38525390625;-6.375;22.3125;3.25;
1441976055154375;0.423828125;-0.69573974609375;-0.298583984375;-0.49725341796875;16.089536685875256;0.05274725758390907;3.1724301813923277;-0.87109375;0.18310546875;-0.4755859375;21.375;47.4375;6.375;
1441976055175376;0.43310546875;-0.68951416015625;-0.309326171875;-0.4913330078125;16.098062468274428;17.991460437279617;3.207332802248537;-1.41748046875;-0.35498046875;-0.228515625;-52.1875;12.5;-55.5;
1441976055192377;0.43975830078125;-0.69085693359375;-0.30352783203125;-0.48712158203125;16.004121508678598;0.07589638045363314;3.3010252420252133;-1.615234375;0.23291015625;-0.46728515625;-88.6875;1.1875;-27.0625;
1441976055214379;0.4320068359375;-0.68536376953125;-0.30963134765625;-0.49786376953125;16.178177739958503;0.05260356795166162;3.26052142754376;-1.13134765625;-0.5732421875;-0.55712890625;-17.0625;37.125;5.625;
1441976055235380;0.42364501953125;-0.6778564453125;-0.306396484375;-0.5169677734375;16.381599592025296;0.23289204662043178;3.375398708505982;-1.97412109375;0.015625;0.4970703125;14.875;-8.75;13.375;
1441976055252381;0.41912841796875;-0.67919921875;-0.30511474609375;-0.51953125;16.40509777322516;0.2195030518663797;3.3334359152507256;-1.1787109375;0.12353515625;0.107421875;73.1875;-72.8125;-38.75;
1441976055274382;0.421875;-0.67559814453125;-0.31097412109375;-0.51861572265625;16.437825053991936;0.18517016558602423;3.3387750584984306;-1.1220703125;0.41552734375;-0.34326171875;35.3125;-12.1875;-17.5;
1441976055295383;0.4295654296875;-0.66845703125;-0.31768798828125;-0.5174560546875;16.472747172203675;0.215979333795877;3.437515390758846;-1.4404296875;0.16845703125;-0.224609375;-35.75;-4.1875;-13.5625;
1441976055312384;0.43487548828125;-0.66314697265625;-0.323974609375;-0.5159912109375;16.50273212248426;0.2119449611026326;3.488329657335962;-1.380859375;-0.16015625;-0.23876953125;-67.25;-9.8125;-16.125;
1441976055334385;0.439208984375;-0.658447265625;-0.33135986328125;-0.51361083984375;16.532823781800186;0.1674736489001005;3.499763035320883;-1.208984375;-0.02783203125;-0.236328125;-53.0625;-10.0;-12.0;
1441976055355387;0.44403076171875;-0.65277099609375;-0.34033203125;-0.51080322265625;16.57177758240353;0.10810046859720691;3.5064826801331277;-1.14697265625;0.05908203125;-0.2626953125;-54.1875;-12.875;-7.3125;
1441976055378388;0.45068359375;-0.64544677734375;-0.3507080078125;-0.50738525390625;16.615540954924636;0.05523069548556307;3.535741612432201;-1.07763671875;0.11328125;-0.23095703125;-63.875;-16.75;-9.5625;
1441976055394389;0.45770263671875;-0.6378173828125;-0.36187744140625;-0.5028076171875;16.65545923769576;17.9833595785399;3.553220009457764;-1.04541015625;0.0693359375;-0.1923828125;-80.0625;-17.75;-11.5;
1441976055415390;0.4644775390625;-0.63043212890625;-0.3731689453125;-0.49761962890625;16.691246504326312;17.89562042386185;3.5552318749049854;-1.0341796875;0.0341796875;-0.177734375;-88.125;-15.375;-6.5;
1441976055432391;0.4705810546875;-0.622802734375;-0.3839111328125;-0.4932861328125;16.734710506347355;17.817575393056266;3.561389338568147;-1.01611328125;0.00634765625;-0.19677734375;-89.9375;-15.3125;-0.75;
1441976055460393;0.47430419921875;-0.6165771484375;-0.39276123046875;-0.4906005859375;16.781807183712168;17.74244230499049;3.5490026972395174;-0.99609375;-0.0712890625;-0.20068359375;-85.4375;-19.875;3.5;
1441976055475393;0.47540283203125;-0.61224365234375;-0.40057373046875;-0.48858642578125;16.826818092480558;17.63343966434854;3.484513092349742;-0.953125;-0.12060546875;-0.2099609375;-65.0625;-23.8125;10.5;
1441976055498395;0.47601318359375;-0.6087646484375;-0.40826416015625;-0.48602294921875;16.862174947114866;17.49843819183816;3.39127433743921;-0.88671875;-0.04931640625;-0.23583984375;-47.125;-27.625;15.625;
1441976055514396;0.47802734375;-0.60498046875;-0.41717529296875;-0.4810791015625;16.87970552075403;17.332977941059315;3.282739887347827;-0.857421875;0.0029296875;-0.2568359375;-44.25;-26.3125;17.6875;
1441976055535397;0.48248291015625;-0.5997314453125;-0.42828369140625;-0.4735107421875;16.885252246766452;17.146017803400337;3.177852620437179;-0.8076171875;0.06298828125;-0.28369140625;-59.0625;-21.5625;17.25;
1441976055558398;0.48828125;-0.5914306640625;-0.4412841796875;-0.4659423828125;16.912609581917916;16.960601330920696;3.092559613852906;-0.75244140625;0.0947265625;-0.29052734375;-83.9375;-18.4375;15.3125;
1441976055574399;0.49322509765625;-0.58428955078125;-0.45159912109375;-0.45989990234375;16.93568302402265;16.818117258187154;3.032122268372023;-0.76318359375;-0.0302734375;-0.25048828125;-102.1875;-20.25;12.6875;
1441976055597400;0.494873046875;-0.57989501953125;-0.45916748046875;-0.4560546875;16.95421345055271;16.672014696784416;2.936314913138417;-0.7275390625;-0.1259765625;-0.2236328125;-85.9375;-21.4375;18.375;
1441976055618402;0.4942626953125;-0.5775146484375;-0.46478271484375;-0.4541015625;16.970509874839834;16.526122915370628;2.8173400658407326;-0.63916015625;-0.08935546875;-0.22265625;-54.0625;-23.875;21.6875;
1441976055634403;0.4925537109375;-0.57647705078125;-0.46917724609375;-0.45281982421875;16.978982419045504;16.382430165101464;2.6880704045418238;-0.6123046875;-0.03662109375;-0.22802734375;-30.5625;-26.1875;21.4375;
1441976055655404;0.4906005859375;-0.5751953125;-0.47393798828125;-0.45147705078125;16.987154059067894;16.222891019328504;2.5441631388158497;-0.59228515625;0.01806640625;-0.25244140625;-17.9375;-26.75;20.0625;
1441976055678405;0.48931884765625;-0.572998046875;-0.47930908203125;-0.4500732421875;16.99942272647738;16.061056052382682;2.4044762791193124;-0.5927734375;0.0751953125;-0.25;-19.0;-28.75;17.875;
1441976055694406;0.48736572265625;-0.57098388671875;-0.48394775390625;-0.44976806640625;17.016230346552817;15.901841023183083;2.259675275409809;-0.63134765625;0.0625;-0.228515625;-25.5;-29.4375;16.5625;
1441976055717407;0.48455810546875;-0.5694580078125;-0.48760986328125;-0.4508056640625;17.037160492807367;15.745473680084096;2.107193114429976;-0.650390625;0.041015625;-0.20458984375;-17.8125;-30.9375;15.75;
1441976055738409;0.48077392578125;-0.5684814453125;-0.49053955078125;-0.45294189453125;17.059453926603037;15.580460203292231;1.9364131458703784;-0.66796875;0.06201171875;-0.1884765625;-7.1875;-32.9375;12.6875;
1441976055754409;0.47607421875;-0.56817626953125;-0.49267578125;-0.4559326171875;17.07965782189154;15.408888506483391;1.7497696086944514;-0.68505859375;0.05908203125;-0.1748046875;2.4375;-34.9375;12.8125;
1441976055777411;0.47137451171875;-0.56829833984375;-0.49407958984375;-0.45916748046875;17.09590403442399;15.251465441329021;1.5732413336045665;-0.6982421875;0.0791015625;-0.1650390625;11.6875;-36.125;12.3125;
1441976055798412;0.4658203125;-0.56951904296875;-0.49468994140625;-0.46258544921875;17.10161112719876;15.09746922656047;1.3916951859268631;-0.7197265625;0.07421875;-0.15380859375;15.9375;-33.625;11.25;
1441976055814413;0.4595947265625;-0.57159423828125;-0.49468994140625;-0.46624755859375;17.09936681249881;14.948839944981264;1.2086611014408724;-0.76806640625;0.0908203125;-0.1435546875;24.3125;-30.8125;14.25;
1441976055837414;0.4520263671875;-0.5751953125;-0.493896484375;-0.47003173828125;17.08185735972367;14.807275886164739;1.0217624151039002;-0.81103515625;0.07958984375;-0.12548828125;31.5625;-28.5;17.5625;
1441976055858415;0.44268798828125;-0.580810546875;-0.49267578125;-0.47332763671875;17.0384126573201;14.673724844782367;0.8320712539997406;-0.83642578125;0.0751953125;-0.09521484375;42.125;-24.5625;24.625;
1441976055874416;0.43170166015625;-0.58795166015625;-0.49139404296875;-0.4759521484375;16.97027974842156;14.549859658135953;0.6445125082177776;-0.8427734375;0.126953125;-0.052734375;53.6875;-18.875;32.875;
1441976055897418;0.42022705078125;-0.59588623046875;-0.49114990234375;-0.47662353515625;16.873896683526254;14.445220712867156;0.4808792317876098;-0.880859375;0.20263671875;-0.013671875;61.6875;-13.8125;39.9375;
1441976055918419;0.4088134765625;-0.6043701171875;-0.491943359375;-0.47503662109375;16.75179274610538;14.37120643685694;0.3556809333997323;-0.9091796875;0.2509765625;0.0234375;57.3125;-6.6875;50.375;
1441976055934420;0.39727783203125;-0.6136474609375;-0.49359130859375;-0.47125244140625;16.60366911314024;14.326751581301437;0.2658757894331605;-0.9140625;0.27099609375;0.06494140625;50.625;3.125;60.4375;
1441976055957421;0.38543701171875;-0.6231689453125;-0.49639892578125;-0.465576171875;16.43345466891616;14.29222296626421;0.19281893719497473;-0.93359375;0.3203125;0.072265625;45.5;11.4375;70.4375;
1441976055978422;0.37347412109375;-0.6328125;-0.50030517578125;-0.4581298828125;16.244077120518583;14.266262770020418;0.13552581166347386;-0.91162109375;0.35595703125;0.0751953125;39.1875;15.875;79.4375;
1441976055994423;0.36163330078125;-0.64190673828125;-0.50537109375;-0.44927978515625;16.04309716412104;14.240040864360864;0.08693753585810972;-0.88134765625;0.396484375;0.05322265625;32.25;17.9375;86.9375;
1441976056024425;0.35003662109375;-0.6507568359375;-0.51129150390625;-0.43890380859375;15.829802270633243;14.219906021139337;0.05238575341459561;-0.87060546875;0.41259765625;0.02294921875;22.3125;18.1875;93.5625;
1441976056038426;0.339599609375;-0.65863037109375;-0.51751708984375;-0.42791748046875;15.622305212382575;14.204697711451182;0.03149060593402479;-0.85498046875;0.44921875;-0.033203125;14.4375;18.375;98.3125;
1441976056054427;0.32977294921875;-0.66510009765625;-0.52496337890625;-0.4163818359375;15.416421842249187;14.177751974083922;0.009817942080414655;-0.837890625;0.486328125;-0.0732421875;4.1875;17.9375;100.6875;
1441976056077428;0.32025146484375;-0.6707763671875;-0.532958984375;-0.40435791015625;15.210210517094286;14.14806364863367;17.991562548585023;-0.83203125;0.49267578125;-0.11181640625;-6.9375;15.4375;100.375;
1441976056098429;0.310791015625;-0.67559814453125;-0.5411376953125;-0.3927001953125;15.010245663433652;14.113754187533377;17.970861682574256;-0.83349609375;0.482421875;-0.15869140625;-15.0625;12.0;99.1875;
1441976056115430;0.30120849609375;-0.679931640625;-0.5491943359375;-0.38128662109375;14.81376032702098;14.079399186449049;17.950078789220864;-0.81787109375;0.47021484375;-0.1796875;-18.6875;7.0;99.0625;
1441976056137431;0.29156494140625;-0.6837158203125;-0.55712890625;-0.3704833984375;14.624104959149415;14.043598818826199;17.927214646757662;-0.80859375;0.5126953125;-0.21533203125;-20.625;2.875;96.9375;
1441976056158433;0.28289794921875;-0.6864013671875;-0.564697265625;-0.360595703125;14.453366496975775;14.007530376997604;17.90671625630665;-0.814453125;0.5634765625;-0.24951171875;-22.0;-2.3125;93.8125;
1441976056174433;0.27435302734375;-0.68914794921875;-0.5712890625;-0.3514404296875;14.292033828665508;13.978825486261135;17.888755363391823;-0.814453125;0.5263671875;-0.2626953125;-25.8125;-5.1875;88.6875;
1441976056197435;0.26556396484375;-0.69207763671875;-0.57666015625;-0.34356689453125;14.142336997613816;13.956360324350614;17.86828775001843;-0.80029296875;0.51953125;-0.28515625;-22.25;-7.1875;85.4375;
1441976056218436;0.25634765625;-0.6953125;-0.58087158203125;-0.3369140625;14.001897986574093;13.939741313487104;17.844226124625827;-0.7890625;0.51416015625;-0.27978515625;-14.75;-10.25;81.8125;
1441976056233437;0.2469482421875;-0.6976318359375;-0.5855712890625;-0.33099365234375;13.867202496308671;13.914487011499974;17.812989781352762;-0.7763671875;0.54296875;-0.28662109375;-6.9375;-14.3125;77.3125;
1441976056256438;0.23779296875;-0.69952392578125;-0.5902099609375;-0.32537841796875;13.737852405324825;13.888937884758104;17.782359325425453;-0.7421875;0.55615234375;-0.2470703125;-9.1875;-18.5625;74.0625;
1441976056278439;0.22900390625;-0.70111083984375;-0.5948486328125;-0.31988525390625;13.612654845091104;13.8639512947459;17.75399394143887;-0.69384765625;0.55419921875;-0.22509765625;-9.6875;-18.375;71.125;
1441976056295440;0.220458984375;-0.70269775390625;-0.59918212890625;-0.31427001953125;13.488960456474294;13.842857040849504;17.72961923442742;-0.65673828125;0.55859375;-0.18017578125;-9.625;-16.0;67.75;
1441976056316442;0.2122802734375;-0.704345703125;-0.6029052734375;-0.308837890625;13.3709198546418;13.826823419856336;17.708763563205856;-0.62939453125;0.564453125;-0.1787109375;-9.0625;-14.8125;66.625;
1441976056338443;0.2041015625;-0.70648193359375;-0.6058349609375;-0.3037109375;13.256312962903737;13.817625234703737;17.68976439970679;-0.63134765625;0.57470703125;-0.1806640625;-7.4375;-13.1875;64.125;
1441976056353444;0.19635009765625;-0.7083740234375;-0.60845947265625;-0.2991943359375;13.151126482194899;13.808950370078383;17.670611269699474;-0.6455078125;0.6201171875;-0.21240234375;-3.4375;-13.8125;62.25;
1441976056377445;0.18890380859375;-0.71038818359375;-0.61041259765625;-0.29522705078125;13.054205981803385;13.804288679185671;17.652242931952706;-0.6748046875;0.61962890625;-0.23046875;-4.25;-15.5625;60.25;
1441976056398446;0.18133544921875;-0.71307373046875;-0.611328125;-0.29156494140625;12.960333679784762;13.80777934913319;17.635136213658324;-0.689453125;0.6240234375;-0.22021484375;-0.75;-14.8125;57.75;
1441976056414447;0.173095703125;-0.71661376953125;-0.6116943359375;-0.287109375;12.854979695820173;13.818934353692907;17.621044842933284;-0.66943359375;0.61279296875;-0.16552734375;8.9375;-11.75;56.625;
1441976056436448;0.1636962890625;-0.720703125;-0.61224365234375;-0.281005859375;12.72632397971058;13.833360338849417;17.609554433846423;-0.5966796875;0.6455078125;-0.09375;19.125;-5.4375;57.875;
1441976056458450;0.154296875;-0.72412109375;-0.61419677734375;-0.2733154296875;12.582467596683566;13.840737013893746;17.602049747075117;-0.48583984375;0.7138671875;-0.03466796875;24.0625;-0.0625;61.25;
1441976056473451;0.14532470703125;-0.7259521484375;-0.61798095703125;-0.26470947265625;12.432550467060565;13.834275761022115;17.59570412672684;-0.41259765625;0.80908203125;-0.01611328125;16.4375;4.625;62.375;
1441976056497452;0.13702392578125;-0.726806640625;-0.62286376953125;-0.25518798828125;12.279146570005967;13.820780070024734;17.594124404810394;-0.41259765625;0.87060546875;-0.01318359375;1.9375;6.0;64.375;
1441976056527454;0.12884521484375;-0.72796630859375;-0.62738037109375;-0.24481201171875;12.12022641801148;13.812066700979166;17.5981710808999;-0.43798828125;0.8779296875;-0.0341796875;-8.875;8.9375;68.4375;
1441976056533454;0.12115478515625;-0.7298583984375;-0.63092041015625;-0.23382568359375;11.961335796413437;13.812433666037101;17.609341020660334;-0.443359375;0.89404296875;-0.06787109375;-8.75;12.6875;72.4375;
1441976056556455;0.1136474609375;-0.73199462890625;-0.63385009765625;-0.22265625;11.803446909716426;13.816712148202702;17.622828578504226;-0.46142578125;0.91796875;-0.10107421875;-5.75;17.8125;74.25;
1441976056578457;0.106201171875;-0.7335205078125;-0.63726806640625;-0.2113037109375;11.644304466418207;13.8159933670749;17.63586563202655;-0.48681640625;0.96240234375;-0.1396484375;-4.0;19.125;75.3125;
1441976056593457;0.0985107421875;-0.73370361328125;-0.64202880859375;-0.19964599609375;11.479796553779147;13.803387741380712;17.64631139391369;-0.47314453125;0.97265625;-0.14501953125;-9.0;18.75;76.875;
1441976056616459;0.09033203125;-0.73272705078125;-0.6480712890625;-0.187255859375;11.304506501384585;13.780570096815522;17.655717720598773;-0.44287109375;0.95947265625;-0.12158203125;-18.75;17.875;80.5;
1441976056638460;0.08209228515625;-0.73193359375;-0.6536865234375;-0.17401123046875;11.12252729205505;13.761206936827639;17.669444593062465;-0.37646484375;0.94775390625;-0.0517578125;-24.0;18.25;84.375;
1441976056653461;0.0740966796875;-0.72979736328125;-0.66064453125;-0.15966796875;10.932587380408824;13.731421124521113;17.687255833494923;-0.33984375;0.9306640625;-0.07177734375;-23.625;21.5;87.8125;
1441976056676462;0.06597900390625;-0.7257080078125;-0.66949462890625;-0.14453125;10.734262418917163;13.685863440780006;17.70611095155641;-0.3251953125;0.97265625;-0.06494140625;-35.0;24.9375;91.9375;
1441976056698463;0.05792236328125;-0.72076416015625;-0.67852783203125;-0.12957763671875;10.538961697746522;13.635732050476248;17.72519702145093;-0.27490234375;0.95166015625;-0.04541015625;-50.625;25.4375;96.3125;
1441976056713464;0.05023193359375;-0.71563720703125;-0.68719482421875;-0.11505126953125;10.351365046410365;13.585994937751067;17.745636278181568;-0.244140625;0.90771484375;-0.03271484375;-54.8125;23.875;95.875;
1441976056736466;0.04296875;-0.71014404296875;-0.695556640625;-0.1007080078125;10.170016539329641;13.535718137096115;17.768449098347673;-0.21533203125;0.87158203125;-0.0390625;-55.6875;23.1875;93.5625;
1441976056758467;0.03607177734375;-0.7039794921875;-0.70391845703125;-0.0877685546875;10.004034115236895;13.481625532201317;17.788095320798597;-0.1826171875;0.8466796875;-0.05126953125;-58.0;23.5625;90.5625;
1441976056775468;0.0296630859375;-0.69769287109375;-0.7117919921875;-0.075927734375;9.852067482014872;13.428280457326046;17.806658008426137;-0.15087890625;0.8115234375;-0.046875;-61.5;18.75;83.3125;
1441976056796469;0.02362060546875;-0.69073486328125;-0.71966552734375;-0.0667724609375;9.725212385091258;13.370861085449846;17.81657047955655;-0.1181640625;0.7626953125;-0.06103515625;-61.6875;15.9375;76.625;
1441976056818470;0.0186767578125;-0.68310546875;-0.7276611328125;-0.06036376953125;9.629442410612924;13.309218565099265;17.82025096425135;-0.08935546875;0.7099609375;-0.07177734375;-66.3125;6.9375;63.625;
1441976056835471;0.01593017578125;-0.6756591796875;-0.7349853515625;-0.0562744140625;9.570736634063968;13.250388950014232;17.823729201999154;-0.07763671875;0.68310546875;-0.0810546875;-70.6875;-0.1875;48.25;
1441976056856472;0.01617431640625;-0.66949462890625;-0.74072265625;-0.0543212890625;9.55484124652915;13.202643442295495;17.83062838578497;-0.07177734375;0.6337890625;-0.1005859375;-70.1875;-0.25;30.0625;
1441976056878474;0.02166748046875;-0.66180419921875;-0.7474365234375;-0.0543212890625;9.598587706640602;13.14435516266686;17.84864405861016;-0.0908203125;0.625;-0.1015625;-59.75;4.875;10.625;
1441976056895475;0.0347900390625;-0.65264892578125;-0.75469970703125;-0.0577392578125;9.734655383953477;13.077515052940951;17.879405673655604;-0.06884765625;0.66259765625;-0.0625;-70.3125;19.25;-20.0625;
1441976056916476;0.05242919921875;-0.6431884765625;-0.76104736328125;-0.066650390625;9.952786311311181;13.01200151598244;17.90120956233778;-0.14306640625;0.62890625;0.06689453125;-72.375;38.6875;-59.125;
1441976056938477;0.07342529296875;-0.62860107421875;-0.77001953125;-0.081298828125;10.243147233591042;12.912116973319215;17.90349482712262;-0.3076171875;0.6884765625;0.15869140625;-67.875;38.125;-100.875;
1441976056955478;0.09808349609375;-0.61285400390625;-0.778076171875;-0.0972900390625;10.577502297059612;12.80972403239565;17.907181717422002;-0.36328125;0.62548828125;0.27880859375;-97.875;29.3125;-138.75;
1441976056976479;0.12811279296875;-0.60150146484375;-0.78033447265625;-0.1138916015625;10.968912141384756;12.750118454085507;17.92811088874507;-0.32763671875;0.50732421875;0.3173828125;-100.125;40.5625;-159.5625;
1441976056998481;0.16375732421875;-0.58819580078125;-0.7813720703125;-0.12939453125;11.408543610806396;12.690739836655304;17.969978069468944;-0.39306640625;0.595703125;0.25244140625;-64.75;67.5;-182.0625;
1441976057015482;0.2030029296875;-0.57293701171875;-0.78131103515625;-0.1419677734375;11.867632617609141;12.634259203289893;0.03517812886940607;-0.4189453125;0.70751953125;0.18603515625;-75.25;96.1875;-199.875;
1441976057036483;0.23858642578125;-0.55865478515625;-0.77972412109375;-0.1519775390625;12.280781112941915;12.591755835861717;0.10081337639137886;-0.56787109375;0.8115234375;0.1591796875;-86.875;121.0625;-201.625;
1441976057058484;0.26806640625;-0.5484619140625;-0.77587890625;-0.15936279296875;12.62102984595442;12.579933184441726;0.1660941260802982;-0.58935546875;0.68798828125;0.2646484375;-75.5;116.3125;-178.125;
1441976057076485;0.29632568359375;-0.54107666015625;-0.7689208984375;-0.16802978515625;12.960613922094428;12.59683697129279;0.23177145828044224;-0.41650390625;0.64697265625;0.43017578125;-45.9375;106.9375;-145.875;
1441976057096486;0.32861328125;-0.53424072265625;-0.7574462890625;-0.18157958984375;13.376974295260514;12.641090568165557;0.30220859969208735;-0.22705078125;0.39453125;0.2587890625;-22.125;104.5;-146.5625;
1441976057118487;0.36181640625;-0.527587890625;-0.74249267578125;-0.1988525390625;13.833491179188064;12.707515510293813;0.373729776031238;-0.43798828125;0.1728515625;0.07958984375;-1.9375;112.375;-179.3125;
1441976057135488;0.39398193359375;-0.51702880859375;-0.72882080078125;-0.21533203125;14.28331794358793;12.756718305247372;0.4452325972809428;-0.8251953125;0.3076171875;-0.130859375;12.3125;108.25;-199.8125;
1441976057156490;0.42364501953125;-0.50262451171875;-0.71826171875;-0.22808837890625;14.691229579776959;12.779738809270135;0.5181968929053957;-1.06005859375;0.4794921875;-0.2041015625;-9.625;97.875;-200.6875;
1441976057178491;0.44970703125;-0.48809814453125;-0.709228515625;-0.23797607421875;15.047053493990136;12.800529497514567;0.5938112233213678;-1.13720703125;0.5400390625;-0.09521484375;-38.75;88.25;-184.5;
1441976057194492;0.46978759765625;-0.47808837890625;-0.6990966796875;-0.2490234375;15.35018103593715;12.842671024460504;0.6542772698619962;-1.14013671875;0.5205078125;0.1337890625;-43.8125;81.375;-161.25;
1441976057216493;0.48101806640625;-0.4755859375;-0.68707275390625;-0.265380859375;15.59739126513391;12.89799257171476;0.659133291991151;-1.07958984375;0.45849609375;0.32177734375;-9.5625;66.125;-139.75;
1441976057238494;0.48223876953125;-0.47979736328125;-0.67437744140625;-0.2872314453125;15.782032248280133;12.930731261914268;0.5756319031134829;-1.07421875;0.4765625;0.3818359375;52.875;33.4375;-120.5;
1441976057255495;0.47509765625;-0.4892578125;-0.66131591796875;-0.3123779296875;15.907310337181393;12.936311173313797;0.4163645330472958;-1.09228515625;0.576171875;0.37109375;111.3125;-8.8125;-99.25;
1441976057276496;0.4609375;-0.5052490234375;-0.64532470703125;-0.3404541015625;15.985926294032225;12.959267223757996;0.2195882049948072;-1.0419921875;0.5869140625;0.31591796875;155.0625;-41.1875;-75.875;
1441976057298498;0.44073486328125;-0.52825927734375;-0.62408447265625;-0.37054443359375;16.030742042346986;13.043452936823373;0.026714100592421713;-0.96044921875;0.5224609375;0.271484375;208.25;-56.9375;-54.625;
1441976057321499;0.416259765625;-0.55523681640625;-0.599609375;-0.398681640625;16.036896951916482;13.184567735798801;17.864706096717985;-0.921875;0.4873046875;0.15478515625;266.25;-59.0;-35.75;
1441976057336500;0.39080810546875;-0.5819091796875;-0.575927734375;-0.4207763671875;16.001341056693953;13.35414472094474;17.74956894191616;-0.86962890625;0.61083984375;0.064453125;293.75;-52.9375;-15.375;
1441976057358501;0.3690185546875;-0.6029052734375;-0.55743408203125;-0.435546875;15.947140877024813;13.493756194614067;17.6675234334733;-0.8515625;0.77587890625;-0.05078125;277.6875;-41.3125;6.75;
1441976057381503;0.3505859375;-0.6171875;-0.545654296875;-0.445556640625;15.882750216845688;13.560055330402625;17.574237395832625;-0.7978515625;0.86962890625;-0.1455078125;215.875;-31.0625;16.875;
1441976057396503;0.33074951171875;-0.63134765625;-0.53533935546875;-0.4532470703125;15.788412760857799;13.62158664558056;17.48245212907783;-0.806640625;0.6826171875;-0.12451171875;153.0;-34.5625;26.5625;
1441976057418505;0.30560302734375;-0.65087890625;-0.52154541015625;-0.45941162109375;15.64508858580224;13.743829003191784;17.412380320122516;-0.8154296875;0.46630859375;-0.07568359375;146.375;-33.3125;45.875;
1441976057434506;0.27520751953125;-0.67340087890625;-0.505126953125;-0.4644775390625;15.462171518039904;13.89096295042404;17.33511869387104;-0.73974609375;0.49267578125;-0.14990234375;186.0625;-24.5625;70.4375;
1441976057456507;0.24267578125;-0.6966552734375;-0.48760986328125;-0.467041015625;15.25355392905189;14.052017721266244;17.263078770214417;-0.703125;0.55615234375;-0.2890625;216.0625;-25.25;90.9375;
1441976057478508;0.212158203125;-0.71630859375;-0.47296142578125;-0.4671630859375;15.044862218965134;14.181178937937542;17.18786249702948;-0.67333984375;0.822265625;-0.2958984375;224.8125;-18.1875;100.75;
1441976057501509;0.18634033203125;-0.7310791015625;-0.46246337890625;-0.46588134765625;14.858819008693132;14.269209536357868;17.115168044858468;-0.634765625;1.0009765625;-0.27490234375;195.125;-15.125;99.75;
1441976057516510;0.16278076171875;-0.7420654296875;-0.45538330078125;-0.4642333984375;14.684566809991493;14.319200916780867;17.032473798913323;-0.830078125;0.927734375;-0.14453125;151.625;-12.5;93.0;
1441976057538511;0.13671875;-0.7559814453125;-0.4423828125;-0.4627685546875;14.51454979520184;14.419686662191406;16.96120759664762;-1.20703125;0.4677734375;0.1083984375;122.0625;-13.9375;100.1875;
1441976057561513;0.11029052734375;-0.7742919921875;-0.4256591796875;-0.4552001953125;14.30099638080594;14.589164087611302;16.944457869415007;-1.35205078125;0.1455078125;0.2373046875;161.9375;-5.25;103.6875;
1441976057576514;0.09039306640625;-0.791748046875;-0.41522216796875;-0.4388427734375;14.034943810134026;14.751791150081061;16.98542964464087;-0.96728515625;0.50439453125;0.15869140625;186.6875;33.375;106.4375;
1441976057598515;0.07781982421875;-0.8056640625;-0.41290283203125;-0.417724609375;13.749830335216235;14.866228718893469;17.051887402113064;-0.91259765625;0.7900390625;-0.0048828125;134.0625;80.3125;110.5625;
1441976057621516;0.06982421875;-0.81719970703125;-0.4154052734375;-0.39349365234375;13.451320999355021;14.947927592845025;17.131951987880672;-1.00830078125;0.6962890625;-0.14404296875;66.4375;105.875;110.25;
1441976057636517;0.06378173828125;-0.8270263671875;-0.41998291015625;-0.3682861328125;13.15060181498594;15.006870807034225;17.210278029127423;-0.9609375;0.75439453125;-0.25927734375;25.625;122.0;106.4375;
1441976057658518;0.05767822265625;-0.83709716796875;-0.4234619140625;-0.34161376953125;12.836933322534057;15.067952042478506;17.288440027832365;-0.8896484375;0.6640625;-0.3447265625;5.9375;125.9375;104.875;
1441976057682520;0.05108642578125;-0.84759521484375;-0.424560546875;-0.31427001953125;12.517672311419966;15.136704951834442;17.363036990362062;-0.79296875;0.6259765625;-0.38818359375;10.6875;133.0625;106.625;
1441976057697521;0.0430908203125;-0.8587646484375;-0.421875;-0.28759765625;12.202588261177297;15.218554636352348;17.426307542101824;-0.666015625;0.6533203125;-0.4111328125;24.4375;136.3125;105.0;
1441976057718522;0.03448486328125;-0.86968994140625;-0.417236328125;-0.26171875;11.894310016771131;15.302134409229575;17.47859732401568;-0.4970703125;0.69677734375;-0.42724609375;47.25;131.25;101.8125;
1441976057734523;0.02777099609375;-0.87786865234375;-0.41595458984375;-0.23590087890625;11.59280847996761;15.355862685754184;17.52809554354329;-0.32080078125;0.77978515625;-0.51171875;57.8125;124.375;97.375;
1441976057757524;0.025634765625;-0.8802490234375;-0.42303466796875;-0.21356201171875;11.343069006867536;15.344934919571482;17.575225628833778;-0.15869140625;0.7978515625;-0.57080078125;31.25;122.125;90.5625;
1441976057778525;0.02532958984375;-0.88311767578125;-0.4259033203125;-0.1953125;11.150083523193334;15.35392458219887;17.624448151727364;-0.20751953125;0.6396484375;-0.30859375;-28.5;109.375;72.4375;
1441976057794526;0.02813720703125;-0.88336181640625;-0.43231201171875;-0.17913818359375;10.992442361727168;15.33585192300972;17.678868989590807;-0.11181640625;0.48486328125;-0.54443359375;-19.0625;84.5625;42.9375;
1441976057817527;0.0311279296875;-0.8824462890625;-0.43829345703125;-0.16839599609375;10.893178171121185;15.3118292212846;17.71890684991075;-0.00634765625;0.68408203125;-0.46044921875;-35.125;77.375;16.5;
1441976057838529;0.033203125;-0.88128662109375;-0.44342041015625;-0.1602783203125;10.81751825399735;15.288666167141567;17.747564955818962;-0.23388671875;0.61669921875;-0.4306640625;-36.125;59.25;15.9375;
1441976057861530;0.03680419921875;-0.87847900390625;-0.45025634765625;-0.1556396484375;10.785351257687411;15.25055729335175;17.77255850642123;-0.1923828125;0.67626953125;-0.4453125;-30.125;41.9375;10.125;
1441976057877531;0.04119873046875;-0.87432861328125;-0.4583740234375;-0.1544189453125;10.79245267306178;15.200332587430566;17.790511862458054;-0.2294921875;0.6982421875;-0.4580078125;-44.125;27.3125;-3.125;
1441976057898532;0.04620361328125;-0.869873046875;-0.4659423828125;-0.15545654296875;10.826940046948444;15.15113865638231;17.80532405178546;-0.271484375;0.6796875;-0.43896484375;-54.875;12.75;-12.1875;
1441976057921533;0.05169677734375;-0.86602783203125;-0.47186279296875;-0.15740966796875;10.874729907573904;15.112090860976767;17.821381592716374;-0.3173828125;0.63671875;-0.42431640625;-54.25;4.25;-18.5;
1441976057937534;0.05718994140625;-0.86279296875;-0.47637939453125;-0.159423828125;10.924304097067736;15.082142010437863;17.838475307658115;-0.37744140625;0.6533203125;-0.42919921875;-44.875;3.875;-21.875;
1441976057958536;0.06317138671875;-0.86004638671875;-0.479736328125;-0.1622314453125;10.985360421758129;15.059646465131008;17.8568184908122;-0.38623046875;0.6943359375;-0.43798828125;-36.1875;4.0625;-24.0;
1441976057974536;0.0689697265625;-0.85736083984375;-0.48236083984375;-0.1661376953125;11.057186842883734;15.040401327753402;17.871414081958722;-0.40576171875;0.67724609375;-0.44775390625;-30.875;1.9375;-28.4375;
1441976057997538;0.07452392578125;-0.8546142578125;-0.4849853515625;-0.170166015625;11.12911418183984;15.020768599055554;17.8841332455869;-0.42822265625;0.70361328125;-0.4599609375;-26.4375;-3.5625;-31.0625;
1441976058018539;0.0797119140625;-0.8521728515625;-0.4871826171875;-0.173583984375;11.1931887794873;15.004444017305431;17.897210308845786;-0.4306640625;0.71728515625;-0.47119140625;-27.0625;-5.875;-31.125;
1441976058041540;0.084716796875;-0.8502197265625;-0.48870849609375;-0.17657470703125;11.252169828405881;14.993338852664465;17.911507119962142;-0.4111328125;0.72509765625;-0.48095703125;-24.625;-4.75;-29.5;
1441976058057541;0.0892333984375;-0.84930419921875;-0.48870849609375;-0.1788330078125;11.3013461421332;14.99357731367246;17.927721372562992;-0.39697265625;0.7001953125;-0.4638671875;-19.8125;-3.0625;-28.625;
1441976058078542;0.09307861328125;-0.8487548828125;-0.48834228515625;-0.1802978515625;11.338779100510939;14.996857491631083;17.943528079097266;-0.3896484375;0.7080078125;-0.4638671875;-9.5;0.4375;-26.4375;
1441976058101544;0.09637451171875;-0.84783935546875;-0.48883056640625;-0.181640625;11.37156770521295;14.99409089086802;17.95568555974508;-0.3720703125;0.75634765625;-0.46142578125;-4.1875;2.4375;-23.9375;
1441976058117545;0.09918212890625;-0.8465576171875;-0.4901123046875;-0.1827392578125;11.399008086071582;14.985681348331871;17.964887195675406;-0.3515625;0.77734375;-0.44873046875;-7.875;0.0625;-22.1875;
1441976058138546;0.101318359375;-0.845703125;-0.49072265625;-0.18365478515625;11.420900054032321;14.981558003464151;17.97211835072334;-0.337890625;0.7783203125;-0.43994140625;-11.8125;-1.25;-19.4375;
1441976058161547;0.1036376953125;-0.84539794921875;-0.49066162109375;-0.18414306640625;11.439410866060527;14.98322788187949;17.98278348493747;-0.3310546875;0.76953125;-0.423828125;-6.4375;-1.75;-16.5;
1441976058177548;0.10577392578125;-0.84539794921875;-0.490234375;-0.1839599609375;11.45018868684568;14.98807339777916;17.995199511118713;-0.3427734375;0.759765625;-0.4208984375;-2.3125;2.5625;-16.0;
1441976058198549;0.10760498046875;-0.8453369140625;-0.49017333984375;-0.18359375;11.457128153861706;14.990576049915552;0.006108284003183058;-0.34814453125;0.77685546875;-0.427734375;0.875;5.625;-13.4375;
1441976058221551;0.10888671875;-0.8447265625;-0.490966796875;-0.18328857421875;11.461702819573668;14.98616273730787;0.012546676416451063;-0.35595703125;0.78369140625;-0.42578125;-0.75;5.6875;-11.3125;
1441976058238552;0.1094970703125;-0.84417724609375;-0.49188232421875;-0.18292236328125;11.46165321830096;14.98054537021313;0.015494907684808375;-0.3681640625;0.783203125;-0.41552734375;-5.3125;3.5;-7.5625;
1441976058258553;0.10980224609375;-0.84405517578125;-0.492431640625;-0.18194580078125;11.453518964037938;14.978243724747966;0.019417983022963964;-0.35595703125;0.771484375;-0.408203125;-5.1875;1.625;-3.875;
1441976058274554;0.11004638671875;-0.84423828125;-0.49267578125;-0.18035888671875;11.438851361435411;14.978827449756418;0.025456520528150468;-0.361328125;0.79248046875;-0.4189453125;-2.25;4.3125;-1.4375;
1441976058297555;0.11016845703125;-0.8441162109375;-0.49334716796875;-0.17889404296875;11.424825758045163;14.975963415814896;0.029772858417409925;-0.3564453125;0.7939453125;-0.435546875;-1.125;6.875;0.5;
1441976058326557;0.11016845703125;-0.84417724609375;-0.49371337890625;-0.177490234375;11.410676783418264;14.975096434240456;0.033722519197603995;-0.369140625;0.79248046875;-0.43017578125;-3.5;6.25;1.625;
1441976058334557;0.1099853515625;-0.844482421875;-0.49383544921875;-0.1759033203125;11.393489927205646;14.976170711726919;0.03769454740384784;-0.37255859375;0.7578125;-0.43017578125;-2.6875;5.9375;3.375;
1441976058357558;0.10955810546875;-0.84466552734375;-0.4942626953125;-0.17431640625;11.374838142489788;14.974961426501114;0.03994355600894639;-0.37060546875;0.76806640625;-0.43408203125;-0.5625;6.6875;4.5625;
1441976058378560;0.10888671875;-0.84466552734375;-0.4949951171875;-0.17242431640625;11.351892847047264;14.971479039098096;0.04138774112517755;-0.37646484375;0.767578125;-0.4453125;-2.8125;5.8125;6.4375;
1441976058394560;0.10821533203125;-0.84490966796875;-0.4954833984375;-0.17047119140625;11.328126517859925;14.970071907061149;0.0434487487893824;-0.37255859375;0.77099609375;-0.4423828125;-4.25;6.1875;8.375;
1441976058417562;0.10736083984375;-0.8453369140625;-0.49554443359375;-0.16845703125;11.302827978691226;14.971307132285167;0.04531047455074441;-0.36669921875;0.75244140625;-0.4384765625;-3.3125;6.75;9.4375;
1441976058438563;0.1065673828125;-0.84600830078125;-0.4952392578125;-0.16650390625;11.278362759479235;14.975238431847297;0.047835391064867845;-0.3603515625;0.74560546875;-0.42431640625;0.5625;7.5625;9.6875;
1441976058454564;0.10589599609375;-0.84649658203125;-0.49517822265625;-0.16473388671875;11.256468656400756;14.977335157080532;0.05005522707612576;-0.3623046875;0.75146484375;-0.4365234375;2.3125;7.4375;9.5625;
1441976058477565;0.105224609375;-0.8466796875;-0.49554443359375;-0.16302490234375;11.23532711887114;14.976208958768;0.05145177177630568;-0.36572265625;0.7548828125;-0.4384765625;0.25;7.25;8.8125;
1441976058498566;0.104736328125;-0.84686279296875;-0.49591064453125;-0.161376953125;11.21581354785516;14.975238456489889;0.05362587576081679;-0.3642578125;0.751953125;-0.4326171875;-1.9375;6.3125;8.75;
1441976058514567;0.1041259765625;-0.84716796875;-0.49609375;-0.15960693359375;11.194372348362817;14.975531675344428;0.0557896231842963;-0.36328125;0.74267578125;-0.44189453125;-3.0625;6.625;8.625;
1441976058536569;0.10382080078125;-0.847412109375;-0.4962158203125;-0.1580810546875;11.177208369968755;14.976136169880196;0.058836216247915796;-0.36376953125;0.7490234375;-0.43994140625;-1.4375;7.0625;9.0;
1441976058558570;0.10369873046875;-0.84771728515625;-0.4959716796875;-0.1571044921875;11.166665908876723;14.978733496882743;0.061578371243978754;-0.353515625;0.7294921875;-0.43994140625;-2.0625;6.3125;7.3125;
1441976058574571;0.10357666015625;-0.84796142578125;-0.49578857421875;-0.15643310546875;11.159148773295755;14.980659707498814;0.06329342454527657;-0.36572265625;0.7275390625;-0.44482421875;-0.3125;5.375;5.1875;
1441976058597572;0.10321044921875;-0.84808349609375;-0.49591064453125;-0.15594482421875;11.15197486296936;14.98026858555868;0.06279454554104094;-0.380859375;0.74169921875;-0.44580078125;0.125;3.9375;4.9375;
1441976058618573;0.10296630859375;-0.848388671875;-0.49554443359375;-0.155517578125;11.14620721224708;14.98308210135659;0.0633453153818203;-0.36669921875;0.734375;-0.43505859375;-1.25;1.875;5.0625;
1441976058641575;0.10272216796875;-0.84869384765625;-0.4952392578125;-0.155029296875;11.13978484665025;14.985605923453974;0.06401510491745789;-0.36767578125;0.7548828125;-0.43310546875;2.1875;2.625;3.6875;
1441976058657575;0.10260009765625;-0.8489990234375;-0.4947509765625;-0.15472412109375;11.136008958192738;14.989117041079632;0.06495408403139695;-0.36279296875;0.7490234375;-0.4365234375;1.9375;2.8125;4.0625;
1441976058687577;0.1025390625;-0.849365234375;-0.49420166015625;-0.154541015625;11.133706789348484;14.99313067578844;0.06593513717067956;-0.35791015625;0.74267578125;-0.44189453125;2.1875;2.0625;2.375;
1441976058701578;0.10235595703125;-0.84954833984375;-0.4940185546875;-0.15435791015625;11.130717240465323;14.994548620297087;0.06580844808971871;-0.35546875;0.7509765625;-0.4326171875;3.5625;1.625;1.5;
1441976058716579;0.10223388671875;-0.849609375;-0.493896484375;-0.15435791015625;11.130031471451108;14.99524765020388;0.06532452703537935;-0.3486328125;0.76171875;-0.43505859375;1.6875;0.9375;1.5625;
1441976058740580;0.1019287109375;-0.84979248046875;-0.49371337890625;-0.1544189453125;11.128739821293351;14.996416941489157;0.06382185340539469;-0.3515625;0.75830078125;-0.439453125;0.75;-0.0625;1.3125;
1441976058761581;0.10186767578125;-0.8499755859375;-0.49334716796875;-0.1546630859375;11.13078152555688;14.998700178958025;0.06323261660580809;-0.34228515625;0.75390625;-0.44140625;1.125;-0.9375;1.125;
1441976058776582;0.101806640625;-0.85015869140625;-0.492919921875;-0.15496826171875;11.133478209202957;15.001272128731562;0.06252264102258205;-0.34619140625;0.7578125;-0.43603515625;2.5;-0.9375;-0.125;
1441976058800584;0.1016845703125;-0.85015869140625;-0.4927978515625;-0.15533447265625;11.1364860175567;15.001599652255205;0.06090480131794189;-0.34326171875;0.767578125;-0.435546875;3.25;-1.1875;-1.0625;
1441976058821585;0.1015625;-0.8502197265625;-0.49267578125;-0.15557861328125;11.13818643703508;15.002173112218152;0.05968579585238946;-0.34423828125;0.771484375;-0.4287109375;2.0625;-1.5;-0.75;
1441976058836586;0.10137939453125;-0.85003662109375;-0.49285888671875;-0.1558837890625;11.140310261906068;15.00031709083286;0.0575252646334963;-0.337890625;0.7607421875;-0.4365234375;1.125;-1.875;-0.6875;
1441976058860587;0.1011962890625;-0.8499755859375;-0.492919921875;-0.15625;11.142914060446014;14.999435919836696;0.055367682062970665;-0.3349609375;0.77880859375;-0.43310546875;-0.125;-2.3125;-1.0;
1441976058881588;0.10089111328125;-0.85003662109375;-0.49273681640625;-0.15655517578125;11.144242193746159;15.000109073161294;0.05306644439710044;-0.3291015625;0.763671875;-0.435546875;0.3125;-2.9375;-1.0;
1441976058896589;0.10064697265625;-0.85015869140625;-0.49249267578125;-0.15679931640625;11.145262064685166;15.001380088140536;0.0513634114852793;-0.32861328125;0.7763671875;-0.4345703125;2.0625;-2.5;-0.875;
1441976058920591;0.10040283203125;-0.85015869140625;-0.49249267578125;-0.15716552734375;11.147466502400484;15.00093819585607;0.048979282278817315;-0.33203125;0.7802734375;-0.44091796875;2.375;-2.1875;-1.0625;
