1441975979516049;0.10198974609375;-0.7545166015625;-0.64837646484375;0.0067138671875;9.701375677561153;13.961619765025693;0.4714234820918871;-1.01806640625;-0.3701171875;-0.13623046875;10.125;23.1875;106.25;
1441975979539050;0.10028076171875;-0.75439453125;-0.648681640625;0.01214599609375;9.641697496024264;13.958061477740412;0.4838575368493321;-0.6640625;-0.1474609375;-0.005859375;24.625;20.125;77.625;
1441975979561051;0.09979248046875;-0.74700927734375;-0.6571044921875;0.0169677734375;9.60728060085954;13.892749996503959;0.49622016466556174;-0.36279296875;0.044921875;0.04638671875;-1.25;21.25;51.5625;
1441975979576052;0.10101318359375;-0.73480224609375;-0.6705322265625;0.019775390625;9.610714237681632;13.788947130947616;0.5066772605009169;-0.1005859375;0.1484375;0.1806640625;-53.25;16.9375;20.6875;
1441975979599054;0.10528564453125;-0.720947265625;-0.6846923828125;0.0186767578125;9.67332080326058;13.67809223042191;0.5144635429850979;0.052734375;0.28125;0.17822265625;-90.6875;11.125;-8.6875;
1441975979630055;0.11126708984375;-0.706787109375;-0.69854736328125;0.01409912109375;9.778797049945615;13.568704492201901;0.5144480477105444;-0.03125;0.240234375;0.18115234375;-108.4375;5.4375;-31.5625;
1441975979636056;0.119140625;-0.694580078125;-0.70947265625;0.00640869140625;9.921541533436306;13.480391230431772;0.5093951176836997;-0.19091796875;0.26318359375;0.1298828125;-99.875;-0.5625;-42.375;
1441975979658057;0.1260986328125;-0.684326171875;-0.71826171875;-0.003662109375;10.072726093456328;13.40753610148079;0.490207180121088;-0.34912109375;0.431640625;0.08447265625;-82.1875;-4.8125;-52.1875;
1441975979681058;0.1312255859375;-0.67755126953125;-0.72357177734375;-0.01544189453125;10.216973921810375;13.360755805582754;0.4575514373644406;-0.42431640625;0.58642578125;0.078125;-65.625;-17.125;-54.3125;
1441975979704060;0.1339111328125;-0.67486572265625;-0.7252197265625;-0.02679443359375;10.331983555286246;13.343055235023355;0.41917201464099146;-0.41845703125;0.591796875;0.05810546875;-38.1875;-29.625;-53.6875;
1441975979718060;0.13482666015625;-0.67596435546875;-0.7236328125;-0.0369873046875;10.418804687129805;13.35248244596424;0.38151508323909417;-0.34033203125;0.6376953125;0.12744140625;-3.1875;-33.5625;-46.625;
1441975979741062;0.13519287109375;-0.67742919921875;-0.72161865234375;-0.04632568359375;10.494328979011764;13.364478536614879;0.3456763699349842;-0.275390625;0.8076171875;0.1513671875;25.6875;-32.8125;-40.375;
1441975979756063;0.1356201171875;-0.6766357421875;-0.7216796875;-0.054931640625;10.566829422995461;13.35829453072804;0.31075249504083025;-0.26025390625;0.984375;0.115234375;25.625;-31.4375;-39.6875;
1441975979779064;0.1363525390625;-0.67388916015625;-0.72344970703125;-0.0631103515625;10.639897537809107;13.33674359686307;0.2765136481212068;-0.2548828125;1.0341796875;0.08984375;5.9375;-31.125;-40.125;
1441975979801065;0.13720703125;-0.669921875;-0.72637939453125;-0.07012939453125;10.70521739563849;13.3053361886883;0.24584040530775286;-0.2744140625;1.0048828125;0.064453125;-11.9375;-30.75;-39.8125;
1441975979817066;0.13818359375;-0.66546630859375;-0.7296142578125;-0.07598876953125;10.762356012771864;13.270807129411281;0.21971662874128522;-0.30615234375;0.9716796875;0.0810546875;-21.4375;-27.125;-33.8125;
1441975979838067;0.1396484375;-0.66143798828125;-0.732421875;-0.0814208984375;10.819488302627848;13.240114964332028;0.1975673374355796;-0.326171875;0.9482421875;0.119140625;-24.0;-22.1875;-28.875;
1441975979861069;0.14227294921875;-0.658203125;-0.734130859375;-0.0872802734375;10.88915341522222;13.217678624250935;0.1791754552942324;-0.361328125;0.91943359375;0.12109375;-21.125;-18.0;-26.5;
1441975979877070;0.145751953125;-0.6561279296875;-0.7344970703125;-0.09381103515625;10.97064595570917;13.20572365115827;0.162749149641351;-0.4482421875;0.8623046875;0.11279296875;-14.875;-14.5625;-26.25;
1441975979898071;0.1497802734375;-0.65484619140625;-0.73394775390625;-0.1007080078125;11.059319612707817;13.200902225335673;0.14798256376360552;-0.51513671875;0.787109375;0.10888671875;-4.8125;-12.1875;-26.9375;
1441975979921072;0.1546630859375;-0.65283203125;-0.73370361328125;-0.10784912109375;11.157663564492564;13.191845687176901;0.13460269236465305;-0.5107421875;0.78515625;0.10107421875;1.4375;-10.3125;-31.375;
1441975979937073;0.1611328125;-0.64898681640625;-0.7344970703125;-0.11614990234375;11.279371535820568;13.170454519465405;0.11972761580164772;-0.50439453125;0.78857421875;0.10205078125;-3.375;-8.1875;-38.0;
1441975979961074;0.17010498046875;-0.6427001953125;-0.73638916015625;-0.12554931640625;11.432395358016326;13.134227982356396;0.10611609508620415;-0.52001953125;0.77490234375;0.099609375;-14.9375;-7.875;-49.4375;
1441975979981075;0.18157958984375;-0.63519287109375;-0.73834228515625;-0.13604736328125;11.616288946547586;13.092616146834795;0.0950507318026308;-0.56982421875;0.67041015625;0.10693359375;-29.5625;-4.875;-60.875;
1441975979997076;0.19537353515625;-0.6275634765625;-0.73907470703125;-0.14788818359375;11.831755654631596;13.055381265015447;0.08662363677123605;-0.642578125;0.595703125;0.11474609375;-35.375;0.5625;-71.0;
1441975980019078;0.21142578125;-0.6204833984375;-0.73797607421875;-0.160400390625;12.073624405491225;13.029162936355334;0.08543051593046053;-0.693359375;0.5078125;0.09228515625;-32.5;5.3125;-82.1875;
1441975980042079;0.2269287109375;-0.61480712890625;-0.73565673828125;-0.17144775390625;12.30014293512306;13.015741223162209;0.09149238392614317;-0.74853515625;0.44091796875;0.0634765625;-26.3125;13.0;-91.0;
1441975980057080;0.2451171875;-0.60882568359375;-0.731689453125;-0.1842041015625;12.565939341924814;13.009114036335212;0.10193923109254413;-0.8408203125;0.4189453125;0.01220703125;-17.5625;21.9375;-102.625;
1441975980087082;0.26544189453125;-0.60186767578125;-0.7266845703125;-0.19830322265625;12.864021698935757;13.003561127089327;0.11487035581245024;-0.9345703125;0.46240234375;-0.046875;-14.1875;28.375;-121.625;
1441975980101082;0.28753662109375;-0.59423828125;-0.72003173828125;-0.21392822265625;13.193712527008365;13.002970125925435;0.12967426592693065;-0.97412109375;0.45751953125;-0.06640625;-15.4375;32.6875;-137.0625;
1441975980117083;0.31134033203125;-0.58642578125;-0.71136474609375;-0.230712890625;13.551847192688921;13.013457635459536;0.15098134277334294;-1.0009765625;0.4453125;-0.07080078125;-12.0;36.625;-152.9375;
1441975980138084;0.33612060546875;-0.5775146484375;-0.7010498046875;-0.24908447265625;13.937292547114435;13.02703301867815;0.17163528661507088;-1.0400390625;0.44921875;-0.107421875;-6.4375;42.375;-166.6875;
1441975980161086;0.362060546875;-0.5648193359375;-0.69158935546875;-0.267822265625;14.34396360078094;13.017251071279105;0.1855131793356932;-1.11767578125;0.5859375;-0.11962890625;-4.25;42.125;-183.1875;
1441975980177087;0.3892822265625;-0.54681396484375;-0.68402099609375;-0.28570556640625;14.766770839531471;12.966849986879613;0.1869159383022146;-1.11474609375;0.6982421875;-0.17626953125;-23.75;38.0625;-197.75;
1441975980198088;0.417236328125;-0.52618408203125;-0.676513671875;-0.302490234375;15.19760415261554;12.896774341352465;0.18185329028517022;-1.08740234375;0.60009765625;-0.1259765625;-54.0625;34.375;-206.8125;
1441975980221089;0.44384765625;-0.5078125;-0.66546630859375;-0.3199462890625;15.629088828581388;12.850894085958917;0.17790155150151865;-1.064453125;0.3974609375;-0.0556640625;-66.875;37.5;-209.4375;
1441975980237090;0.46728515625;-0.4945068359375;-0.649658203125;-0.33929443359375;16.05019985914061;12.857079040198919;0.18293505386435638;-1.11376953125;0.19970703125;0.0107421875;-42.625;43.5;-206.875;
1441975980267092;0.4871826171875;-0.484375;-0.631103515625;-0.3602294921875;16.45526246233966;12.892172389333066;0.1859180757420893;-1.22216796875;0.2314453125;0.01708984375;1.3125;47.8125;-201.875;
1441975980281093;0.5054931640625;-0.473876953125;-0.61260986328125;-0.38037109375;16.845957403441314;12.924960856022592;0.18692201410056355;-1.26806640625;0.4140625;-0.02099609375;31.625;43.1875;-198.75;
1441975980298094;0.52288818359375;-0.4625244140625;-0.5943603515625;-0.3994140625;17.226878458260522;12.954713961570002;0.1897556731843153;-1.318359375;0.451171875;-0.00537109375;31.5;39.25;-194.5;
1441975980318095;0.5377197265625;-0.45294189453125;-0.57470703125;-0.41888427734375;17.592521164045575;13.036248856083118;0.22761367809933053;-1.28955078125;0.36962890625;0.0556640625;26.75;37.875;-190.0625;
1441975980341096;0.54840087890625;-0.44671630859375;-0.55316162109375;-0.440185546875;17.934515683806413;13.637380540218695;0.7535194609755467;-1.25537109375;0.2568359375;0.07861328125;44.0;37.1875;-182.375;
1441975980357097;0.55584716796875;-0.4422607421875;-0.53106689453125;-0.46197509765625;17.74339783831017;3.9131325232019156;8.93732570274894;-1.2978515625;0.22021484375;0.0712890625;75.3125;32.5;-172.375;
1441975980379098;0.56219482421875;-0.4375;-0.50994873046875;-0.48223876953125;17.442455252953323;4.059918899687664;8.997453309033665;-1.25146484375;0.3828125;0.00634765625;92.3125;26.3125;-165.625;
1441975980401099;0.56842041015625;-0.4317626953125;-0.490234375;-0.50018310546875;17.157400550296966;4.127346005106986;8.991563150200943;-1.2314453125;0.4365234375;-0.009765625;86.75;22.8125;-158.25;
1441975980417100;0.5743408203125;-0.42529296875;-0.47222900390625;-0.5159912109375;16.891612102417813;4.179023365911894;8.982204170384483;-1.1796875;0.443359375;9.765625E-4;73.3125;21.5;-151.6875;
1441975980438102;0.5770263671875;-0.4205322265625;-0.45501708984375;-0.5322265625;16.656674062529973;4.259263547167931;8.988014948730957;-1.07080078125;0.37255859375;0.037109375;61.125;18.8125;-141.8125;
1441975980462103;0.5748291015625;-0.4183349609375;-0.4385986328125;-0.54974365234375;16.461690479268015;4.382841001806276;9.01394629666977;-1.0107421875;0.24951171875;0.08544921875;74.1875;12.0;-125.3125;
1441975980477104;0.56976318359375;-0.41949462890625;-0.4285888671875;-0.5618896484375;16.369770370212322;4.487779491126917;9.03688491937621;-0.9384765625;0.3310546875;0.064453125;98.3125;1.0625;-107.375;
1441975980498105;0.567626953125;-0.419677734375;-0.4227294921875;-0.56829833984375;16.31202642648361;4.532889637300175;9.039783582083654;-0.84619140625;0.45556640625;0.048828125;81.9375;-1.1875;-93.25;
1441975980521106;0.56878662109375;-0.41839599609375;-0.42083740234375;-0.569580078125;16.279621629442445;4.528591713029125;9.033366212855604;-0.7958984375;0.466796875;0.04150390625;41.375;1.9375;-76.3125;
1441975980539107;0.57147216796875;-0.41632080078125;-0.421875;-0.56756591796875;16.269718571595952;4.501985520119726;9.029399559493047;-0.76806640625;0.4189453125;0.0703125;0.1875;6.3125;-59.875;
1441975980558108;0.57281494140625;-0.41571044921875;-0.4248046875;-0.56451416015625;16.29312777366867;4.482463275363427;9.032853265031283;-0.75537109375;0.30078125;0.10107421875;-25.0;7.5625;-41.0;
1441975980581110;0.5711669921875;-0.41802978515625;-0.428955078125;-0.56134033203125;16.35852720047949;4.480991237441296;9.041054913510113;-0.712890625;0.2490234375;0.123046875;-25.375;7.25;-19.5;
1441975980599111;0.5660400390625;-0.4234619140625;-0.43408203125;-0.5584716796875;16.465737464668855;4.506458299888823;9.05903470886502;-0.71875;0.220703125;0.119140625;-11.375;5.3125;3.5;
1441975980619112;0.5587158203125;-0.43133544921875;-0.440673828125;-0.5546875;16.613256095091245;4.543721183425029;9.082294721310046;-0.716796875;0.22412109375;0.0888671875;6.375;1.0;25.1875;
1441975980641113;0.55023193359375;-0.4404296875;-0.44903564453125;-0.54925537109375;16.79367099950932;4.5902203631861305;9.117824523692313;-0.73876953125;0.26513671875;0.0361328125;13.8125;-2.8125;43.4375;
1441975980657114;0.541015625;-0.44989013671875;-0.458740234375;-0.54266357421875;16.993962962418735;4.661245800011892;9.181957988395542;-0.771484375;0.287109375;-0.00146484375;11.6875;-6.3125;59.5;
1441975980678115;0.5308837890625;-0.4600830078125;-0.46929931640625;-0.53509521484375;17.21300030462853;4.773527142217556;9.28789837697622;-0.78466796875;0.2626953125;-0.00537109375;8.125;-8.8125;73.0;
1441975980701117;0.519287109375;-0.4713134765625;-0.480224609375;-0.5269775390625;17.44880413102086;4.99527820034247;9.498779102968818;-0.81494140625;0.22900390625;-0.01318359375;7.5;-10.125;86.6875;
1441975980717118;0.50653076171875;-0.482421875;-0.4901123046875;-0.5201416015625;17.666627502022003;5.582369101882127;10.065401694261023;-0.87646484375;0.20556640625;-0.029296875;12.5;-11.25;99.875;
1441975980738119;0.49139404296875;-0.49505615234375;-0.5001220703125;-0.51324462890625;17.83653326712697;8.05578164869378;12.50769384341071;-0.93701171875;0.1796875;-0.0361328125;21.9375;-13.6875;112.25;
1441975980761120;0.47430419921875;-0.50921630859375;-0.5096435546875;-0.50604248046875;17.712479624562945;11.551462217829627;15.961734444977738;-0.978515625;0.16455078125;-0.0361328125;32.6875;-15.875;124.3125;
1441975980777121;0.4556884765625;-0.52471923828125;-0.51837158203125;-0.49835205078125;17.44878272453291;12.460975062825248;16.820394768665096;-1.01904296875;0.1484375;-0.04345703125;43.5625;-15.1875;135.0;
1441975980800122;0.43603515625;-0.5413818359375;-0.52618408203125;-0.4898681640625;17.157956770688607;12.836407659702973;17.13808046999124;-1.0517578125;0.1318359375;-0.04736328125;52.75;-11.9375;143.625;
1441975980821124;0.4158935546875;-0.558837890625;-0.53302001953125;-0.48028564453125;16.85539417925465;13.072317080144567;17.312507696469453;-1.0908203125;0.13818359375;-0.04345703125;59.8125;-7.125;150.75;
1441975980837124;0.3961181640625;-0.57635498046875;-0.53900146484375;-0.469482421875;16.550365374002844;13.249720729090606;17.429821411510567;-1.11181640625;0.158203125;-0.0390625;63.9375;-0.5;155.125;
1441975980860126;0.377685546875;-0.59307861328125;-0.54486083984375;-0.4569091796875;16.246091636571173;13.393025206473665;17.5233626482307;-1.1103515625;0.21484375;-0.0361328125;62.625;7.1875;155.9375;
1441975980881127;0.36126708984375;-0.60821533203125;-0.5511474609375;-0.442626953125;15.947734994370775;13.506190538713149;17.602869882674188;-1.09765625;0.26220703125;-0.0322265625;53.125;15.5;154.625;
1441975980897128;0.3470458984375;-0.62139892578125;-0.5579833984375;-0.4267578125;15.658115197165602;13.594507188621737;17.675398780666765;-1.08984375;0.2822265625;-0.021484375;37.75;23.0;151.5625;
1441975980920129;0.3350830078125;-0.63250732421875;-0.56561279296875;-0.40966796875;15.379347416109932;13.659655494294116;17.743163892906047;-1.07958984375;0.30078125;-0.01611328125;21.125;29.5;147.0;
1441975980941130;0.3255615234375;-0.64141845703125;-0.5738525390625;-0.3916015625;15.11577665699764;13.706528878883574;17.811022769287828;-1.07275390625;0.3095703125;0.0048828125;3.625;35.125;141.1875;
1441975980957131;0.31829833984375;-0.64837646484375;-0.58245849609375;-0.37298583984375;14.869256263283635;13.739139455589662;17.880101509914084;-1.04150390625;0.32275390625;-0.00634765625;-12.8125;40.1875;133.4375;
1441975980980133;0.3133544921875;-0.6531982421875;-0.59136962890625;-0.354248046875;14.644419113050139;13.757651884639461;17.95015340967192;-1.0068359375;0.3427734375;-0.0185546875;-27.5;44.5625;124.0625;
1441975981001134;0.31048583984375;-0.65594482421875;-0.60052490234375;-0.33587646484375;14.44347605148466;13.762480734288221;0.01929990578157177;-0.974609375;0.34814453125;-0.03662109375;-40.625;47.375;112.9375;
1441975981017135;0.31103515625;-0.65618896484375;-0.60870361328125;-0.31976318359375;14.296145194527183;13.759810428896616;0.08995964775907939;-0.94091796875;0.3583984375;-0.05908203125;-52.3125;48.4375;101.0625;
1441975981040136;0.31329345703125;-0.65484619140625;-0.616455078125;-0.3050537109375;14.17900204314877;13.749949679312934;0.15853587632244698;-0.9169921875;0.35400390625;-0.0791015625;-61.625;47.5625;88.25;
1441975981061137;0.3167724609375;-0.6524658203125;-0.6234130859375;-0.2921142578125;14.090716153953142;13.736875936452506;0.22351684108528747;-0.90673828125;0.34814453125;-0.09912109375;-66.75;44.9375;74.8125;
1441975981077138;0.3212890625;-0.6492919921875;-0.62939453125;-0.28125;14.032037518396065;13.722613689419184;0.28395586324339195;-0.88818359375;0.33837890625;-0.12451171875;-68.125;40.875;61.125;
1441975981100139;0.3265380859375;-0.64581298828125;-0.63409423828125;-0.2725830078125;14.000735603706463;13.711123737163401;0.33989007237542057;-0.8701171875;0.3232421875;-0.1318359375;-65.5;36.4375;47.75;
1441975981121141;0.33233642578125;-0.6422119140625;-0.6375732421875;-0.26593017578125;13.993070820033529;13.703378631083114;0.39175183748040626;-0.85009765625;0.30517578125;-0.142578125;-59.5625;32.5;34.875;
1441975981137142;0.33880615234375;-0.638671875;-0.63958740234375;-0.26129150390625;14.009625597541143;13.702666633425993;0.441764388426164;-0.82470703125;0.29052734375;-0.125;-52.25;29.5625;22.625;
1441975981160143;0.34588623046875;-0.6351318359375;-0.64044189453125;-0.25860595703125;14.04871414304225;13.707226385025404;0.4891714204431587;-0.80517578125;0.28662109375;-0.1220703125;-43.4375;27.5;10.3125;
1441975981181144;0.35345458984375;-0.63128662109375;-0.640380859375;-0.2579345703125;14.110493796331216;13.7138694297505;0.5318524417369246;-0.787109375;0.291015625;-0.11181640625;-36.0;25.3125;-2.375;
1441975981197145;0.36151123046875;-0.62725830078125;-0.63934326171875;-0.2591552734375;14.193606528898638;13.724281130563869;0.571288675275736;-0.787109375;0.2978515625;-0.09423828125;-29.375;22.5;-14.5625;
1441975981220146;0.369873046875;-0.62274169921875;-0.63775634765625;-0.26220703125;14.296552551596942;13.733909766150855;0.6047934717150927;-0.7998046875;0.31787109375;-0.0947265625;-23.6875;18.75;-26.25;
1441975981241148;0.37841796875;-0.61773681640625;-0.6356201171875;-0.26702880859375;14.418130734948356;13.742484450600168;0.6319588646839152;-0.8056640625;0.31982421875;-0.09130859375;-19.5625;14.0625;-37.0;
1441975981257148;0.38690185546875;-0.612548828125;-0.6326904296875;-0.273681640625;14.556577947333402;13.752145537229303;0.6524258821540194;-0.82177734375;0.3203125;-0.07763671875;-15.25;9.3125;-46.75;
1441975981280150;0.39501953125;-0.60723876953125;-0.62908935546875;-0.28204345703125;14.708444550481177;13.76118287826023;0.6642500239450522;-0.84765625;0.32470703125;-0.07373046875;-9.125;4.4375;-55.0625;
1441975981301151;0.40264892578125;-0.60186767578125;-0.6248779296875;-0.2918701171875;14.870678640780072;13.769042651697694;0.6673841325761521;-0.8740234375;0.328125;-0.05810546875;-1.6875;-0.375;-62.375;
1441975981317152;0.4097900390625;-0.59637451171875;-0.62017822265625;-0.30303955078125;15.042347152028583;13.773986940031328;0.6610962841467847;-0.8974609375;0.328125;-0.03662109375;4.75;-5.3125;-68.3125;
1441975981340153;0.41644287109375;-0.5909423828125;-0.61492919921875;-0.31512451171875;15.219457286971094;13.777982703274322;0.6480316432082622;-0.90771484375;0.32958984375;-0.0205078125;11.0625;-9.3125;-73.875;
1441975981361154;0.42279052734375;-0.5853271484375;-0.609375;-0.32769775390625;15.400362361309652;13.779083588873496;0.6295756534519162;-0.92578125;0.33544921875;0.00390625;16.375;-11.8125;-78.125;
1441975981377155;0.42901611328125;-0.579345703125;-0.6038818359375;-0.3402099609375;15.581759207061204;13.775092946202918;0.6073289803573305;-0.93798828125;0.34326171875;0.0205078125;19.25;-13.1875;-82.125;
1441975981400157;0.43548583984375;-0.57244873046875;-0.59881591796875;-0.35235595703125;15.76515503686418;13.761100495637223;0.5810014141680084;-0.95068359375;0.3544921875;0.02734375;18.125;-13.5625;-85.0625;
1441975981421158;0.4423828125;-0.56451416015625;-0.5946044921875;-0.363525390625;15.946162391744881;13.73437977748493;0.551722112078144;-0.97705078125;0.3671875;0.04638671875;12.3125;-13.6875;-88.25;
1441975981443159;0.449951171875;-0.5552978515625;-0.591552734375;-0.37322998046875;16.122731510101048;13.692209031170425;0.520425580672206;-0.974609375;0.36865234375;0.0419921875;2.625;-13.75;-89.4375;
1441975981460160;0.4581298828125;-0.545166015625;-0.58953857421875;-0.38140869140625;16.292485204432833;13.637220562573205;0.48821478621609904;-0.98291015625;0.37109375;0.0498046875;-11.125;-12.4375;-90.0;
1441975981481161;0.4666748046875;-0.53436279296875;-0.58843994140625;-0.387939453125;16.452278100268405;13.570536442654245;0.45478438314043645;-0.98291015625;0.35302734375;0.04296875;-23.25;-10.8125;-87.625;
1441975981503163;0.47528076171875;-0.5233154296875;-0.58758544921875;-0.39373779296875;16.60718599286511;13.493629642466372;0.41482929047685974;-0.98974609375;0.33251953125;0.03466796875;-33.6875;-9.25;-83.6875;
1441975981520163;0.48284912109375;-0.5135498046875;-0.58685302734375;-0.3984375;16.74042553549643;13.417592497728783;0.37262789278673775;-1.0009765625;0.25244140625;0.04833984375;-37.5;-8.0;-77.5625;
1441975981541165;0.4891357421875;-0.5052490234375;-0.58624267578125;-0.40228271484375;16.851274499401338;13.341956594158997;0.3257927383110849;-0.99462890625;0.259765625;0.03173828125;-34.5625;-7.0625;-69.6875;
1441975981563166;0.49554443359375;-0.4970703125;-0.5855712890625;-0.40557861328125;16.95852429368363;13.266083116028398;0.28015322757862327;-0.9833984375;0.279296875;0.0224609375;-29.8125;-6.5;-61.25;
1441975981580167;0.5008544921875;-0.49041748046875;-0.58489990234375;-0.408203125;17.046292002628064;13.19908731688759;0.23781415536390338;-1.01025390625;0.18115234375;0.02197265625;-31.0;-4.6875;-54.0;
1441975981604168;0.50439453125;-0.4859619140625;-0.5836181640625;-0.41094970703125;17.115112872872277;13.146832389134211;0.1967597472725022;-0.99462890625;0.193359375;0.01416015625;-25.25;-3.4375;-46.1875;
1441975981623169;0.50628662109375;-0.48370361328125;-0.581787109375;-0.413818359375;17.165650142325585;13.115322225000217;0.1634941909427573;-0.982421875;0.19287109375;0.01220703125;-11.9375;-3.125;-37.9375;
1441975981640170;0.50677490234375;-0.483154296875;-0.5799560546875;-0.41644287109375;17.19697382444563;13.098503983300997;0.13670421223806192;-0.9765625;0.216796875;-0.00439453125;1.125;-3.0;-30.875;
1441975981661172;0.5059814453125;-0.48394775390625;-0.57830810546875;-0.4188232421875;17.210788563322975;13.089053340422597;0.11100328832458302;-0.9580078125;0.23779296875;-0.0068359375;9.3125;-3.625;-23.5;
1441975981683173;0.504150390625;-0.48583984375;-0.5767822265625;-0.4208984375;17.209923218336723;13.089600120394214;0.09044590864952791;-0.94580078125;0.26318359375;-0.0087890625;15.75;-4.4375;-16.625;
1441975981700174;0.50164794921875;-0.48846435546875;-0.5755615234375;-0.4224853515625;17.1965333888031;13.098674077515112;0.0766976773677552;-0.935546875;0.279296875;-0.01416015625;20.1875;-5.3125;-10.5625;
1441975981722175;0.498779296875;-0.49151611328125;-0.57464599609375;-0.423583984375;17.174129583084312;13.114473418462953;0.06969866012605025;-0.92138671875;0.28515625;-0.02001953125;22.125;-5.3125;-4.6875;
1441975981744176;0.49566650390625;-0.49481201171875;-0.57415771484375;-0.424072265625;17.14302628098309;13.134311584571126;0.06834565886225041;-0.921875;0.28515625;-0.0205078125;21.9375;-5.125;0.5;
1441975981760177;0.492431640625;-0.49835205078125;-0.573974609375;-0.42401123046875;17.1050233286311;13.160605192350424;0.07486475815717367;-0.91748046875;0.27978515625;-0.0185546875;20.8125;-4.75;5.1875;
1441975981782178;0.48907470703125;-0.50201416015625;-0.5740966796875;-0.42340087890625;17.060700495459752;13.189721880526243;0.0859967411721589;-0.923828125;0.27685546875;-0.0244140625;19.1875;-4.25;9.6875;
1441975981803180;0.4857177734375;-0.5057373046875;-0.57452392578125;-0.4222412109375;17.011113538539345;13.221444924168907;0.1020352173139237;-0.92919921875;0.27197265625;-0.0244140625;17.375;-3.5625;13.875;
1441975981820181;0.482421875;-0.509521484375;-0.5751953125;-0.4205322265625;16.956931832201967;13.256762786503007;0.12396840169402033;-0.939453125;0.26513671875;-0.02392578125;15.1875;-2.75;18.0;
1441975981842182;0.47906494140625;-0.513427734375;-0.57598876953125;-0.41851806640625;16.899139320363226;13.29265593771435;0.1471884386971388;-0.94140625;0.24951171875;-0.021484375;13.1875;-1.375;21.75;
1441975981863183;0.4755859375;-0.51776123046875;-0.57684326171875;-0.416015625;16.83491332958952;13.335956488925984;0.1778247904534338;-0.9462890625;0.23486328125;-0.01171875;12.75;0.375;25.6875;
1441975981880184;0.47210693359375;-0.52227783203125;-0.5777587890625;-0.4130859375;16.76655267281878;13.382150246663214;0.21224902932037146;-0.9521484375;0.2373046875;-0.0107421875;12.9375;2.3125;29.375;
1441975981902185;0.46868896484375;-0.52691650390625;-0.5787353515625;-0.40972900390625;16.69466177885638;13.430212919335782;0.2497870983765674;-0.95751953125;0.23291015625;-0.0146484375;12.125;3.875;32.875;
1441975981923187;0.46533203125;-0.5316162109375;-0.579833984375;-0.4058837890625;16.618781216515362;13.478409761900556;0.28924150276509214;-0.958984375;0.22705078125;-0.01806640625;11.125;5.5625;35.8125;
1441975981940188;0.462158203125;-0.53643798828125;-0.5809326171875;-0.40155029296875;16.539804590189494;13.529890917469643;0.3335785171234037;-0.95166015625;0.22509765625;-0.015625;9.5;7.5625;38.6875;
1441975981962189;0.459228515625;-0.54119873046875;-0.5821533203125;-0.396728515625;16.458391866908517;13.580732620930814;0.37993411357802026;-0.9443359375;0.2236328125;-0.015625;7.9375;9.875;40.9375;
1441975981983190;0.45660400390625;-0.54583740234375;-0.5833740234375;-0.3914794921875;16.376094307930806;13.631626331312825;0.42883908962900885;-0.94384765625;0.228515625;-0.02001953125;5.9375;11.875;42.5;
1441975982000191;0.45440673828125;-0.55023193359375;-0.58465576171875;-0.385986328125;16.295223824390696;13.680232500931751;0.4782774674975938;-0.94482421875;0.2392578125;-0.03125;3.5;13.5;42.9375;
1441975982022192;0.45263671875;-0.5540771484375;-0.586181640625;-0.3802490234375;16.216703744926583;13.721751667991263;0.5248908400550532;-0.94189453125;0.24609375;-0.04052734375;0.625;14.8125;42.4375;
1441975982044193;0.45123291015625;-0.55755615234375;-0.587646484375;-0.37445068359375;16.14173326849984;13.760501454050234;0.5708874767952219;-0.93603515625;0.25146484375;-0.04345703125;-3.25;15.375;41.5625;
1441975982060194;0.4500732421875;-0.560791015625;-0.58905029296875;-0.36883544921875;16.07072040846072;13.795592539693093;0.613929713935115;-0.93212890625;0.24951171875;-0.05224609375;-5.6875;15.75;40.125;
1441975982082196;0.44915771484375;-0.56365966796875;-0.59033203125;-0.363525390625;16.005523971664246;13.826633711793262;0.6534596914113406;-0.92724609375;0.25830078125;-0.06005859375;-6.5625;15.6875;38.25;
1441975982103197;0.44842529296875;-0.566162109375;-0.59136962890625;-0.3587646484375;15.948111241847212;13.853912710561529;0.6885136618264089;-0.92626953125;0.26171875;-0.06201171875;-6.6875;15.125;35.6875;
1441975982127198;0.44793701171875;-0.56829833984375;-0.59228515625;-0.35455322265625;15.898469059438868;13.877306537048856;0.7194660885484364;-0.931640625;0.26171875;-0.068359375;-6.75;13.8125;32.6875;
1441975982142199;0.44757080078125;-0.57012939453125;-0.5927734375;-0.35113525390625;15.858507875560466;13.899000528291031;0.7463886133181926;-0.935546875;0.2626953125;-0.06982421875;-6.25;12.4375;29.125;
1441975982163200;0.44732666015625;-0.57177734375;-0.593017578125;-0.34844970703125;15.826511527174459;13.918754549546843;0.7693470687015025;-0.935546875;0.25634765625;-0.0703125;-4.5;11.0;25.5625;
1441975982180201;0.4471435546875;-0.5731201171875;-0.59295654296875;-0.3465576171875;15.803546188281912;13.935945461445204;0.7875684309273385;-0.931640625;0.25439453125;-0.06884765625;-2.125;9.5625;21.8125;
1441975982204203;0.44720458984375;-0.57421875;-0.59259033203125;-0.34521484375;15.788411604774923;13.95373385482605;0.8052773426486907;-0.9296875;0.2578125;-0.0625;-0.375;8.3125;17.8125;
1441975982224204;0.44757080078125;-0.57489013671875;-0.59210205078125;-0.34454345703125;15.782866529691532;13.96908236571074;0.8202920387774747;-0.92138671875;0.25439453125;-0.06591796875;0.625;7.0625;13.6875;
1441975982239205;0.4482421875;-0.5751953125;-0.59136962890625;-0.3443603515625;15.785534455278118;13.984634178760947;0.8352994528698626;-0.9248046875;0.2578125;-0.06298828125;1.0625;6.0;9.375;
1441975982262206;0.44915771484375;-0.5750732421875;-0.59063720703125;-0.3446044921875;15.795232622745024;13.99736511529339;0.8481537131808486;-0.9267578125;0.25927734375;-0.06298828125;0.9375;5.25;5.125;
1441975982284207;0.4505615234375;-0.57452392578125;-0.5897216796875;-0.34527587890625;15.813822013391755;14.011179215509816;0.8629253187324502;-0.92529296875;0.265625;-0.0576171875;0.625;4.625;0.8125;
1441975982299208;0.45220947265625;-0.57354736328125;-0.5887451171875;-0.3463134765625;15.839168418551942;14.023306422334674;0.8766981963120134;-0.91943359375;0.26318359375;-0.0576171875;-0.125;4.0625;-3.5;
1441975982322209;0.4542236328125;-0.572265625;-0.58770751953125;-0.34765625;15.870731538369931;14.035928560686447;0.891797470190208;-0.91796875;0.27294921875;-0.056640625;-0.875;3.375;-7.75;
1441975982344211;0.45660400390625;-0.57037353515625;-0.58673095703125;-0.34930419921875;15.909937409967492;14.045668103526314;0.90611854059317;-0.92724609375;0.28173828125;-0.06298828125;-1.875;2.8125;-11.875;
1441975982359211;0.4593505859375;-0.56805419921875;-0.585693359375;-0.351318359375;15.956559471542441;14.055008711132077;0.9210533415299982;-0.931640625;0.2802734375;-0.06103515625;-3.75;1.9375;-15.75;
1441975982382213;0.46209716796875;-0.56549072265625;-0.5845947265625;-0.35357666015625;16.00669502969321;14.062758341856846;0.9342228336038844;-0.93359375;0.2685546875;-0.0625;-4.8125;0.875;-19.0625;
1441975982404214;0.46490478515625;-0.56280517578125;-0.5833740234375;-0.35626220703125;16.06155282797495;14.070226771484064;0.9459944902940001;-0.9267578125;0.26904296875;-0.06005859375;-4.75;-0.1875;-21.625;
1441975982419215;0.46771240234375;-0.55999755859375;-0.58209228515625;-0.35906982421875;16.118261267138617;14.077496907179828;0.957395403257089;-0.93310546875;0.2666015625;-0.05859375;-3.875;-1.0;-24.0;
1441975982442216;0.47052001953125;-0.5570068359375;-0.580810546875;-0.36212158203125;16.177976496273526;14.082751706276738;0.9665856492030216;-0.93505859375;0.2705078125;-0.06005859375;-3.625;-1.8125;-25.9375;
1441975982464217;0.4732666015625;-0.5538330078125;-0.57952880859375;-0.3653564453125;16.239936712639388;14.085495879434664;0.9730940125227427;-0.9423828125;0.267578125;-0.0615234375;-3.6875;-2.875;-27.5;
1441975982479218;0.47589111328125;-0.5506591796875;-0.5782470703125;-0.36871337890625;16.302254574847638;14.086650113486437;0.9773007783310286;-0.9453125;0.2666015625;-0.05419921875;-3.375;-3.875;-28.9375;
1441975982502220;0.47833251953125;-0.54754638671875;-0.5770263671875;-0.3720703125;16.36312582885726;14.08566341271629;0.9788450956346718;-0.943359375;0.26904296875;-0.05224609375;-2.875;-4.8125;-29.9375;
1441975982524221;0.480712890625;-0.54443359375;-0.57586669921875;-0.37542724609375;16.423515967274312;14.08312841186776;0.9788372077786904;-0.94873046875;0.2763671875;-0.04833984375;-2.1875;-5.375;-30.125;
1441975982539222;0.48291015625;-0.541259765625;-0.57489013671875;-0.378662109375;16.481899437946087;14.075779812915368;0.974576481058264;-0.9453125;0.27099609375;-0.05126953125;-2.625;-5.875;-30.1875;
1441975982561223;0.4847412109375;-0.53826904296875;-0.573974609375;-0.38189697265625;16.53718406553407;14.06419328627098;0.9646914745424281;-0.94482421875;0.2646484375;-0.04150390625;-2.9375;-6.4375;-29.5625;
1441975982584224;0.4864501953125;-0.5355224609375;-0.5731201171875;-0.385009765625;16.589195300466788;14.052436748261258;0.9540948094544011;-0.94970703125;0.2685546875;-0.037109375;-1.75;-7.125;-28.375;
1441975982599225;0.48797607421875;-0.53271484375;-0.57244873046875;-0.387939453125;16.63869151452853;14.035093511407203;0.9386620616160164;-0.96240234375;0.2626953125;-0.048828125;-1.5625;-7.625;-26.875;
1441975982621226;0.489013671875;-0.53033447265625;-0.57183837890625;-0.39068603515625;16.68150893817099;14.014611329643385;0.9181944203066601;-0.96044921875;0.24853515625;-0.0380859375;-1.9375;-8.0625;-24.875;
1441975982644228;0.4896240234375;-0.52862548828125;-0.57110595703125;-0.39337158203125;16.71792525101621;13.996559338184625;0.8968098916382738;-0.947265625;0.23828125;-0.03173828125;-0.5;-8.0625;-21.8125;
1441975982659229;0.48968505859375;-0.52752685546875;-0.5704345703125;-0.39569091796875;16.744817335628607;13.978194759521493;0.8730583040571085;-0.943359375;0.22900390625;-0.03125;2.5625;-7.625;-18.125;
1441975982682230;0.48944091796875;-0.5269775390625;-0.56976318359375;-0.397705078125;16.764437299966936;13.963325312462404;0.8512372428748919;-0.94580078125;0.24072265625;-0.03173828125;5.1875;-7.1875;-14.625;
1441975982704231;0.4888916015625;-0.5267333984375;-0.56939697265625;-0.3992919921875;16.776323011977713;13.945291044540298;0.8266283458095232;-0.95263671875;0.24560546875;-0.0419921875;6.25;-6.9375;-11.6875;
1441975982720232;0.48809814453125;-0.52679443359375;-0.56903076171875;-0.40057373046875;16.782782710261593;13.929547634436085;0.8036562367954748;-0.9599609375;0.2529296875;-0.0400390625;6.25;-6.5625;-8.5;
1441975982742233;0.487060546875;-0.52734375;-0.5687255859375;-0.40167236328125;16.78336859105117;13.916422105684969;0.7818758631091178;-0.9599609375;0.248046875;-0.04150390625;6.375;-6.125;-5.5;
1441975982764235;0.4857177734375;-0.5283203125;-0.56842041015625;-0.40234375;16.776612403719227;13.907782038270714;0.7637591067783268;-0.95361328125;0.2470703125;-0.041015625;8.1875;-5.125;-2.625;
1441975982779236;0.48431396484375;-0.529541015625;-0.56829833984375;-0.402587890625;16.76421128392427;13.90199815032797;0.7493849681207253;-0.9482421875;0.2607421875;-0.0322265625;9.0625;-3.625;0.0;
1441975982801237;0.4830322265625;-0.53082275390625;-0.56842041015625;-0.40228271484375;16.747115984677915;13.899573724247984;0.7408472975841234;-0.9423828125;0.271484375;-0.0283203125;8.4375;-2.25;2.0625;
1441975982824238;0.48199462890625;-0.531982421875;-0.56884765625;-0.40142822265625;16.72685024608269;13.898934259047172;0.7376258873438658;-0.93701171875;0.275390625;-0.03369140625;6.0625;-0.9375;3.75;
1441975982840239;0.4813232421875;-0.532958984375;-0.56951904296875;-0.39996337890625;16.704199673439884;13.902396061076978;0.7425761861554661;-0.9287109375;0.27490234375;-0.03662109375;2.5625;0.3125;5.4375;
1441975982862240;0.48095703125;-0.53369140625;-0.57037353515625;-0.39813232421875;16.681230865300897;13.907105777059135;0.7519587732769277;-0.92724609375;0.271484375;-0.04052734375;-1.5;1.75;6.9375;
1441975982884242;0.48077392578125;-0.534423828125;-0.5712890625;-0.3961181640625;16.657618300483488;13.91447467644778;0.7652223312830306;-0.93408203125;0.25830078125;-0.04296875;-4.5;2.875;8.0;
1441975982900242;0.48046875;-0.5352783203125;-0.572265625;-0.3939208984375;16.631047404294762;13.921690975587344;0.7783577220297185;-0.9365234375;0.24951171875;-0.05029296875;-5.875;3.5;9.4375;
1441975982922244;0.4801025390625;-0.5362548828125;-0.57318115234375;-0.3917236328125;16.603625669288363;13.929973457614668;0.7918593365014692;-0.9384765625;0.248046875;-0.04736328125;-5.6875;4.125;10.9375;
1441975982944245;0.47955322265625;-0.53741455078125;-0.5740966796875;-0.3895263671875;16.57413665368436;13.937454557082281;0.8035074375482898;-0.94287109375;0.24365234375;-0.04638671875;-5.1875;4.25;12.5;
1441975982960246;0.47882080078125;-0.53863525390625;-0.57489013671875;-0.387451171875;16.54467488898024;13.943893133830379;0.8127309907605105;-0.95166015625;0.2333984375;-0.0498046875;-3.9375;4.1875;14.125;
1441975982982247;0.47784423828125;-0.5401611328125;-0.57562255859375;-0.38543701171875;16.512769460058607;13.950613653039472;0.8202915114209315;-0.95751953125;0.22509765625;-0.0439453125;-2.75;4.125;15.75;
1441975983004248;0.4766845703125;-0.5419921875;-0.5762939453125;-0.3834228515625;16.478277927824404;13.95873696205322;0.8276597817675813;-0.9521484375;0.22119140625;-0.04296875;-0.9375;4.25;17.375;
1441975983020249;0.475341796875;-0.54400634765625;-0.5767822265625;-0.3814697265625;16.44282357827827;13.96835443353599;0.8347832761188786;-0.95263671875;0.2216796875;-0.04248046875;1.0;4.5;18.75;
1441975983041250;0.47393798828125;-0.546142578125;-0.57720947265625;-0.3795166015625;16.406511751862126;13.978895226531016;0.8421231788814015;-0.94970703125;0.220703125;-0.04296875;2.625;4.625;19.75;
1441975983064252;0.4725341796875;-0.54840087890625;-0.57757568359375;-0.37750244140625;16.36918566193163;13.99133083923737;0.8510025470002207;-0.94873046875;0.23095703125;-0.04345703125;3.5625;5.0625;20.25;
1441975983080253;0.47125244140625;-0.5504150390625;-0.57794189453125;-0.37542724609375;16.33347393618037;14.002784158600562;0.860164057880534;-0.93896484375;0.23828125;-0.046875;3.5625;5.4375;20.125;
1441975983102254;0.47021484375;-0.5523681640625;-0.578369140625;-0.373291015625;16.298674073375825;14.015354476064537;0.8716425021559152;-0.93603515625;0.2431640625;-0.0439453125;2.6875;6.0;19.375;
1441975983124255;0.46942138671875;-0.553955078125;-0.578857421875;-0.37109375;16.26663344139438;14.026380811830201;0.8837163596010681;-0.9296875;0.2509765625;-0.0458984375;1.5625;6.625;18.25;
1441975983140256;0.468994140625;-0.55517578125;-0.5794677734375;-0.368896484375;16.238237790062122;14.036071990025498;0.896906148415802;-0.92578125;0.26123046875;-0.04541015625;-0.4375;6.8125;16.625;
1441975983161257;0.46893310546875;-0.5560302734375;-0.58001708984375;-0.3668212890625;16.215004545983764;14.046190229010817;0.9121040039375912;-0.91796875;0.26708984375;-0.05224609375;-3.0625;6.6875;14.5625;
1441975983184259;0.4691162109375;-0.55645751953125;-0.58050537109375;-0.36517333984375;16.199052783955107;14.053592728963492;0.9250849313555792;-0.92724609375;0.2705078125;-0.0615234375;-4.5625;6.4375;11.875;
1441975983200260;0.46942138671875;-0.55670166015625;-0.5809326171875;-0.36383056640625;16.187357894402105;14.059820327863337;0.9366817619737682;-0.93115234375;0.267578125;-0.0556640625;-4.9375;5.4375;9.125;
1441975983221261;0.46990966796875;-0.55657958984375;-0.58111572265625;-0.363037109375;16.183797852613584;14.06520383097631;0.9467055396490586;-0.931640625;0.275390625;-0.0625;-4.875;4.5;6.4375;
1441975983244262;0.47039794921875;-0.5562744140625;-0.5811767578125;-0.36273193359375;16.185513456166955;14.06827850113519;0.9531487333762478;-0.92578125;0.265625;-0.06787109375;-4.625;2.875;3.5;
1441975983260263;0.47088623046875;-0.55584716796875;-0.5810546875;-0.36297607421875;16.192799317416103;14.070031951387794;0.9564563296023465;-0.923828125;0.2568359375;-0.06689453125;-3.3125;1.4375;1.125;
1441975983282264;0.471435546875;-0.5552978515625;-0.5806884765625;-0.3636474609375;16.20519205248716;14.072434598905739;0.9589759425672197;-0.9228515625;0.2470703125;-0.05810546875;-1.625;0.1875;-0.8125;
1441975983304266;0.471923828125;-0.5546875;-0.580322265625;-0.36456298828125;16.21955826849927;14.072566593753299;0.9584946948122146;-0.92236328125;0.2451171875;-0.060546875;-0.1875;-0.625;-2.75;
1441975983320266;0.472412109375;-0.5538330078125;-0.58001708984375;-0.36566162109375;16.236659614295164;14.069021368672903;0.9546895656546844;-0.921875;0.25341796875;-0.0517578125;0.5625;-1.0625;-4.6875;
1441975983341268;0.47314453125;-0.55291748046875;-0.57958984375;-0.3668212890625;16.256177759115644;14.068673195335908;0.9544108021177062;-0.92431640625;0.259765625;-0.04296875;0.3125;-1.5625;-6.4375;
1441975983364269;0.47406005859375;-0.5516357421875;-0.57916259765625;-0.3681640625;16.280264311278103;14.066246020871189;0.9531116327344116;-0.93408203125;0.26416015625;-0.05419921875;-0.375;-2.0;-8.0625;
1441975983380270;0.47509765625;-0.55035400390625;-0.5787353515625;-0.36962890625;16.30589246182908;14.064411087913236;0.9523562027526867;-0.9404296875;0.259765625;-0.052734375;-1.125;-2.5625;-9.8125;
1441975983401271;0.47607421875;-0.5489501953125;-0.57818603515625;-0.37115478515625;16.332823429635717;14.062155504053683;0.9508745671765596;-0.9384765625;0.2587890625;-0.05517578125;-1.25;-2.6875;-11.25;
1441975983424272;0.47711181640625;-0.5474853515625;-0.57763671875;-0.37286376953125;16.361843849405982;14.05896656068945;0.9482468887979363;-0.93212890625;0.25732421875;-0.0517578125;-1.0;-2.9375;-12.25;
1441975983440273;0.47808837890625;-0.546142578125;-0.576904296875;-0.3746337890625;16.390854719046516;14.058256116696185;0.9468760204840982;-0.9326171875;0.25439453125;-0.04833984375;-0.375;-3.1875;-13.0625;
1441975983461275;0.47918701171875;-0.544677734375;-0.5762939453125;-0.3763427734375;16.42036198789245;14.056447526966526;0.9456283351690986;-0.9306640625;0.26220703125;-0.0556640625;0.1875;-3.3125;-13.9375;
1441975983484276;0.4803466796875;-0.543212890625;-0.57568359375;-0.37799072265625;16.449694668057546;14.055657575610837;0.9457509617550194;-0.9326171875;0.26123046875;-0.05712890625;-0.5;-3.4375;-14.8125;
1441975983500277;0.48150634765625;-0.54168701171875;-0.57501220703125;-0.379638671875;16.47960268610386;14.055185419179494;0.9462147451682491;-0.9296875;0.267578125;-0.056640625;-1.1875;-3.5;-15.4375;
1441975983522278;0.482666015625;-0.54010009765625;-0.57440185546875;-0.38134765625;16.510164907279798;14.052852213157346;0.9449807519306577;-0.93310546875;0.26611328125;-0.0634765625;-1.0625;-3.8125;-15.6875;
1441975983544279;0.4837646484375;-0.53863525390625;-0.5738525390625;-0.38287353515625;16.538070792501518;14.051102718433459;0.9445176498442466;-0.9345703125;0.2548828125;-0.05712890625;-1.25;-3.875;-15.8125;
1441975983560280;0.48492431640625;-0.537109375;-0.57330322265625;-0.38446044921875;16.567117534973416;14.049093625793025;0.9439577870740664;-0.93408203125;0.26123046875;-0.06103515625;-1.625;-3.8125;-15.5;
1441975983582281;0.48590087890625;-0.53570556640625;-0.57275390625;-0.3858642578125;16.59312365212002;14.047094555374146;0.9431041068308129;-0.9326171875;0.2509765625;-0.0546875;-1.625;-3.625;-15.25;
1441975983604283;0.48687744140625;-0.534423828125;-0.572265625;-0.38720703125;16.617695613217574;14.045712783538967;0.9428428019968824;-0.9287109375;0.251953125;-0.05810546875;-1.375;-3.4375;-14.4375;
1441975983620284;0.48779296875;-0.53338623046875;-0.57171630859375;-0.38824462890625;16.638315054224663;14.04908304318269;0.9471939002851626;-0.9287109375;0.24609375;-0.05126953125;-1.0625;-2.9375;-13.4375;
1441975983642285;0.48883056640625;-0.5323486328125;-0.57122802734375;-0.38909912109375;16.657917964274855;14.054546678339229;0.9546917539824925;-0.93212890625;0.24658203125;-0.05517578125;-1.25;-2.0625;-12.4375;
1441975983664286;0.48980712890625;-0.53143310546875;-0.57080078125;-0.3897705078125;16.6748564073687;14.060908217079675;0.9632745931823683;-0.94384765625;0.2431640625;-0.0634765625;-1.9375;-1.4375;-11.375;
1441975983680287;0.49078369140625;-0.53070068359375;-0.57037353515625;-0.39019775390625;16.68875728662435;14.071113099277555;0.9758879452832361;-0.94775390625;0.232421875;-0.0576171875;-2.3125;-0.625;-9.875;
1441975983702288;0.4915771484375;-0.5301513671875;-0.5699462890625;-0.39056396484375;16.70014807907329;14.081274100926331;0.9875915162000283;-0.947265625;0.22705078125;-0.0595703125;-2.125;0.1875;-8.0625;
1441975983724290;0.49224853515625;-0.52996826171875;-0.56939697265625;-0.39068603515625;16.707128236039683;14.097480614002206;1.0043121426059356;-0.95751953125;0.21630859375;-0.05224609375;-1.5;1.1875;-6.0625;
1441975983740290;0.49273681640625;-0.53009033203125;-0.56878662109375;-0.39080810546875;16.711452479812785;14.115369181049974;1.0211226359381194;-0.97216796875;0.21435546875;-0.05810546875;-0.3125;1.875;-3.9375;
1441975983763292;0.49285888671875;-0.530517578125;-0.56805419921875;-0.39111328125;16.713887829438118;14.131935141393502;1.0338023064844195;-0.99365234375;0.20654296875;-0.0673828125;1.25;1.875;-1.875;
1441975983784293;0.49261474609375;-0.53143310546875;-0.5670166015625;-0.3917236328125;16.71477139567733;14.151258204101856;1.045002041123487;-1.01025390625;0.18603515625;-0.06396484375;3.5;1.625;0.625;
1441975983800294;0.49163818359375;-0.53302001953125;-0.56549072265625;-0.39300537109375;16.71467398304854;14.170388741889441;1.0486126586126403;-1.00390625;0.16455078125;-0.06298828125;8.25;1.4375;3.0;
1441975983823295;0.4896240234375;-0.53564453125;-0.56341552734375;-0.3948974609375;16.709604424078538;14.189940965534346;1.0433265400232399;-0.9990234375;0.13037109375;-0.0498046875;15.25;1.125;6.1875;
1441975983844296;0.486572265625;-0.53955078125;-0.56060791015625;-0.3974609375;16.69904059254621;14.215017140918489;1.0328146876555238;-0.96337890625;0.109375;-0.03125;24.5625;0.9375;9.875;
1441975983866298;0.48199462890625;-0.54486083984375;-0.55718994140625;-0.4005126953125;16.678296128045154;14.238862266076719;1.0095007659024502;-0.93505859375;0.0810546875;-0.02783203125;35.125;0.5;14.5625;
1441975983883299;0.47637939453125;-0.55133056640625;-0.553466796875;-0.40350341796875;16.645979446575016;14.264740890692842;0.9811907831668915;-0.90966796875;0.0908203125;-0.01708984375;46.75;0.125;19.0625;
1441975983904300;0.470458984375;-0.5576171875;-0.5504150390625;-0.4058837890625;16.60682073496834;14.27784364360485;0.943453366591572;-0.88330078125;0.1396484375;-0.021484375;53.625;0.0;21.75;
1441975983920301;0.465576171875;-0.5625;-0.54827880859375;-0.40777587890625;16.574804561649724;14.28082585019829;0.9066490634010431;-0.8740234375;0.21142578125;-0.00341796875;50.625;0.25;21.0625;
1441975983943302;0.46136474609375;-0.5660400390625;-0.546875;-0.40948486328125;16.550712201419636;14.270594436330867;0.8650740198412704;-0.875;0.2236328125;0.0107421875;39.625;0.5;17.1875;
1441975983964303;0.45721435546875;-0.56903076171875;-0.54541015625;-0.4119873046875;16.536621563320875;14.252866035979345;0.8152718940572292;-0.88671875;0.22265625;0.02978515625;31.75;-0.5;14.0625;
1441975983987305;0.45245361328125;-0.57220458984375;-0.54327392578125;-0.4156494140625;16.529454034349456;14.232691335839865;0.7554339332729869;-0.888671875;0.1982421875;0.04931640625;32.1875;-2.9375;12.0;
1441975984003306;0.4471435546875;-0.57574462890625;-0.54034423828125;-0.42034912109375;16.527763883578277;14.214737723170007;0.6898795606962841;-0.88525390625;0.1943359375;0.0712890625;39.8125;-4.8125;9.625;
1441975984024307;0.4412841796875;-0.57989501953125;-0.53668212890625;-0.425537109375;16.525694686183158;14.203801458080127;0.6244641461420991;-0.86669921875;0.19384765625;0.07568359375;47.5;-7.125;6.75;
1441975984046308;0.4354248046875;-0.583984375;-0.5330810546875;-0.43035888671875;16.520889167675502;14.194053466643101;0.5616267481070668;-0.8486328125;0.220703125;0.0771484375;54.625;-6.75;4.6875;
1441975984063309;0.43023681640625;-0.587158203125;-0.53021240234375;-0.43487548828125;16.51988333297383;14.174693072527687;0.4967648793203897;-0.822265625;0.26806640625;0.0712890625;53.3125;-6.8125;2.1875;
1441975984084310;0.42596435546875;-0.5892333984375;-0.52813720703125;-0.438720703125;16.521902869587723;14.148198311256028;0.43480964308467407;-0.7880859375;0.291015625;0.06591796875;45.875;-7.9375;-1.375;
1441975984106311;0.4227294921875;-0.58984375;-0.52685546875;-0.44256591796875;16.534548122571557;14.106623140335513;0.3673315378245002;-0.75634765625;0.30517578125;0.05126953125;35.5625;-9.1875;-4.875;
1441975984123312;0.419677734375;-0.58978271484375;-0.52545166015625;-0.44720458984375;16.55774907204107;14.0541449990563;0.2888070613169914;-0.76025390625;0.2666015625;0.04248046875;25.3125;-12.25;-7.5;
1441975984144314;0.41558837890625;-0.59027099609375;-0.523193359375;-0.4530029296875;16.583171181058212;13.996237512895867;0.1944587007230891;-0.7861328125;0.197265625;0.033203125;24.6875;-17.0;-7.25;
1441975984167315;0.41021728515625;-0.591796875;-0.51995849609375;-0.45953369140625;16.6039955896544;13.940787236317494;0.09090055049682232;-0.80126953125;0.15966796875;0.02587890625;34.5625;-21.25;-5.6875;
1441975984183316;0.40423583984375;-0.59405517578125;-0.51617431640625;-0.46612548828125;16.619279238750643;13.892537598894144;17.988869884534893;-0.796875;0.1611328125;0.0361328125;45.75;-22.0;-3.9375;
1441975984204317;0.397705078125;-0.59722900390625;-0.511962890625;-0.47235107421875;16.625257627705412;13.858100084678107;17.89618575431706;-0.77783203125;0.1513671875;0.0498046875;52.1875;-20.125;-1.3125;
1441975984226318;0.39105224609375;-0.6009521484375;-0.5078125;-0.47760009765625;16.620437467533787;13.838237055266724;17.819017401843805;-0.75634765625;0.1630859375;0.06396484375;56.75;-16.3125;1.0625;
1441975984243319;0.384765625;-0.60479736328125;-0.5042724609375;-0.48162841796875;16.6060328406945;13.828529742439859;17.75792613918449;-0.7294921875;0.1865234375;0.06494140625;56.6875;-12.0625;4.1875;
1441975984264320;0.37994384765625;-0.6077880859375;-0.50164794921875;-0.484375;16.592031420979588;13.824453435581427;17.715493173786843;-0.74365234375;0.23193359375;0.05419921875;50.6875;-8.4375;5.5;
1441975984286322;0.3763427734375;-0.610107421875;-0.49951171875;-0.48651123046875;16.582575642407768;13.824265598028036;17.685654512182918;-0.75146484375;0.228515625;0.04931640625;38.4375;-4.9375;5.375;
1441975984303323;0.37286376953125;-0.612548828125;-0.49688720703125;-0.48883056640625;16.57695665030683;13.831576890413505;17.661365244283118;-0.7724609375;0.19140625;0.0439453125;29.75;-2.375;5.625;
1441975984324324;0.36932373046875;-0.61578369140625;-0.49365234375;-0.49072265625;16.567432741571164;13.860861078248023;17.655965827709704;-0.76220703125;0.15185546875;0.04150390625;31.6875;-1.125;6.25;
1441975984346325;0.36602783203125;-0.61962890625;-0.489990234375;-0.49200439453125;16.554584801924566;13.911785726321025;17.671608354391566;-0.7158203125;0.1513671875;0.03466796875;35.6875;3.0625;6.75;
1441975984363326;0.3631591796875;-0.6239013671875;-0.4859619140625;-0.49273681640625;16.540203600641927;13.981772730593653;17.7068042277244;-0.65673828125;0.1513671875;0.03662109375;36.5;9.0625;7.0;
1441975984384327;0.3603515625;-0.62872314453125;-0.4815673828125;-0.49298095703125;16.521349908000726;14.067238126133216;17.75632236269384;-0.6240234375;0.13916015625;0.02197265625;36.875;12.875;7.125;
1441975984406329;0.35797119140625;-0.63336181640625;-0.477294921875;-0.492919921875;16.502537012519575;14.154330522015307;17.810444800848806;-0.62158203125;0.16650390625;-0.0126953125;37.6875;15.4375;6.4375;
1441975984423330;0.35614013671875;-0.6378173828125;-0.4725341796875;-0.49310302734375;16.490891363620893;14.24791822231992;17.871102861212307;-0.64404296875;0.1953125;-0.037109375;35.0625;15.6875;4.625;
1441975984444331;0.35430908203125;-0.64215087890625;-0.4671630859375;-0.493896484375;16.485921716300812;14.34251821547851;17.92957520279525;-0.6875;0.19287109375;-0.078125;34.375;14.5625;0.4375;
1441975984466332;0.35205078125;-0.64715576171875;-0.460693359375;-0.4951171875;16.48151070424854;14.4509514878029;17.99419298992291;-0.71533203125;0.1875;-0.08984375;37.6875;13.25;-1.9375;
1441975984483333;0.3494873046875;-0.65216064453125;-0.45416259765625;-0.496337890625;16.474509738321743;14.556320927668406;0.0545214838793448;-0.76611328125;0.20751953125;-0.12109375;45.0625;12.875;-3.8125;
1441975984504334;0.34747314453125;-0.6561279296875;-0.44873046875;-0.4974365234375;16.470176267547487;14.64225512452727;0.10364409363964226;-0.83740234375;0.25244140625;-0.16064453125;46.1875;11.0;-5.0;
1441975984526335;0.3455810546875;-0.659423828125;-0.4442138671875;-0.49847412109375;16.465918439845748;14.710082354561205;0.13984763593673813;-0.87060546875;0.2421875;-0.1728515625;37.1875;7.1875;-4.5;
1441975984542336;0.34368896484375;-0.6619873046875;-0.44036865234375;-0.49981689453125;16.465654943404978;14.75921632732578;0.16060847945450013;-0.9130859375;0.22314453125;-0.19970703125;31.4375;3.0625;-1.5;
1441975984564338;0.34130859375;-0.66424560546875;-0.4368896484375;-0.50152587890625;16.46638266864565;14.7922745820796;0.16474122432424051;-0.9814453125;0.20849609375;-0.22119140625;27.0;-2.4375;0.0;
1441975984586339;0.339111328125;-0.66583251953125;-0.4342041015625;-0.503173828125;16.46877905855656;14.81017731702601;0.158701360305828;-1.0478515625;0.22509765625;-0.25537109375;26.5;-7.9375;1.375;
1441975984618341;0.33740234375;-0.66680908203125;-0.4326171875;-0.50445556640625;16.47047488651426;14.814393512487706;0.14658843048500922;-1.05078125;0.19921875;-0.251953125;21.1875;-10.5625;3.375;
1441975984624341;0.33612060546875;-0.66705322265625;-0.43182373046875;-0.505615234375;16.47485451582842;14.806014120889879;0.1279691311092505;-1.0205078125;0.1806640625;-0.251953125;13.0;-12.0625;5.3125;
1441975984648342;0.3348388671875;-0.6669921875;-0.43133544921875;-0.5069580078125;16.48137305446815;14.789037572166517;0.10207049250790082;-0.99169921875;0.1376953125;-0.248046875;6.5625;-14.1875;7.3125;
1441975984662343;0.3333740234375;-0.66729736328125;-0.43072509765625;-0.508056640625;16.483305318361406;14.776635902810945;0.07943050442404992;-0.97802734375;0.11767578125;-0.24169921875;4.9375;-16.125;8.4375;
1441975984685345;0.3321533203125;-0.66796875;-0.4296875;-0.50885009765625;16.483373514589854;14.77876122274573;0.07055443176476653;-0.98486328125;0.1650390625;-0.26904296875;6.1875;-16.3125;6.5;
1441975984700345;0.33154296875;-0.668212890625;-0.4285888671875;-0.50982666015625;16.490542780839853;14.783565360719443;0.06678464865554445;-1.0244140625;0.21728515625;-0.32470703125;7.25;-16.0625;3.25;
1441975984722347;0.33111572265625;-0.66851806640625;-0.4271240234375;-0.510986328125;16.500965444577172;14.795242500057421;0.0687201725953104;-1.0517578125;0.1982421875;-0.33056640625;4.1875;-16.4375;1.125;
1441975984745348;0.33056640625;-0.66888427734375;-0.4251708984375;-0.512451171875;16.514563463479806;14.811390297517775;0.072222435541973;-1.0810546875;0.17529296875;-0.33544921875;5.9375;-16.25;0.6875;
1441975984766349;0.329833984375;-0.66925048828125;-0.42303466796875;-0.51422119140625;16.530316952327652;14.826196149200054;0.0724548946769439;-1.0869140625;0.16845703125;-0.330078125;8.5;-16.0;-0.4375;
1441975984782350;0.3287353515625;-0.66961669921875;-0.42059326171875;-0.5164794921875;16.549239793436282;14.837994224689252;0.0663018193982434;-1.08154296875;0.1572265625;-0.30810546875;10.8125;-15.8125;-0.5;
1441975984805351;0.3267822265625;-0.6707763671875;-0.41754150390625;-0.51861572265625;16.560638214196548;14.8573389557515;0.0611796875073849;-1.107421875;0.13427734375;-0.28662109375;14.5;-16.375;0.375;
1441975984826353;0.32415771484375;-0.6727294921875;-0.41510009765625;-0.519775390625;16.55436834546567;14.873490857793264;0.053051678574796535;-1.107421875;0.1416015625;-0.2841796875;20.8125;-14.375;3.0;
1441975984842354;0.3223876953125;-0.67401123046875;-0.4141845703125;-0.51995849609375;16.54309723600915;14.876964273451991;0.04405075385241706;-1.08740234375;0.20947265625;-0.302734375;21.125;-12.3125;6.375;
1441975984865355;0.3216552734375;-0.67462158203125;-0.4136962890625;-0.52001953125;16.538229493298186;14.880943576465729;0.04234705525160029;-1.0732421875;0.208984375;-0.29052734375;9.125;-10.5;8.4375;
1441975984886356;0.3206787109375;-0.6754150390625;-0.41217041015625;-0.52069091796875;16.539575312699498;14.895381745747123;0.04494449682077264;-1.06982421875;0.15478515625;-0.2666015625;2.6875;-8.625;8.625;
1441975984902357;0.31787109375;-0.67767333984375;-0.40850830078125;-0.5223388671875;16.538794229954615;14.927481269030476;0.046175176101538914;-1.07958984375;0.0908203125;-0.24560546875;8.75;-7.6875;9.8125;
1441975984925358;0.3123779296875;-0.681640625;-0.4031982421875;-0.524658203125;16.52643783113315;14.963628757187045;0.031269529935616124;-1.09326171875;0.072265625;-0.24951171875;27.6875;-7.375;12.25;
1441975984948360;0.30548095703125;-0.68603515625;-0.39788818359375;-0.527099609375;16.50617436786808;14.986039172728503;17.996532339172024;-1.0908203125;0.1259765625;-0.2724609375;47.375;-9.625;15.75;
1441975984962360;0.29962158203125;-0.68927001953125;-0.393310546875;-0.52960205078125;16.495666870686797;14.9989180320459;17.96075298535708;-1.07861328125;0.2138671875;-0.28125;53.5;-11.9375;15.3125;
1441975984985362;0.2945556640625;-0.691650390625;-0.38909912109375;-0.532470703125;16.495574782188687;15.005469960942172;17.923745704227546;-1.0986328125;0.20947265625;-0.2705078125;44.875;-13.875;12.375;
1441975985006363;0.2891845703125;-0.6932373046875;-0.38330078125;-0.53753662109375;16.52175929278762;15.00982474420248;17.875009845243117;-1.14111328125;0.18310546875;-0.2451171875;40.1875;-14.5625;10.5;
1441975985022364;0.2808837890625;-0.6959228515625;-0.3746337890625;-0.54449462890625;16.553063072207213;15.019161893419891;17.804651594250522;-1.220703125;0.06689453125;-0.2119140625;48.875;-21.0625;9.1875;
1441975985045365;0.27081298828125;-0.69891357421875;-0.3638916015625;-0.55303955078125;16.594423934047324;15.028767354918552;17.717138415849387;-1.28271484375;0.1015625;-0.22802734375;74.6875;-27.625;7.875;
1441975985066366;0.25848388671875;-0.7017822265625;-0.35247802734375;-0.5626220703125;16.63613781183743;15.008674582108174;17.58766438252479;-1.29541015625;0.12353515625;-0.24755859375;91.6875;-35.125;3.5625;
1441975985082367;0.24346923828125;-0.7059326171875;-0.338623046875;-0.572509765625;16.669168293183226;15.001203543860472;17.449245796376797;-1.36083984375;0.14599609375;-0.31982421875;104.8125;-39.8125;0.3125;
1441975985113369;0.2261962890625;-0.7100830078125;-0.32269287109375;-0.5836181640625;16.708383709548638;14.983239881333215;17.282285107282874;-1.35693359375;0.171875;-0.30615234375;126.625;-38.75;3.375;
1441975985126370;0.2071533203125;-0.71466064453125;-0.30487060546875;-0.59454345703125;16.74284920797842;14.975541859414058;17.111566650319368;-1.47265625;0.20068359375;-0.2119140625;144.125;-43.375;3.375;
1441975985142371;0.1878662109375;-0.720458984375;-0.28802490234375;-0.60235595703125;16.742804197617634;14.995673508964375;16.974325349074654;-1.45849609375;0.20654296875;-0.115234375;158.875;-40.4375;4.9375;
1441975985165372;0.1710205078125;-0.7296142578125;-0.27459716796875;-0.6025390625;16.668656341145578;15.116079365899168;16.96563612507397;-1.451171875;0.3642578125;-0.09033203125;154.375;-24.875;13.5625;
1441975985186373;0.15533447265625;-0.74176025390625;-0.2652587890625;-0.59613037109375;16.517479816852116;15.275108328930365;17.020268953137965;-1.287109375;0.359375;-0.060546875;129.375;19.1875;30.6875;
1441975985203374;0.1488037109375;-0.7540283203125;-0.27532958984375;-0.57757568359375;16.233753363104796;15.334505811653692;17.10124160400139;-1.61767578125;0.45458984375;0.01318359375;107.3125;57.6875;53.625;
1441975985225375;0.146240234375;-0.7523193359375;-0.26580810546875;-0.5848388671875;16.326691506259817;15.367467506509435;17.0801475727864;-1.216796875;1.11669921875;0.42724609375;-13.4375;112.9375;88.0625;
1441975985255377;0.12091064453125;-0.7764892578125;-0.25006103515625;-0.565673828125;15.986455162961297;15.652834622067822;17.197905800460095;-2.00830078125;-0.82421875;0.24951171875;52.875;-33.0;-33.4375;
1441975985262378;0.11090087890625;-0.80157470703125;-0.23883056640625;-0.536865234375;15.600349486853553;15.978122413227478;17.442506973413437;-0.9560546875;-0.46923828125;-0.88232421875;168.4375;127.25;117.375;
1441975985285379;0.11651611328125;-0.81976318359375;-0.24603271484375;-0.50390625;15.206316985936724;16.119326549625317;17.65107357993912;-1.00390625;1.8359375;-1.00048828125;98.4375;203.0625;66.8125;
1441975985306380;0.11322021484375;-0.83697509765625;-0.24517822265625;-0.47607421875;14.84685425613727;16.232437741403793;17.759143935713915;-1.21630859375;0.095703125;-1.0400390625;-50.6875;202.375;57.8125;
1441975985323381;0.103515625;-0.851806640625;-0.23974609375;-0.4542236328125;14.542503810232954;16.31801250240545;17.79060252147024;-1.2822265625;0.2216796875;-0.611328125;17.375;176.875;67.25;
1441975985353383;0.0950927734375;-0.8636474609375;-0.2325439453125;-0.4371337890625;14.30548984260965;16.40000924734758;17.813750256975943;-0.80322265625;0.32763671875;-0.619140625;58.6875;132.8125;71.9375;
1441975985374384;0.08831787109375;-0.87017822265625;-0.2281494140625;-0.4278564453125;14.17045100679226;16.437748020426675;17.807916933449892;-0.72314453125;0.3603515625;-0.71142578125;62.375;103.5625;51.8125;
1441975985384385;0.08380126953125;-0.86962890625;-0.22412109375;-0.43194580078125;14.206994069252884;16.44570885413253;17.776722480425477;-0.52294921875;0.20703125;-0.60595703125;36.6875;41.4375;38.5625;
1441975985413386;0.07574462890625;-0.866455078125;-0.2164306640625;-0.44354248046875;14.326046322520714;16.45133055545744;17.708648236314556;-0.75048828125;0.0927734375;-0.3583984375;27.6875;-17.5625;18.5625;
1441975985428387;0.06549072265625;-0.85821533203125;-0.2071533203125;-0.465087890625;14.56280338310522;16.427078768503776;17.591269815602768;-1.02685546875;0.1806640625;-0.50927734375;55.1875;-64.25;16.875;
1441975985442388;0.04638671875;-0.844482421875;-0.189208984375;-0.49896240234375;14.934207040480997;16.37976922040324;17.374433148671965;-0.93896484375;-0.25;-0.4189453125;66.6875;-134.875;5.3125;
1441975985465389;0.02276611328125;-0.824951171875;-0.16717529296875;-0.53948974609375;15.38526700678447;16.2620479344919;17.054559194042582;-1.05517578125;-0.12353515625;-0.19091796875;133.625;-214.625;7.375;
1441975985488390;-2.44140625E-4;-0.80535888671875;-0.14056396484375;-0.57598876953125;15.805935525930316;16.132716152933053;16.71274754350071;-0.8173828125;0.13330078125;-0.08642578125;164.625;-268.1875;3.9375;
1441975985502391;-0.02081298828125;-0.78314208984375;-0.11700439453125;-0.6104736328125;16.202615446861735;15.872800373689469;16.267646248985592;-0.70947265625;0.48388671875;-0.07177734375;185.4375;-249.625;-15.875;
1441975985525393;-0.03753662109375;-0.7572021484375;-0.103515625;-0.6439208984375;16.530171389898232;15.303620858358123;15.57322800851087;-0.4267578125;0.81640625;0.0302734375;162.6875;-246.8125;-22.3125;
1441975985548394;-0.04925537109375;-0.73583984375;-0.09716796875;-0.66839599609375;16.690952748994114;14.638851323672146;14.834269002137248;-0.2373046875;0.8759765625;0.2978515625;101.4375;-248.1875;-5.0625;
1441975985562395;-0.0584716796875;-0.72625732421875;-0.11590576171875;-0.67510986328125;16.523493419748405;14.200013578709903;14.434705092018012;-0.19921875;1.11962890625;0.17529296875;55.75;-190.0625;-0.375;
1441975985600397;-0.0640869140625;-0.73040771484375;-0.14105224609375;-0.665283203125;16.249321924911587;14.222822328998017;14.538460037001101;-0.509765625;0.90576171875;0.00927734375;-46.25;-62.25;57.125;
1441975985606397;-0.0711669921875;-0.73834228515625;-0.16925048828125;-0.6490478515625;15.910474628046996;14.316591361644932;14.720979117517057;-0.84521484375;0.80859375;-0.55908203125;-78.5625;53.5;116.5625;
1441975985622398;-0.08099365234375;-0.743408203125;-0.1905517578125;-0.63604736328125;15.616935906238913;14.351568585853414;14.805665737592845;-1.40087890625;0.52099609375;-0.9560546875;-83.0;89.375;147.625;
1441975985645399;-0.09747314453125;-0.74505615234375;-0.203125;-0.62786865234375;15.362646678067968;14.34488757458977;14.784933414103035;-1.5;0.21044921875;-0.98828125;-49.3125;60.3125;138.3125;
1441975985674401;-0.116455078125;-0.74749755859375;-0.21185302734375;-0.6187744140625;15.112244996339857;14.370752805924388;14.770163990803088;-1.10791015625;0.0341796875;-0.6015625;7.75;21.625;131.625;
1441975985696402;-0.13140869140625;-0.74676513671875;-0.21185302734375;-0.61669921875;14.991369076680483;14.368787772391673;14.706441188140111;-0.5703125;0.43994140625;-0.33349609375;37.625;26.9375;119.6875;
1441975985720404;-0.15057373046875;-0.74761962890625;-0.2188720703125;-0.6087646484375;14.759121414387552;14.385798534620475;14.674057877016983;-0.46923828125;0.06689453125;0.02099609375;54.8125;-5.9375;78.6875;
1441975985735405;-0.1641845703125;-0.746826171875;-0.22894287109375;-0.6025390625;14.555429548314933;14.370336191935337;14.64509743352623;-1.0791015625;0.5966796875;-0.1142578125;45.0625;20.4375;116.5;
1441975985742405;-0.1748046875;-0.74639892578125;-0.23486328125;-0.59771728515625;14.4104131387192;14.369451784495059;14.62529399243144;-0.83349609375;0.4697265625;-0.091796875;9.1875;16.625;103.0;
1441975985765406;-0.18408203125;-0.7467041015625;-0.242919921875;-0.59130859375;14.25179579933959;14.373983210509182;14.625773972691265;-0.7646484375;0.24755859375;-0.15771484375;12.1875;11.3125;88.5625;
1441975985788408;-0.1907958984375;-0.7474365234375;-0.251220703125;-0.584716796875;14.109233606356614;14.380655401665319;14.64036386339539;-0.6728515625;0.4208984375;-0.1923828125;1.875;21.625;79.4375;
1441975985810409;-0.191162109375;-0.75;-0.25543212890625;-0.57952880859375;14.049108837081901;14.406249858849298;14.683004790067118;-0.6357421875;0.4375;-0.16064453125;-5.8125;29.875;68.125;
1441975985825410;-0.18701171875;-0.75189208984375;-0.25823974609375;-0.5771484375;14.046531610484928;14.41801500666702;14.724790058111001;-0.98193359375;0.49169921875;-0.19091796875;-8.5625;38.1875;35.375;
1441975985848411;-0.1788330078125;-0.75152587890625;-0.2645263671875;-0.57733154296875;14.063327121299581;14.387999670123122;14.75696918983091;-1.28466796875;0.62451171875;-0.291015625;-24.0625;28.1875;13.6875;
1441975985869412;-0.16912841796875;-0.75103759765625;-0.26898193359375;-0.57891845703125;14.112067642446421;14.357725057128828;14.787097967643493;-1.09375;0.35693359375;-0.314453125;-63.375;14.6875;12.75;
1441975985885413;-0.15899658203125;-0.75103759765625;-0.26898193359375;-0.58172607421875;14.20164876177674;14.34332610097906;14.815086351435227;-0.72509765625;0.16259765625;-0.2802734375;-63.375;5.25;-7.1875;
1441975985910415;-0.14654541015625;-0.75048828125;-0.26715087890625;-0.58648681640625;14.331841982529088;14.323513576799622;14.83897056821252;-0.67138671875;0.298828125;-0.31689453125;-45.8125;-5.5;-36.75;
1441975985929416;-0.12933349609375;-0.74920654296875;-0.26617431640625;-0.59259033203125;14.499019930292103;14.288993798476978;14.871301627537964;-0.68994140625;0.4189453125;-0.32373046875;-47.0;-14.75;-62.3125;
1441975985945417;-0.10455322265625;-0.74603271484375;-0.26678466796875;-0.6011962890625;14.726150393552974;14.222066449203563;14.908708089852027;-0.70361328125;0.51513671875;-0.279296875;-66.125;-13.3125;-88.0;
1441975985968418;-0.073486328125;-0.742431640625;-0.2681884765625;-0.60955810546875;14.995302713563653;14.152779672786988;14.972270877926334;-0.63671875;0.5869140625;-0.23779296875;-98.8125;-11.375;-117.8125;
1441975985989419;-0.0380859375;-0.7392578125;-0.2705078125;-0.6156005859375;15.280908832248167;14.105120022947673;15.078536962445236;-0.62548828125;0.51806640625;-0.330078125;-125.4375;-3.5;-141.1875;
1441975986005420;-0.00201416015625;-0.736083984375;-0.27197265625;-0.61993408203125;15.570654250350474;14.085698610713733;15.21163232285303;-0.54150390625;0.38134765625;-0.375;-143.375;13.375;-151.9375;
1441975986028421;0.0362548828125;-0.73388671875;-0.2723388671875;-0.621337890625;15.868659809678437;14.133036536109076;15.415827381860002;-0.47802734375;0.32470703125;-0.39599609375;-141.9375;21.3125;-155.5;
1441975986049423;0.07672119140625;-0.72991943359375;-0.27398681640625;-0.62158203125;16.16870385311299;14.2114139242891;15.666125522300037;-0.43310546875;0.4873046875;-0.45068359375;-143.25;39.25;-167.625;
1441975986071424;0.1134033203125;-0.7235107421875;-0.27734375;-0.6219482421875;16.432529045322756;14.2792129864286;15.898643951307937;-0.607421875;0.35302734375;-0.517578125;-159.75;40.0;-167.8125;
1441975986095425;0.14447021484375;-0.7156982421875;-0.2806396484375;-0.623046875;16.662446358007116;14.330747298616929;16.09243824527229;-0.74267578125;0.2744140625;-0.4326171875;-156.4375;25.375;-145.9375;
1441975986109426;0.17022705078125;-0.7091064453125;-0.28289794921875;-0.62310791015625;16.849623684189183;14.428440487124353;16.30690732641493;-0.7626953125;0.21435546875;-0.35791015625;-137.5625;9.5;-124.625;
1441975986125427;0.1917724609375;-0.70587158203125;-0.28533935546875;-0.61944580078125;16.966590532995653;14.646461460745353;16.626339752509132;-0.85205078125;0.26171875;-0.322265625;-112.625;11.3125;-104.625;
1441975986148428;0.21142578125;-0.70269775390625;-0.2886962890625;-0.61505126953125;17.052202746285904;14.890848126672923;16.96916152384028;-0.84912109375;0.27978515625;-0.33251953125;-98.3125;17.0;-85.375;
1441975986169429;0.2281494140625;-0.69921875;-0.293212890625;-0.61083984375;17.10987954516674;15.09694720988885;17.267047912913895;-0.85205078125;0.2353515625;-0.3134765625;-95.6875;17.6875;-71.25;
1441975986185430;0.2410888671875;-0.696044921875;-0.2991943359375;-0.60662841796875;17.135162716621025;15.22283990379419;17.475460736000436;-0.9267578125;0.232421875;-0.26611328125;-89.375;13.75;-56.0;
1441975986208432;0.25244140625;-0.69219970703125;-0.30694580078125;-0.6025390625;17.149065351744625;15.266907154525281;17.603565574878296;-0.91162109375;0.26025390625;-0.25;-80.75;7.4375;-38.125;
1441975986229433;0.26544189453125;-0.68695068359375;-0.3148193359375;-0.59881591796875;17.18074088082652;15.322541899923124;17.751488168295772;-0.91357421875;0.2685546875;-0.23828125;-83.1875;0.5;-27.6875;
1441975986245434;0.280029296875;-0.6806640625;-0.32244873046875;-0.59527587890625;17.22687067777034;15.415332941143618;17.94292463437794;-0.9482421875;0.1650390625;-0.2255859375;-91.4375;-2.0625;-29.0625;
1441975986268435;0.29522705078125;-0.67364501953125;-0.33135986328125;-0.591064453125;17.26915937163769;15.500638641141471;0.13620144024584113;-0.98974609375;0.10009765625;-0.2001953125;-98.0;-1.125;-33.875;
1441975986289436;0.31085205078125;-0.66693115234375;-0.34161376953125;-0.58477783203125;17.28876397854695;15.59703602931198;0.35015891656128656;-1.02099609375;0.056640625;-0.1904296875;-106.4375;4.5625;-31.6875;
1441975986305437;0.324951171875;-0.66021728515625;-0.3529052734375;-0.5780029296875;17.29597035073533;15.626148007261257;0.49597241439922846;-1.02197265625;0.048828125;-0.181640625;-116.125;11.8125;-24.25;
1441975986328439;0.3388671875;-0.6519775390625;-0.36431884765625;-0.57220458984375;17.321130651651067;15.621551750770287;0.6089133816510113;-0.98486328125;-0.01318359375;-0.10693359375;-116.0625;10.625;-12.9375;
1441975986349440;0.35150146484375;-0.642333984375;-0.374267578125;-0.569091796875;17.378243236220193;15.590352717015605;0.6829486576400792;-0.974609375;-0.11376953125;-0.0693359375;-116.8125;1.75;-15.1875;
1441975986365441;0.36077880859375;-0.632568359375;-0.38092041015625;-0.56982421875;17.465875155495805;15.526714344105555;0.6935620013302018;-0.99951171875;-0.11865234375;-0.013671875;-105.0625;-12.0625;-23.3125;
1441975986388442;0.3675537109375;-0.62396240234375;-0.38671875;-0.571044921875;17.54385830578293;15.391582365398417;0.6175390259888938;-0.98486328125;-0.12158203125;-0.0185546875;-74.75;-24.625;-20.5;
1441975986409443;0.37066650390625;-0.61773681640625;-0.3916015625;-0.572509765625;17.59611440094572;15.126224182883169;0.3898906642907946;-0.9521484375;-0.1298828125;0.01220703125;-59.9375;-25.8125;-12.75;
1441975986425444;0.37200927734375;-0.61383056640625;-0.39453125;-0.57379150390625;17.62771323381046;14.890118564519579;0.1741060812012899;-0.9541015625;-0.1025390625;0.0361328125;-38.3125;-23.6875;-0.4375;
1441975986447445;0.37213134765625;-0.612060546875;-0.39739990234375;-0.57366943359375;17.627545591812073;14.683213379060845;17.981544946051457;-0.93701171875;-0.150390625;0.0224609375;-21.375;-17.0;8.125;
1441975986469447;0.37176513671875;-0.6112060546875;-0.40167236328125;-0.57177734375;17.598934628636034;14.482120838804079;17.79979677757503;-0.986328125;-0.02001953125;0.0400390625;-14.6875;-6.75;10.875;
1441975986485447;0.37176513671875;-0.6094970703125;-0.4078369140625;-0.5692138671875;17.56175329420937;14.233813036897425;17.58188697164309;-1.0068359375;0.10009765625;0.05029296875;-19.25;-0.6875;15.125;
1441975986507449;0.372802734375;-0.60687255859375;-0.4141845703125;-0.5667724609375;17.532968956594367;14.01274877825068;17.397130462031956;-0.9931640625;0.1064453125;0.14306640625;-30.3125;1.5625;20.25;
1441975986536450;0.37335205078125;-0.6046142578125;-0.41937255859375;-0.5650634765625;17.508191893857084;13.827483524091242;17.240147020066026;-0.96923828125;0.0517578125;0.193359375;-35.6875;3.375;18.75;
1441975986545451;0.37237548828125;-0.60406494140625;-0.42303466796875;-0.5634765625;17.473836396372313;13.721823674271999;17.14836388896502;-0.97607421875;0.0498046875;0.24853515625;-27.3125;7.0;16.375;
1441975986567452;0.3712158203125;-0.60498046875;-0.42596435546875;-0.56103515625;17.430916822834728;13.719678646574435;17.155637531797826;-1.00634765625;0.07666015625;0.2626953125;-12.875;12.25;18.6875;
1441975986590453;0.37109375;-0.60638427734375;-0.4298095703125;-0.5567626953125;17.376823687106928;13.782583000042811;17.237580197929827;-0.9912109375;0.103515625;0.25048828125;-7.625;20.5;20.9375;
1441975986605454;0.3729248046875;-0.60760498046875;-0.4345703125;-0.55035400390625;17.31790463270669;13.899675802046769;17.38864970508896;-0.9609375;0.15283203125;0.2216796875;-16.75;27.25;22.875;
1441975986627456;0.37713623046875;-0.60821533203125;-0.4405517578125;-0.54205322265625;17.25691158128949;14.040325876016055;17.581102482314524;-0.91796875;0.16552734375;0.1943359375;-31.4375;35.0625;23.0;
1441975986650457;0.383056640625;-0.60797119140625;-0.4471435546875;-0.53271484375;17.1984412051701;14.176773928496743;17.78151592213497;-0.8671875;0.16796875;0.17041015625;-48.5;41.6875;21.8125;
1441975986679459;0.38970947265625;-0.6070556640625;-0.45355224609375;-0.52337646484375;17.146374743165094;14.29683408870211;17.968995580750402;-0.84130859375;0.13623046875;0.1533203125;-60.5625;45.125;21.5;
1441975986687459;0.39532470703125;-0.60638427734375;-0.4591064453125;-0.51507568359375;17.096603750164867;14.388054484578095;0.11840233614708735;-0.84765625;0.0888671875;0.12548828125;-63.9375;43.75;20.4375;
1441975986710460;0.39923095703125;-0.60675048828125;-0.46337890625;-0.50775146484375;17.04306513065592;14.465937778279214;0.23987779324470856;-0.8330078125;0.044921875;0.1103515625;-55.125;39.75;22.625;
1441975986725461;0.40191650390625;-0.60791015625;-0.467041015625;-0.50079345703125;16.982896851587114;14.530671208085549;0.3394640029977676;-0.82177734375;0.05322265625;0.09228515625;-40.9375;36.4375;24.25;
1441975986747462;0.40411376953125;-0.609375;-0.47052001953125;-0.4940185546875;16.91992144590763;14.583480179458178;0.4237826133659765;-0.81201171875;0.0947265625;0.06982421875;-32.125;34.75;25.375;
1441975986770464;0.40667724609375;-0.61041259765625;-0.47369384765625;-0.48760986328125;16.86464187012533;14.632783616923845;0.5049734294598682;-0.83740234375;0.1357421875;0.05810546875;-28.9375;33.8125;24.25;
1441975986785465;0.4088134765625;-0.61102294921875;-0.47662353515625;-0.48211669921875;16.81774297769786;14.662324026418098;0.5630519645414399;-0.8837890625;0.13720703125;0.0400390625;-29.1875;32.1875;21.75;
1441975986808466;0.4102783203125;-0.6114501953125;-0.47943115234375;-0.47747802734375;16.776057026504972;14.67239357754201;0.597449733581372;-0.9228515625;0.134765625;0.0439453125;-26.0;28.3125;19.75;
1441975986830467;0.4111328125;-0.6119384765625;-0.482177734375;-0.473388671875;16.73585724103224;14.669763574541177;0.6154732311907056;-0.9345703125;0.140625;0.05419921875;-22.125;24.0625;19.4375;
1441975986851468;0.41180419921875;-0.6123046875;-0.48480224609375;-0.4696044921875;16.698458672266227;14.662931486040538;0.627874621060247;-0.94140625;0.1552734375;0.0498046875;-18.625;20.75;19.3125;
1441975986867469;0.41229248046875;-0.6126708984375;-0.48736572265625;-0.466064453125;16.662404725846283;14.652817145728028;0.6356055975101564;-0.9404296875;0.16064453125;0.037109375;-17.5;18.1875;18.6875;
1441975986890471;0.41290283203125;-0.61273193359375;-0.48992919921875;-0.4627685546875;16.630775772247745;14.640076323558164;0.641263982264132;-0.93798828125;0.171875;0.01806640625;-16.0;15.9375;18.0625;
1441975986911472;0.41363525390625;-0.6124267578125;-0.4925537109375;-0.45965576171875;16.603289827056702;14.623675406428745;0.644326945297239;-0.9384765625;0.18505859375;0.0048828125;-17.0625;13.8125;15.8125;
1441975986927473;0.4144287109375;-0.6116943359375;-0.495361328125;-0.4569091796875;16.58112742950888;14.5992884800571;0.6403367194213919;-0.94091796875;0.21533203125;-0.01220703125;-18.25;11.25;12.375;
1441975986951474;0.41552734375;-0.61029052734375;-0.49835205078125;-0.45458984375;16.56734628620263;14.567658467900742;0.6312748688793621;-0.9716796875;0.24609375;-0.02392578125;-19.375;7.875;9.0625;
1441975986971475;0.41705322265625;-0.6080322265625;-0.50146484375;-0.4527587890625;16.56425952831206;14.529071707359478;0.6179361346284764;-0.994140625;0.2578125;-0.04052734375;-22.0625;4.0625;5.75;
1441975986987476;0.41851806640625;-0.60546875;-0.5047607421875;-0.45123291015625;16.56449606551198;14.482144055770501;0.59663385266411;-1.015625;0.23681640625;-0.04345703125;-24.8125;0.6875;3.1875;
1441975987010478;0.42022705078125;-0.602294921875;-0.50830078125;-0.4498291015625;16.56961734276452;14.427866447573859;0.5707936115513377;-1.017578125;0.24365234375;-0.03662109375;-25.6875;-1.5625;1.5625;
1441975987031479;0.4224853515625;-0.5986328125;-0.51202392578125;-0.44842529296875;16.579498464534847;14.37258262658022;0.5475040083046225;-1.00341796875;0.23046875;-0.01318359375;-28.0;-2.375;0.3125;
1441975987047480;0.425048828125;-0.5946044921875;-0.51593017578125;-0.44683837890625;16.590842985766113;14.315407029817004;0.5252954447885767;-0.97607421875;0.20703125;0.0078125;-31.5625;-1.5;-1.0;
1441975987070481;0.42779541015625;-0.5906982421875;-0.51983642578125;-0.44482421875;16.598921409893798;14.264361293109417;0.5106004646470856;-0.95068359375;0.19091796875;0.03466796875;-34.3125;0.25;-1.5;
1441975987091482;0.4307861328125;-0.58685302734375;-0.5238037109375;-0.4423828125;16.604310293021687;14.218964404935495;0.5034775377703202;-0.93603515625;0.201171875;0.0302734375;-35.4375;1.875;-1.0625;
1441975987107483;0.43389892578125;-0.5830078125;-0.5277099609375;-0.43975830078125;16.609129974483402;14.17726661934633;0.5007403993817278;-0.94287109375;0.21435546875;0.0244140625;-36.875;3.0625;-1.5;
1441975987130484;0.437255859375;-0.57891845703125;-0.5321044921875;-0.43658447265625;16.610731109020385;14.132650105905583;0.4994772622162457;-0.9423828125;0.2197265625;0.00634765625;-38.375;3.0;-1.5625;
1441975987151486;0.4404296875;-0.5750732421875;-0.53643798828125;-0.43310546875;16.607904199505764;14.091721772058158;0.5013540396876861;-0.9111328125;0.19287109375;0.0126953125;-42.3125;3.625;0.8125;
1441975987167486;0.44317626953125;-0.57232666015625;-0.53997802734375;-0.42962646484375;16.5993810744963;14.069563351089359;0.5153062714242349;-0.8642578125;0.166015625;0.01708984375;-42.0625;5.125;4.0625;
1441975987190488;0.44525146484375;-0.5704345703125;-0.5426025390625;-0.4266357421875;16.589413637535362;14.058411552104314;0.5318084324772832;-0.85546875;0.16650390625;-0.0048828125;-35.1875;6.5;6.3125;
1441975987211489;0.4468994140625;-0.5692138671875;-0.54449462890625;-0.424072265625;16.579178459227716;14.056859611674103;0.5513973346288589;-0.8671875;0.1767578125;-0.03515625;-27.3125;5.4375;6.5625;
1441975987227490;0.4483642578125;-0.56829833984375;-0.54583740234375;-0.42205810546875;16.57229960889932;14.060221847336082;0.5713232761913114;-0.90869140625;0.2216796875;-0.083984375;-21.375;2.9375;4.5625;
1441975987250491;0.44970703125;-0.56695556640625;-0.546875;-0.42108154296875;16.576164176617475;14.05426887992501;0.5789378415609446;-0.99267578125;0.2685546875;-0.13916015625;-17.3125;-1.0;0.8125;
1441975987271492;0.45050048828125;-0.565185546875;-0.5478515625;-0.42132568359375;16.58897403889193;14.028584442186244;0.5627641757983447;-1.0634765625;0.29248046875;-0.17822265625;-15.3125;-6.9375;-4.125;
1441975987287493;0.45086669921875;-0.5631103515625;-0.54864501953125;-0.4227294921875;16.610444614870293;13.987369797728235;0.5268251953569995;-1.0732421875;0.29296875;-0.169921875;-11.9375;-13.25;-7.6875;
1441975987310495;0.45062255859375;-0.56103515625;-0.54913330078125;-0.425048828125;16.636187974720468;13.93426751490576;0.473713211489346;-1.03857421875;0.2734375;-0.142578125;-8.0625;-17.375;-10.1875;
1441975987331496;0.44989013671875;-0.55926513671875;-0.549072265625;-0.42822265625;16.665345849667826;13.877402504176386;0.41049869647206244;-1.0029296875;0.24267578125;-0.11328125;-2.8125;-19.8125;-11.125;
1441975987347497;0.44866943359375;-0.55792236328125;-0.5489501953125;-0.4315185546875;16.689833778927508;13.81689598025285;0.34047870263504393;-0.96240234375;0.1923828125;-0.0771484375;3.8125;-19.875;-10.125;
1441975987370498;0.4473876953125;-0.55718994140625;-0.54852294921875;-0.43426513671875;16.707486935703567;13.771301020584144;0.28414640277999453;-0.9091796875;0.169921875;-0.01904296875;7.4375;-17.125;-7.5;
1441975987391499;0.44549560546875;-0.5579833984375;-0.54736328125;-0.43658447265625;16.713204141013485;13.752437365091971;0.24751051345217834;-0.8701171875;0.13818359375;-0.00439453125;9.5;-12.625;-3.375;
1441975987407500;0.4429931640625;-0.5596923828125;-0.546142578125;-0.43853759765625;16.708017266030645;13.742579882210812;0.21636136447675072;-0.86767578125;0.13671875;-0.02392578125;16.5625;-9.0625;2.0;
1441975987430502;0.4400634765625;-0.5623779296875;-0.54443359375;-0.440185546875;16.695126713049365;13.75093807178913;0.1988460351784228;-0.8974609375;0.15185546875;-0.02880859375;20.1875;-7.3125;6.8125;
1441975987451503;0.43609619140625;-0.56610107421875;-0.54315185546875;-0.44091796875;16.662335252609495;13.763210617271428;0.18310773442977005;-0.91650390625;0.15576171875;-0.0859375;24.3125;-7.875;10.5;
1441975987475504;0.43182373046875;-0.57012939453125;-0.54248046875;-0.44073486328125;16.61710509632297;13.775919361608903;0.17041192862134194;-0.91845703125;0.2353515625;-0.111328125;26.0;-8.5;15.4375;
1441975987490505;0.4283447265625;-0.5738525390625;-0.5416259765625;-0.44036865234375;16.577810349786606;13.797896614620807;0.17013951489852883;-0.9248046875;0.2802734375;-0.12548828125;23.75;-7.9375;18.875;
1441975987511506;0.4244384765625;-0.578369140625;-0.53948974609375;-0.44085693359375;16.543332550402294;13.833962977397443;0.17424203353545512;-0.994140625;0.24951171875;-0.15576171875;19.75;-7.4375;19.625;
1441975987527507;0.41949462890625;-0.58404541015625;-0.53668212890625;-0.44158935546875;16.501138345051128;13.878289807872862;0.17756323049255882;-1.03125;0.1904296875;-0.16064453125;29.75;-5.5;22.0;
1441975987550508;0.41302490234375;-0.5914306640625;-0.53253173828125;-0.44281005859375;16.450030420054926;13.938091268098482;0.18160900305100675;-1.01953125;0.18603515625;-0.1064453125;39.75;-1.8125;26.4375;
1441975987573510;0.4052734375;-0.60015869140625;-0.52716064453125;-0.44464111328125;16.393728153723167;14.00824816330097;0.18298749194071004;-0.974609375;0.19873046875;-0.095703125;54.5;1.1875;29.75;
1441975987594511;0.39654541015625;-0.6097412109375;-0.5213623046875;-0.4464111328125;16.328549115736614;14.080942240427781;0.18035042292118922;-0.9248046875;0.220703125;-0.06201171875;68.3125;3.75;30.4375;
1441975987610512;0.38751220703125;-0.61956787109375;-0.5155029296875;-0.447509765625;16.255709806929673;14.155777924003086;0.1797369420030444;-0.88232421875;0.2763671875;-0.048828125;75.375;5.75;31.125;
1441975987633513;0.37957763671875;-0.6290283203125;-0.509765625;-0.44769287109375;16.18364981654491;14.238405564049456;0.19398624364111167;-0.86865234375;0.33447265625;-0.04541015625;76.1875;8.8125;30.6875;
1441975987647514;0.37255859375;-0.63726806640625;-0.505126953125;-0.44720458984375;16.11387999732731;14.306023450824673;0.20441777673480294;-0.87158203125;0.3818359375;-0.0947265625;69.3125;11.625;26.875;
1441975987669515;0.3675537109375;-0.64337158203125;-0.50225830078125;-0.4459228515625;16.054034141428158;14.354474449040467;0.21524439597367484;-0.8876953125;0.421875;-0.1123046875;57.875;10.8125;23.9375;
1441975987693517;0.36395263671875;-0.648193359375;-0.50048828125;-0.44378662109375;15.998097456014369;14.39462736281479;0.23123645180245672;-0.88330078125;0.42822265625;-0.12109375;38.4375;9.875;19.1875;
1441975987714518;0.36187744140625;-0.65155029296875;-0.5;-0.44110107421875;15.949408399328526;14.422801212901703;0.24941962427972714;-0.87109375;0.44384765625;-0.142578125;24.9375;10.8125;15.5;
1441975987729519;0.3609619140625;-0.6533203125;-0.50103759765625;-0.4381103515625;15.907842674934166;14.431972864735314;0.2621006079966585;-0.87939453125;0.44482421875;-0.15234375;11.1875;10.125;12.375;
1441975987753520;0.36114501953125;-0.65380859375;-0.50311279296875;-0.434814453125;15.87316897087554;14.429986369664864;0.27459237717660395;-0.87255859375;0.4296875;-0.15234375;-3.125;7.875;10.625;
1441975987774521;0.36199951171875;-0.6534423828125;-0.50579833984375;-0.4315185546875;15.844676854908894;14.420193914728301;0.28562439371961523;-0.9052734375;0.4208984375;-0.158203125;-14.25;6.75;9.25;
1441975987790522;0.36322021484375;-0.65228271484375;-0.50885009765625;-0.42864990234375;15.824625745826044;14.401601965985394;0.2911770271542907;-0.955078125;0.39208984375;-0.158203125;-20.5625;5.75;10.125;
1441975987813523;0.36383056640625;-0.6512451171875;-0.5115966796875;-0.42645263671875;15.80698314452676;14.37969575632429;0.2884341259532589;-1.02880859375;0.3251953125;-0.14404296875;-24.6875;3.75;12.875;
1441975987834525;0.36334228515625;-0.65118408203125;-0.51361083984375;-0.42449951171875;15.782532168462886;14.36355046431307;0.2824211053697839;-1.0654296875;0.271484375;-0.10546875;-19.875;3.4375;17.5625;
1441975987849526;0.36212158203125;-0.6519775390625;-0.51507568359375;-0.42254638671875;15.751363608980526;14.354157118697616;0.2768361287044068;-1.03515625;0.275390625;-0.07421875;-10.5;4.9375;20.9375;
1441975987873527;0.3599853515625;-0.6536865234375;-0.51617431640625;-0.42034912109375;15.709635102861508;14.349826084328496;0.2704589753547766;-0.97802734375;0.27783203125;-0.044921875;-2.875;7.25;22.4375;
1441975987894528;0.35772705078125;-0.65570068359375;-0.517578125;-0.41741943359375;15.658820070651187;14.347071051987138;0.26735885986681623;-0.91943359375;0.3134765625;-0.02880859375;3.0625;9.4375;24.375;
1441975987910529;0.355712890625;-0.65777587890625;-0.51934814453125;-0.4136962890625;15.601536775316184;14.346161058522947;0.2699793499908115;-0.875;0.34814453125;-0.02197265625;2.25;11.875;25.4375;
1441975987933530;0.3543701171875;-0.65911865234375;-0.5220947265625;-0.4093017578125;15.543240736699955;14.337983932076472;0.2743137124130428;-0.86669921875;0.3955078125;-0.04833984375;-1.375;13.4375;25.6875;
1441975987954532;0.3541259765625;-0.659423828125;-0.52545166015625;-0.40460205078125;15.492013655415711;14.325340370451588;0.28322617442987996;-0.8623046875;0.40576171875;-0.06982421875;-10.5;12.9375;25.375;
1441975987969532;0.35382080078125;-0.65972900390625;-0.52838134765625;-0.4005126953125;15.446715339728133;14.313998956170936;0.29030342185997365;-0.8955078125;0.3935546875;-0.087890625;-20.0625;12.75;24.0625;
1441975987993534;0.35284423828125;-0.6611328125;-0.53009033203125;-0.39691162109375;15.399870883653582;14.315021508846913;0.29951010737422257;-0.89990234375;0.34033203125;-0.08349609375;-17.25;11.5625;25.1875;
1441975988014535;0.35076904296875;-0.66339111328125;-0.53094482421875;-0.393798828125;15.34914665237587;14.320773129827579;0.30363955586711566;-0.9072265625;0.341796875;-0.11572265625;-7.9375;11.0;26.625;
1441975988029536;0.3475341796875;-0.66644287109375;-0.53082275390625;-0.3917236328125;15.299294211625885;14.329708846353107;0.29922857840613526;-0.900390625;0.3583984375;-0.1328125;1.3125;8.5625;28.25;
1441975988053537;0.343505859375;-0.66998291015625;-0.52984619140625;-0.39044189453125;15.251607348539617;14.341919731307668;0.28936221799632333;-0.87939453125;0.3828125;-0.12841796875;12.4375;4.9375;27.3125;
1441975988074538;0.33905029296875;-0.67352294921875;-0.52880859375;-0.38958740234375;15.205196131943078;14.350924670886307;0.27353639470820174;-0.8447265625;0.40283203125;-0.13330078125;20.625;2.4375;25.1875;
1441975988089539;0.3345947265625;-0.67718505859375;-0.52752685546875;-0.38897705078125;15.160955593647408;14.362055953584974;0.25803074997646763;-0.80029296875;0.41796875;-0.12158203125;23.125;-0.4375;23.5625;
1441975988113541;0.33050537109375;-0.6807861328125;-0.52667236328125;-0.3873291015625;15.109416820952637;14.374547529342223;0.2493016096034141;-0.7861328125;0.42431640625;-0.125;24.9375;-0.4375;22.125;
1441975988133542;0.32708740234375;-0.68359375;-0.52667236328125;-0.38525390625;15.0594991553369;14.380068506189023;0.24173753675211634;-0.76318359375;0.46240234375;-0.12890625;20.5625;3.6875;22.0625;
1441975988149543;0.32415771484375;-0.68597412109375;-0.5262451171875;-0.3841552734375;15.023692764680167;14.38609486370802;0.2334162789219749;-0.77099609375;0.46044921875;-0.1279296875;12.8125;4.375;21.9375;
1441975988173544;0.32080078125;-0.6884765625;-0.5255126953125;-0.38348388671875;14.98930897653701;14.391963263067694;0.22107477785984295;-0.7939453125;0.43603515625;-0.12060546875;13.9375;2.3125;18.125;
1441975988194545;0.317138671875;-0.69140625;-0.5245361328125;-0.382568359375;14.949913931051729;14.401558581284872;0.2101414750949789;-0.80126953125;0.45361328125;-0.10791015625;17.875;1.5625;17.5;
1441975988210546;0.3140869140625;-0.69378662109375;-0.5240478515625;-0.38140869140625;14.913171885348596;14.407819572762268;0.20152744552689394;-0.76513671875;0.49169921875;-0.13232421875;19.8125;1.3125;16.5625;
1441975988233547;0.31158447265625;-0.69586181640625;-0.52392578125;-0.3797607421875;14.875917182542734;14.413488195753457;0.19738347808465292;-0.77978515625;0.4931640625;-0.12548828125;14.875;2.625;15.75;
1441975988254549;0.30975341796875;-0.69744873046875;-0.5242919921875;-0.3778076171875;14.840833425500232;14.416567271960776;0.19653763663572577;-0.7783203125;0.5068359375;-0.140625;10.125;4.25;14.6875;
1441975988269550;0.30828857421875;-0.69879150390625;-0.52484130859375;-0.37579345703125;14.807941656049174;14.418686162512714;0.19734217563672204;-0.79150390625;0.5126953125;-0.14794921875;4.5625;5.3125;13.75;
1441975988293551;0.30682373046875;-0.70013427734375;-0.52532958984375;-0.37384033203125;14.775734009351819;14.421079756066288;0.1980581870345887;-0.79150390625;0.51220703125;-0.15478515625;1.9375;5.5;12.8125;
1441975988314552;0.30548095703125;-0.70172119140625;-0.525634765625;-0.37152099609375;14.740593105495496;14.427669451188288;0.20307940199995422;-0.78857421875;0.5234375;-0.1630859375;2.0;5.0625;12.0625;
1441975988329553;0.30419921875;-0.70367431640625;-0.52587890625;-0.3685302734375;14.698689086969324;14.43856185518479;0.21318976723714628;-0.77978515625;0.53173828125;-0.171875;2.75;7.5625;12.375;
1441975988352554;0.30303955078125;-0.70562744140625;-0.5262451171875;-0.365234375;14.654550883417613;14.449573796193548;0.22502487942160815;-0.779296875;0.55517578125;-0.1875;2.25;10.1875;13.3125;
1441975988374556;0.3017578125;-0.70745849609375;-0.52679443359375;-0.36199951171875;14.610238798740374;14.457642547806113;0.23428133720537528;-0.78271484375;0.564453125;-0.1962890625;1.125;11.5;14.375;
1441975988389556;0.30029296875;-0.70928955078125;-0.5274658203125;-0.35870361328125;14.564015220619972;14.463985855213597;0.24176907939338027;-0.78173828125;0.56640625;-0.19091796875;0.5625;11.0;15.0625;
1441975988403557;0.29876708984375;-0.7110595703125;-0.5283203125;-0.35504150390625;14.514133281854622;14.469119052843652;0.2495708089342746;-0.7744140625;0.5712890625;-0.18798828125;0.625;10.875;16.375;
1441975988425558;0.297119140625;-0.71307373046875;-0.52935791015625;-0.350830078125;14.457302320517753;14.474714472796032;0.2588433822025035;-0.75830078125;0.56298828125;-0.18701171875;-0.875;11.875;18.125;
1441975988449560;0.2955322265625;-0.71514892578125;-0.5303955078125;-0.3463134765625;14.397937255190454;14.481281606132043;0.2699430224373294;-0.73486328125;0.5732421875;-0.18701171875;-1.3125;13.5625;20.5625;
1441975988463561;0.29376220703125;-0.71746826171875;-0.5313720703125;-0.341552734375;14.334484988545714;14.488991806486966;0.28137920068858985;-0.736328125;0.56494140625;-0.19580078125;-2.375;15.125;22.1875;
1441975988486562;0.29205322265625;-0.71966552734375;-0.5323486328125;-0.33685302734375;14.272414298717077;14.49590736796387;0.2924004254111945;-0.7451171875;0.5849609375;-0.2119140625;-1.5;15.6875;23.8125;
1441975988509563;0.2900390625;-0.72210693359375;-0.53289794921875;-0.3323974609375;14.210636138391974;14.505057757708409;0.30191150083532586;-0.7626953125;0.5751953125;-0.2265625;-2.6875;15.1875;25.1875;
1441975988523564;0.28753662109375;-0.72503662109375;-0.5330810546875;-0.32794189453125;14.14477766123882;14.516948869680437;0.3099842114743685;-0.763671875;0.56201171875;-0.2236328125;0.8125;14.9375;27.125;
1441975988546565;0.284912109375;-0.72808837890625;-0.5333251953125;-0.32305908203125;14.073822907401244;14.529015793717459;0.31881667355275234;-0.7509765625;0.576171875;-0.2353515625;4.8125;14.5;28.25;
1441975988569567;0.282470703125;-0.73089599609375;-0.53375244140625;-0.31805419921875;14.003442729583982;14.539248749418135;0.32801632846422735;-0.73046875;0.6015625;-0.24267578125;4.25;15.8125;28.75;
1441975988583567;0.2799072265625;-0.7337646484375;-0.5340576171875;-0.31317138671875;13.933403446764345;14.549636337791624;0.3360476676311233;-0.72119140625;0.587890625;-0.24560546875;2.25;16.0;29.6875;
1441975988605569;0.27716064453125;-0.73699951171875;-0.5338134765625;-0.30841064453125;13.862988856120287;14.564152010034135;0.34439455023598753;-0.7109375;0.57666015625;-0.228515625;3.75;17.0;30.5;
1441975988629570;0.2742919921875;-0.7403564453125;-0.53338623046875;-0.30364990234375;13.79170298100898;14.579648674216205;0.35232214730336925;-0.71044921875;0.58447265625;-0.24072265625;7.6875;17.1875;30.8125;
1441975988645571;0.27142333984375;-0.74346923828125;-0.53302001953125;-0.29931640625;13.725035646879116;14.592744414231001;0.35753651267094305;-0.69970703125;0.6005859375;-0.2587890625;8.6875;16.25;30.3125;
1441975988674573;0.26873779296875;-0.7464599609375;-0.532470703125;-0.295166015625;13.661862546912278;14.606558136263333;0.3632713122052824;-0.69873046875;0.59765625;-0.25634765625;8.75;14.8125;29.875;
1441975988689574;0.2659912109375;-0.7496337890625;-0.53179931640625;-0.290771484375;13.595619605651642;14.621801981132723;0.3699279705286866;-0.6845703125;0.57666015625;-0.26025390625;8.5625;14.6875;28.8125;
1441975988704574;0.263427734375;-0.75262451171875;-0.53125;-0.28643798828125;13.531417508317718;14.635697648624662;0.3765830814953355;-0.677734375;0.591796875;-0.26416015625;9.3125;16.125;29.5;
1441975988725576;0.26092529296875;-0.75543212890625;-0.53057861328125;-0.28253173828125;13.47230996951352;14.649010794617393;0.38175990695330075;-0.6748046875;0.5927734375;-0.26953125;8.125;15.875;28.8125;
1441975988749577;0.25848388671875;-0.75799560546875;-0.52984619140625;-0.27923583984375;13.42008776547866;14.660964487168862;0.38456756248052093;-0.67578125;0.59814453125;-0.28125;8.375;13.9375;27.5;
1441975988763578;0.25604248046875;-0.7606201171875;-0.52880859375;-0.2762451171875;13.370893492471733;14.674553713494234;0.3869294583896389;-0.681640625;0.59765625;-0.28564453125;8.75;11.75;25.5625;
1441975988785579;0.25347900390625;-0.763427734375;-0.52740478515625;-0.2735595703125;13.323671264202092;14.690297432920033;0.3883862137126019;-0.6845703125;0.603515625;-0.29150390625;10.4375;11.0625;24.25;
1441975988809580;0.2508544921875;-0.76611328125;-0.52606201171875;-0.27105712890625;13.278138787061488;14.704695436642611;0.38828498675101375;-0.67041015625;0.61376953125;-0.30810546875;12.9375;9.4375;23.1875;
1441975988823581;0.2481689453125;-0.768798828125;-0.52471923828125;-0.26861572265625;13.232826824878837;14.71876285185339;0.38742486323977704;-0.6611328125;0.62744140625;-0.2998046875;13.6875;8.5625;22.0;
1441975988845582;0.24578857421875;-0.77099609375;-0.523681640625;-0.26641845703125;13.192825292196144;14.729572859065511;0.3860763517398517;-0.64306640625;0.64990234375;-0.30517578125;14.125;8.3125;20.5;
1441975988868584;0.2432861328125;-0.7733154296875;-0.5225830078125;-0.26422119140625;13.151787289086005;14.740842751316695;0.3841727186801062;-0.6396484375;0.6298828125;-0.29345703125;11.4375;7.375;19.375;
1441975988891585;0.24090576171875;-0.77520751953125;-0.52203369140625;-0.26171875;13.109395530417224;14.74776917596148;0.3822218957249477;-0.62646484375;0.64208984375;-0.30322265625;12.0625;6.9375;19.25;
1441975988905586;0.23876953125;-0.7769775390625;-0.5216064453125;-0.25933837890625;13.069747863693157;14.753964638230991;0.3808256991407829;-0.61181640625;0.666015625;-0.30517578125;8.5;7.125;18.25;
1441975988928587;0.2366943359375;-0.77880859375;-0.52105712890625;-0.25689697265625;13.029840397905422;14.761302460306;0.3803281777728621;-0.61376953125;0.6552734375;-0.314453125;6.75;6.875;18.0625;
1441975988951589;0.2347412109375;-0.780517578125;-0.52044677734375;-0.2547607421875;12.993964939521696;14.768526347188958;0.37942970212712185;-0.61572265625;0.66064453125;-0.3232421875;6.875;7.5;17.9375;
1441975988965589;0.23297119140625;-0.78216552734375;-0.51983642578125;-0.25262451171875;12.959328274919136;14.775935322323585;0.37951652816811277;-0.6171875;0.6474609375;-0.32080078125;7.25;7.0625;17.375;
1441975988988591;0.2310791015625;-0.78369140625;-0.51934814453125;-0.25054931640625;12.924850809653162;14.781799607986274;0.37819880908562514;-0.62158203125;0.64111328125;-0.33251953125;6.125;7.0625;17.25;
1441975989003592;0.2294921875;-0.78515625;-0.51885986328125;-0.24859619140625;12.893411765839495;14.78802440937089;0.3781701747009616;-0.60546875;0.64697265625;-0.3310546875;5.5625;6.0;16.9375;
1441975989026593;0.2279052734375;-0.78668212890625;-0.51806640625;-0.24664306640625;12.862184744719762;14.796248911635722;0.3788525372692678;-0.60498046875;0.63525390625;-0.330078125;5.25;6.4375;15.75;
1441975989049594;0.2264404296875;-0.7880859375;-0.5174560546875;-0.24481201171875;12.832940670706387;14.803090896643512;0.3792465872956584;-0.59375;0.638671875;-0.33203125;6.5625;6.8125;15.1875;
1441975989063595;0.22515869140625;-0.78924560546875;-0.51702880859375;-0.2431640625;12.80702329573893;14.808221237779003;0.3794138118009361;-0.587890625;0.64697265625;-0.33740234375;5.75;6.375;13.75;
1441975989085596;0.2242431640625;-0.7901611328125;-0.5167236328125;-0.24176025390625;12.786091538657482;14.812371765902382;0.38037954051232403;-0.587890625;0.65087890625;-0.3388671875;3.9375;5.5;12.5625;
1441975989109598;0.22332763671875;-0.7911376953125;-0.51611328125;-0.24066162109375;12.768196332698249;14.818258076939431;0.3809928256554227;-0.59619140625;0.62890625;-0.34326171875;1.8125;4.8125;11.5;
1441975989123598;0.22247314453125;-0.7921142578125;-0.5155029296875;-0.2396240234375;12.751203569432123;14.824212024128359;0.38172937976541454;-0.59619140625;0.62841796875;-0.33154296875;4.3125;5.0;10.4375;
1441975989145600;0.221923828125;-0.79290771484375;-0.51495361328125;-0.23876953125;12.738153528035157;14.829679824476461;0.3833193434195886;-0.58837890625;0.64892578125;-0.33935546875;4.9375;4.3125;8.875;
1441975989169601;0.2216796875;-0.79339599609375;-0.5145263671875;-0.238037109375;12.728819411640567;14.833936506951671;0.3857474083730367;-0.58447265625;0.6357421875;-0.33837890625;3.375;4.3125;7.5625;
1441975989183602;0.2215576171875;-0.7939453125;-0.5140380859375;-0.23748779296875;12.721724800018848;14.838871350488535;0.3884354782382321;-0.58447265625;0.6318359375;-0.3349609375;1.875;4.25;5.3125;
1441975989206603;0.22149658203125;-0.79461669921875;-0.51324462890625;-0.23712158203125;12.716633620643906;14.845995303780644;0.39161089766582974;-0.580078125;0.63330078125;-0.33447265625;2.8125;3.8125;4.125;
1441975989228604;0.221435546875;-0.79522705078125;-0.51239013671875;-0.23699951171875;12.714108934798418;14.853067680748161;0.394028117635513;-0.580078125;0.6396484375;-0.349609375;3.875;3.125;3.0;
1441975989243605;0.22137451171875;-0.795654296875;-0.51171875;-0.23687744140625;12.711985095356596;14.858435590405735;0.3958950124254327;-0.580078125;0.642578125;-0.35302734375;4.25;2.1875;2.0;
1441975989265606;0.221435546875;-0.7960205078125;-0.51104736328125;-0.237060546875;12.71359535221659;14.86362254158066;0.3973915950018113;-0.5751953125;0.65234375;-0.35107421875;3.5625;1.625;1.0625;
1441975989289608;0.221435546875;-0.79632568359375;-0.510498046875;-0.2373046875;12.715505250116806;14.867702816623815;0.39800739832048077;-0.5751953125;0.65478515625;-0.34814453125;3.625;0.6875;-0.1875;
1441975989303609;0.22137451171875;-0.79669189453125;-0.50982666015625;-0.23760986328125;12.7175949859877;14.87252873069191;0.3983744982800584;-0.57421875;0.6689453125;-0.3427734375;3.875;0.1875;-1.0;
1441975989325610;0.221435546875;-0.79681396484375;-0.50946044921875;-0.2379150390625;12.720819678088882;14.874997440784528;0.39860070487346405;-0.57080078125;0.67333984375;-0.3525390625;4.1875;-0.5;-1.5;
1441975989349611;0.2215576171875;-0.79693603515625;-0.509033203125;-0.23822021484375;12.724449551475441;14.877962230192907;0.3993236028102557;-0.56005859375;0.673828125;-0.3466796875;2.8125;-0.8125;-2.375;
1441975989363612;0.2216796875;-0.79705810546875;-0.50872802734375;-0.23846435546875;12.727352906526754;14.880256020289456;0.3999862137910982;-0.5556640625;0.66845703125;-0.349609375;2.5;-0.875;-2.6875;
1441975989386613;0.22161865234375;-0.797119140625;-0.50848388671875;-0.23883056640625;12.73055464055788;14.881483071436131;0.3989725515323253;-0.55419921875;0.67431640625;-0.35205078125;1.9375;-0.8125;-2.75;
1441975989408615;0.22149658203125;-0.7972412109375;-0.50811767578125;-0.2392578125;12.73393949389549;14.883455079190494;0.3977100388565442;-0.55517578125;0.67724609375;-0.3544921875;1.6875;-2.1875;-2.5;
1441975989423616;0.22125244140625;-0.79742431640625;-0.5078125;-0.23956298828125;12.735229866315262;14.885098633019428;0.3960529214051547;-0.56640625;0.6826171875;-0.359375;2.5625;-2.375;-2.25;
1441975989445617;0.220947265625;-0.79766845703125;-0.50738525390625;-0.23980712890625;12.735557617726831;14.88758345211507;0.3945601784157659;-0.56201171875;0.68603515625;-0.36279296875;2.5625;-2.25;-1.5625;
1441975989468618;0.22039794921875;-0.79791259765625;-0.507080078125;-0.24017333984375;12.735568333337085;14.888709681352502;0.3909401982636398;-0.55322265625;0.68212890625;-0.3603515625;3.25;-2.25;-1.0;
1441975989483619;0.2198486328125;-0.79815673828125;-0.50689697265625;-0.24041748046875;12.734279489860008;14.889211043183803;0.38746381756217635;-0.55517578125;0.68603515625;-0.3505859375;3.75;-2.9375;-0.75;
1441975989505620;0.21923828125;-0.79840087890625;-0.5067138671875;-0.24053955078125;12.731515442439699;14.889675905467367;0.38404070319639727;-0.5498046875;0.68896484375;-0.35498046875;3.1875;-3.0625;-0.5;
