1441975573637834;0.225830078125;-0.68841552734375;-0.44146728515625;-0.52947998046875;15.816385927121875;13.883665590194287;16.755543985747735;-2.50341796875;0.05322265625;0.00634765625;122.875;107.25;402.6875;
1441975573651835;0.1976318359375;-0.69921875;-0.49700927734375;-0.47442626953125;14.92997918927948;13.814089532391534;16.876076169301882;-2.716796875;0.97119140625;-0.0966796875;42.75;107.8125;417.75;
1441975573673836;0.18450927734375;-0.68719482421875;-0.5643310546875;-0.4188232421875;14.160496936081097;13.557181206035043;16.967216034468706;-2.9521484375;0.5478515625;-0.23681640625;-178.1875;107.125;434.5625;
1441975573697837;0.15472412109375;-0.6929931640625;-0.59454345703125;-0.37750244140625;13.499735097093591;13.533170962218694;17.03208795244328;-2.771484375;-0.28955078125;0.4814453125;-332.5625;76.6875;381.625;
1441975573711838;0.11419677734375;-0.7158203125;-0.59442138671875;-0.34832763671875;12.93735074462595;13.688268047111118;17.05424026681769;-2.37744140625;-0.77294921875;0.19287109375;-72.625;48.375;329.9375;
1441975573733839;0.0841064453125;-0.732666015625;-0.592529296875;-0.32421875;12.507946396082547;13.807449051852823;17.07025587823087;-2.3623046875;-0.31591796875;0.04443359375;140.375;27.125;280.6875;
1441975573756841;0.06756591796875;-0.7342529296875;-0.604736328125;-0.30120849609375;12.159960407578486;13.793977055757434;17.09345446206421;-1.880859375;0.11279296875;0.03759765625;110.25;34.0;238.375;
1441975573771842;0.0526123046875;-0.73065185546875;-0.62139892578125;-0.27813720703125;11.814952143511523;13.73782957947973;17.112672233372578;-1.65966796875;-0.125;0.150390625;-24.3125;41.625;196.5625;
1441975573793843;0.03936767578125;-0.730712890625;-0.63037109375;-0.2591552734375;11.536352567428517;13.72520432644104;17.133408571625317;-1.60205078125;-0.58203125;0.29443359375;-65.875;32.375;170.25;
1441975573815844;0.0291748046875;-0.72869873046875;-0.64105224609375;-0.23931884765625;11.27157149541822;13.697762106794103;17.16752166423056;-1.2548828125;-0.3876953125;0.21875;-19.0;33.125;159.4375;
1441975573831845;0.02227783203125;-0.72320556640625;-0.65350341796875;-0.222412109375;11.053606022842937;13.643799997121251;17.19893186991362;-1.06005859375;-0.1220703125;0.11328125;-39.625;42.875;147.5625;
1441975573853846;0.0242919921875;-0.72113037109375;-0.65802001953125;-0.21563720703125;11.005591206714856;13.625459869797272;17.232301489805696;-1.099609375;-0.16943359375;0.09130859375;-64.25;37.5;125.75;
1441975573876848;0.02569580078125;-0.726318359375;-0.653564453125;-0.21148681640625;10.992420620300999;13.671724344918163;17.263337682967926;-1.115234375;-0.2041015625;0.11181640625;-22.5625;38.6875;99.375;
1441975573892849;0.0281982421875;-0.7344970703125;-0.6446533203125;-0.21038818359375;11.020456628836815;13.745825202202708;17.29128706702626;-1.0498046875;-0.0390625;0.0458984375;38.5625;34.0;74.0;
1441975573913850;0.033935546875;-0.74078369140625;-0.635986328125;-0.21380615234375;11.109380668396136;13.80674940707663;17.312829904395457;-0.962890625;0.19189453125;-0.03662109375;63.625;29.0625;42.125;
1441975573936851;0.0440673828125;-0.74462890625;-0.62799072265625;-0.22216796875;11.27155974902898;13.850783944516404;17.331250549456513;-0.9638671875;0.42236328125;-0.0302734375;54.5625;21.1875;5.8125;
1441975573952852;0.05908203125;-0.7457275390625;-0.62103271484375;-0.23419189453125;11.499988610042935;13.877424940108432;17.353689652166715;-1.00390625;0.55810546875;-0.0283203125;39.6875;14.375;-33.125;
1441975573973853;0.07769775390625;-0.743896484375;-0.61529541015625;-0.2490234375;11.778144344124371;13.885893883488652;17.37714598239951;-1.05419921875;0.5859375;-0.0146484375;21.9375;14.1875;-66.625;
1441975573996854;0.09716796875;-0.74151611328125;-0.60955810546875;-0.26318359375;12.05779799552988;13.895390832836812;17.407723632416218;-1.06396484375;0.6943359375;0.0068359375;4.4375;11.125;-97.5625;
1441975574012855;0.12127685546875;-0.73663330078125;-0.6033935546875;-0.28057861328125;12.403100109488133;13.897118084111682;17.4437575425178;-1.05908203125;0.81689453125;0.02978515625;-3.5;10.0625;-133.875;
1441975574034857;0.1507568359375;-0.72784423828125;-0.59771728515625;-0.30059814453125;12.815049784785444;13.883098092851503;17.48771528040387;-1.05078125;0.90087890625;-0.01171875;-15.75;8.25;-169.0625;
1441975574056858;0.18475341796875;-0.71514892578125;-0.59222412109375;-0.3221435546875;13.280765290179005;13.856495301878969;17.53997727216833;-1.041015625;0.91943359375;-0.0439453125;-38.5625;8.625;-204.75;
1441975574072859;0.22259521484375;-0.69903564453125;-0.5853271484375;-0.3453369140625;13.801666476434278;13.827611359162363;17.60015038860765;-1.08251953125;0.875;-0.06689453125;-60.0625;10.4375;-232.9375;
1441975574093860;0.26116943359375;-0.6805419921875;-0.57568359375;-0.37054443359375;14.360971252527822;13.802978099540592;17.655585096667508;-1.17626953125;0.89306640625;-0.041015625;-71.25;11.75;-261.75;
1441975574116861;0.301513671875;-0.66168212890625;-0.56304931640625;-0.3929443359375;14.924951635478523;13.821694179531889;17.75611988932156;-1.2041015625;0.74365234375;-0.07470703125;-67.375;4.4375;-280.375;
1441975574132862;0.33807373046875;-0.64251708984375;-0.54876708984375;-0.41448974609375;15.4637856419805;13.863278092710342;17.862981535767116;-1.31201171875;0.58837890625;-0.1201171875;-65.8125;24.0625;-283.75;
1441975574153863;0.3701171875;-0.6240234375;-0.5321044921875;-0.43646240234375;15.981486975138235;13.939726876257039;17.97871619367354;-1.42919921875;0.4912109375;-0.06884765625;-52.875;18.1875;-270.8125;
1441975574176865;0.39715576171875;-0.6065673828125;-0.51324462890625;-0.4593505859375;16.476439792124328;14.062078207246053;0.11214173927594195;-1.41357421875;0.47021484375;-0.09130859375;-30.4375;7.8125;-262.125;
1441975574193866;0.41998291015625;-0.5889892578125;-0.4930419921875;-0.4833984375;16.958174722812863;14.245473074457928;0.2865618294701546;-1.423828125;0.42431640625;-0.06396484375;-4.8125;-2.5625;-251.8125;
1441975574213867;0.4427490234375;-0.5697021484375;-0.47314453125;-0.505615234375;17.425055136995915;14.710161685906089;0.7524065855718461;-1.35693359375;0.482421875;-0.033203125;13.4375;-16.375;-247.5625;
1441975574235868;0.46551513671875;-0.54876708984375;-0.455078125;-0.5245361328125;17.786217961746356;17.13413387428942;3.1961678956786956;-1.287109375;0.46826171875;-0.0263671875;3.3125;-15.875;-247.25;
1441975574252869;0.4866943359375;-0.52740478515625;-0.43731689453125;-0.54205322265625;17.582594837797295;3.284832495406657;7.367532549972428;-1.228515625;0.4111328125;0.00732421875;-15.375;-14.0;-238.375;
1441975574273870;0.50372314453125;-0.50787353515625;-0.4180908203125;-0.55999755859375;17.18704641881384;4.026354147420259;8.106515139360154;-1.1689453125;0.2138671875;0.0126953125;-16.75;-15.875;-227.6875;
1441975574296872;0.51495361328125;-0.49188232421875;-0.39788818359375;-0.5784912109375;16.81801682157401;4.301843731940488;8.347682648346868;-1.17041015625;0.03271484375;0.02880859375;6.5;-17.75;-214.0625;
1441975574312873;0.5228271484375;-0.47760009765625;-0.37921142578125;-0.595703125;16.489065428657874;4.469377364848385;8.473854816053144;-1.09814453125;0.052734375;0.0341796875;37.8125;-19.25;-193.0625;
1441975574333874;0.5308837890625;-0.46343994140625;-0.365234375;-0.60833740234375;16.209528368515564;4.563889967537798;8.553805667545374;-1.04248046875;0.09228515625;0.0107421875;44.5625;-22.375;-171.6875;
1441975574356875;0.54046630859375;-0.4493408203125;-0.3570556640625;-0.615234375;15.985776377522434;4.599777040227923;8.613133588611838;-0.99755859375;0.04931640625;-0.025390625;18.0;-24.0625;-145.6875;
1441975574372876;0.54986572265625;-0.4375;-0.35498046875;-0.61663818359375;15.842392366667658;4.597359487287289;8.66155718707953;-0.97412109375;-0.03759765625;-0.01416015625;-20.0625;-23.0625;-116.625;
1441975574401878;0.5592041015625;-0.427490234375;-0.35650634765625;-0.6143798828125;15.75161161970706;4.568191845097642;8.699449222079458;-0.931640625;-0.115234375;0.01953125;-48.25;-19.3125;-87.75;
1441975574416879;0.56768798828125;-0.41961669921875;-0.36102294921875;-0.609375;15.71144011770698;4.52451285772892;8.731278996998181;-0.884765625;-0.14111328125;0.04248046875;-65.4375;-13.5625;-59.625;
1441975574432879;0.5740966796875;-0.4140625;-0.36749267578125;-0.603271484375;15.714879766056198;4.48489653295679;8.763464352391084;-0.86767578125;-0.1669921875;0.0322265625;-73.75;-10.875;-32.875;
1441975574453881;0.5771484375;-0.41192626953125;-0.37530517578125;-0.5970458984375;15.766799644195958;4.458793666269725;8.79374134200293;-0.8388671875;-0.18212890625;0.0517578125;-70.625;-9.3125;-9.4375;
1441975574475882;0.57781982421875;-0.41253662109375;-0.38482666015625;-0.58984375;15.86416152094121;4.436638820216688;8.820799496858239;-0.7978515625;-0.10986328125;0.0517578125;-55.5625;-8.375;11.5;
1441975574492883;0.57781982421875;-0.41436767578125;-0.3966064453125;-0.5806884765625;15.996833622793236;4.407319683886206;8.84730584591011;-0.78857421875;-0.02392578125;0.029296875;-48.0625;-8.4375;30.0;
1441975574513884;0.57720947265625;-0.4158935546875;-0.41107177734375;-0.57000732421875;16.15587613017095;4.389037020132069;8.89594545827747;-0.81884765625;4.8828125E-4;-0.013671875;-53.8125;-12.0625;46.3125;
1441975574536885;0.57574462890625;-0.417724609375;-0.42755126953125;-0.55792236328125;16.341263082524776;4.380571469228879;8.96061742263536;-0.88427734375;-0.04736328125;-0.00927734375;-64.125;-18.5625;62.625;
1441975574552886;0.57275390625;-0.42047119140625;-0.4444580078125;-0.545654296875;16.54373662547078;4.391046985224301;9.038595733777074;-0.87353515625;-0.056640625;0.01123046875;-70.4375;-22.0;77.75;
1441975574573887;0.568115234375;-0.4244384765625;-0.46099853515625;-0.5335693359375;16.758585796265898;4.424214119559706;9.129150431675235;-0.82177734375;-0.02294921875;0.0087890625;-64.625;-23.875;87.5;
1441975574596889;0.5621337890625;-0.429443359375;-0.4764404296875;-0.52215576171875;16.975685652024985;4.487533520463541;9.237769870707902;-0.79833984375;0.0263671875;9.765625E-4;-54.8125;-24.5;92.6875;
1441975574619890;0.5543212890625;-0.43536376953125;-0.4908447265625;-0.51214599609375;17.19211371801068;4.630673432716452;9.411241801056754;-0.83447265625;0.04248046875;-0.0205078125;-43.0;-24.375;94.6875;
1441975574633891;0.544677734375;-0.442138671875;-0.504150390625;-0.50372314453125;17.402380619680642;4.934849777578308;9.730349498959567;-0.91552734375;0.06591796875;-0.01904296875;-28.0625;-27.25;95.0625;
1441975574656892;0.5335693359375;-0.44921875;-0.51629638671875;-0.4969482421875;17.588623310622502;5.606560247803553;10.403958317310837;-0.96142578125;0.08740234375;-0.037109375;-12.125;-32.125;95.4375;
1441975574672893;0.52154541015625;-0.45648193359375;-0.52740478515625;-0.49139404296875;17.713127424128952;7.081479552668931;11.871248785476311;-0.94775390625;0.07470703125;-0.03515625;0.5625;-36.6875;95.25;
1441975574693894;0.509033203125;-0.46429443359375;-0.53704833984375;-0.48675537109375;17.709021755909642;9.17775188738104;13.950183320342001;-0.92529296875;0.0576171875;-0.01953125;10.125;-38.5;95.125;
1441975574716896;0.49627685546875;-0.47259521484375;-0.544921875;-0.48321533203125;17.5964841996626;10.511806747364115;15.256643081569399;-0.9248046875;0.06982421875;-0.00341796875;19.6875;-36.3125;92.3125;
1441975574738897;0.4835205078125;-0.48095703125;-0.5516357421875;-0.48028564453125;17.44785654986898;11.172220306070884;15.884252199794327;-0.9423828125;0.0908203125;-0.00341796875;29.4375;-33.5625;86.875;
1441975574753898;0.47119140625;-0.48876953125;-0.55755615234375;-0.477783203125;17.294136127821083;11.523210154546238;16.201747064964675;-0.9501953125;0.12548828125;0.00830078125;34.625;-32.125;81.625;
1441975574775899;0.45965576171875;-0.495361328125;-0.56329345703125;-0.47552490234375;17.14423898999888;11.716984565107525;16.36656119172678;-0.9423828125;0.138671875;0.0126953125;34.5;-31.4375;76.4375;
1441975574792900;0.4488525390625;-0.5013427734375;-0.568603515625;-0.47320556640625;17.00201320192902;11.849432770672484;16.472828626056405;-0.9228515625;0.12060546875;0.0439453125;30.3125;-30.5;72.1875;
1441975574814901;0.43896484375;-0.507080078125;-0.5731201171875;-0.47088623046875;16.872286323293768;11.955809040051445;16.554030794964756;-0.88330078125;0.11328125;0.072265625;27.3125;-27.0;69.5625;
1441975574844903;0.4300537109375;-0.512451171875;-0.576904296875;-0.46868896484375;16.75596261308923;12.042515275723517;16.616916627961793;-0.84375;0.10205078125;0.08837890625;26.75;-21.375;65.6875;
1441975574852903;0.4217529296875;-0.51763916015625;-0.580078125;-0.46661376953125;16.649039781466662;12.117805766527587;16.668514904980295;-0.8173828125;0.1044921875;0.10107421875;25.8125;-17.0;60.5625;
1441975574874905;0.414794921875;-0.522216796875;-0.5830078125;-0.464111328125;16.55418263935266;12.186250247309461;16.71938512630633;-0.798828125;0.125;0.10302734375;25.375;-14.25;55.5;
1441975574896906;0.4091796875;-0.5257568359375;-0.5860595703125;-0.46124267578125;16.469915304690662;12.240024108397098;16.76384061141278;-0.78076171875;0.15283203125;0.0888671875;19.375;-10.6875;49.75;
1441975574920907;0.40472412109375;-0.5281982421875;-0.5892333984375;-0.45831298828125;16.39610314630681;12.276470068582881;16.798012389102745;-0.76611328125;0.18212890625;0.08251953125;10.8125;-8.4375;43.25;
1441975574934908;0.40179443359375;-0.52947998046875;-0.5919189453125;-0.4559326171875;16.34245140804495;12.295402585692852;16.81943324110268;-0.755859375;0.23486328125;0.080078125;3.0;-7.6875;34.6875;
1441975574956909;0.4002685546875;-0.52984619140625;-0.59356689453125;-0.45477294921875;16.313751429227995;12.297914081410772;16.824604194403605;-0.75048828125;0.26220703125;0.07861328125;-2.5;-6.5;23.0625;
1441975574980911;0.3995361328125;-0.52984619140625;-0.59381103515625;-0.455078125;16.307176157819203;12.290281326220622;16.814675901672413;-0.7744140625;0.26806640625;0.09033203125;-3.0625;-5.125;10.1875;
1441975574994912;0.39971923828125;-0.52972412109375;-0.5926513671875;-0.45660400390625;16.322294196758232;12.279071987631067;16.796568716523517;-0.7822265625;0.26611328125;0.10400390625;1.625;-3.5625;-1.5;
1441975575016913;0.40081787109375;-0.529541015625;-0.590087890625;-0.45916748046875;16.35827230459579;12.266616070810912;16.77297559234826;-0.77197265625;0.259765625;0.1103515625;5.9375;-0.5625;-12.5;
1441975575032914;0.4024658203125;-0.52899169921875;-0.58685302734375;-0.46246337890625;16.40659660300656;12.24508127810918;16.738902029640727;-0.77783203125;0.24560546875;0.10888671875;10.0;2.0625;-21.5625;
1441975575056915;0.40521240234375;-0.52777099609375;-0.583251953125;-0.46600341796875;16.46852753965026;12.214338503052899;16.698990038311415;-0.78173828125;0.24853515625;0.115234375;11.0625;3.0625;-29.1875;
1441975575084917;0.4091796875;-0.52545166015625;-0.5797119140625;-0.46954345703125;16.541954638767574;12.16638820760481;16.64876096211394;-0.78857421875;0.2509765625;0.10595703125;7.625;4.4375;-36.4375;
1441975575092917;0.4140625;-0.52197265625;-0.576416015625;-0.47320556640625;16.623154655449795;12.092730620882014;16.57916972337957;-0.8017578125;0.23486328125;0.09814453125;0.1875;4.9375;-42.0;
1441975575116919;0.42010498046875;-0.51776123046875;-0.57305908203125;-0.47650146484375;16.713645890780732;12.006401737827087;16.50323447560061;-0.82958984375;0.205078125;0.10302734375;-6.0625;3.9375;-45.75;
1441975575136920;0.42681884765625;-0.5130615234375;-0.56976318359375;-0.4796142578125;16.808351823440795;11.902854123748966;16.414105121465003;-0.869140625;0.1787109375;0.09326171875;-12.9375;6.3125;-48.5625;
1441975575152921;0.43341064453125;-0.5081787109375;-0.5662841796875;-0.48297119140625;16.902481792139078;11.774802248849337;16.299394068933495;-0.9482421875;0.140625;0.0888671875;-16.3125;6.75;-48.5;
1441975575174922;0.43902587890625;-0.503662109375;-0.56256103515625;-0.48699951171875;16.988668407912733;11.618378704598925;16.149798825689338;-1.0263671875;0.0791015625;0.08154296875;-15.5;4.625;-46.0;
1441975575197923;0.443115234375;-0.50030517578125;-0.55853271484375;-0.4913330078125;17.060928548473562;11.457866014654464;15.986638226224922;-1.0732421875;0.01123046875;0.09326171875;-8.3125;1.625;-41.25;
1441975575212924;0.445556640625;-0.4986572265625;-0.5543212890625;-0.49560546875;17.117511591377177;11.322293357542831;15.838427043216411;-1.0693359375;-0.02734375;0.11767578125;1.25;1.5625;-34.25;
1441975575235925;0.44671630859375;-0.49822998046875;-0.55035400390625;-0.49945068359375;17.15948210516512;11.217135027580165;15.71538189809834;-1.05078125;-0.02783203125;0.12744140625;12.125;2.5;-26.6875;
1441975575255927;0.44677734375;-0.49847412109375;-0.5472412109375;-0.50244140625;17.18463710723052;11.146833407551158;15.627024941007138;-1.0361328125;-0.0205078125;0.13720703125;17.375;3.5625;-19.0625;
1441975575272927;0.44610595703125;-0.4991455078125;-0.54534912109375;-0.50445556640625;17.19404852368119;11.114304711551423;15.579423201290949;-1.02783203125;-0.00634765625;0.13623046875;18.25;2.3125;-10.5;
1441975575294929;0.44500732421875;-0.5001220703125;-0.54486083984375;-0.5050048828125;17.18928236423201;11.131935028188588;15.588113007841153;-1.0107421875;0.015625;0.140625;15.4375;1.0625;-2.5;
1441975575315930;0.44378662109375;-0.50128173828125;-0.545654296875;-0.50408935546875;17.17358300028283;11.193939502894386;15.648185194619552;-0.98974609375;0.04736328125;0.14501953125;9.4375;2.0;5.6875;
1441975575332931;0.44268798828125;-0.50213623046875;-0.54766845703125;-0.50201416015625;17.148606463053678;11.273143621273881;15.733518675666845;-0.97900390625;0.08349609375;0.14453125;3.0;3.0625;12.9375;
1441975575355932;0.44146728515625;-0.50286865234375;-0.55035400390625;-0.4993896484375;17.116404007295305;11.356494974521343;15.8265066398184;-0.9755859375;0.0947265625;0.14990234375;-4.625;3.1875;18.0625;
1441975575375933;0.44024658203125;-0.50372314453125;-0.5533447265625;-0.49627685546875;17.080629111837837;11.447552778630083;15.929134274127165;-0.958984375;0.095703125;0.14794921875;-8.3125;2.4375;22.125;
1441975575392934;0.4388427734375;-0.50469970703125;-0.556640625;-0.49285888671875;17.039598568111863;11.539982106159805;16.034016356789262;-0.9453125;0.09716796875;0.1328125;-10.0625;2.125;25.3125;
1441975575422936;0.43701171875;-0.50567626953125;-0.56024169921875;-0.4893798828125;16.991517441515864;11.623505146301014;16.129824143991673;-0.94287109375;0.1025390625;0.1279296875;-10.4375;1.5625;28.125;
1441975575435937;0.4351806640625;-0.50665283203125;-0.56378173828125;-0.4859619140625;16.943112877860194;11.697875071665969;16.216136612861156;-0.9384765625;0.1220703125;0.13134765625;-10.75;0.125;29.4375;
1441975575452938;0.4332275390625;-0.5076904296875;-0.56707763671875;-0.4827880859375;16.8951652054115;11.762818484368264;16.291099888494557;-0.94677734375;0.13623046875;0.12353515625;-10.375;-1.0;29.25;
1441975575474939;0.43121337890625;-0.5086669921875;-0.57012939453125;-0.47998046875;16.84876633467243;11.815110294831655;16.351662130389126;-0.96875;0.1572265625;0.12060546875;-8.625;-1.625;27.5625;
1441975575496940;0.42926025390625;-0.50933837890625;-0.57281494140625;-0.477783203125;16.806923720965912;11.848324322309457;16.391395113520556;-0.98388671875;0.16796875;0.1123046875;-7.0;-3.0;25.4375;
1441975575512941;0.42724609375;-0.510009765625;-0.57501220703125;-0.47625732421875;16.769539738891;11.870294970658659;16.416369773141845;-0.9853515625;0.1591796875;0.11181640625;-5.5;-4.875;22.9375;
1441975575534942;0.425048828125;-0.5108642578125;-0.5767822265625;-0.47509765625;16.734287998207947;11.89031205911895;16.43605200695309;-0.96484375;0.1484375;0.12109375;-2.375;-5.3125;20.8125;
1441975575555944;0.4232177734375;-0.5115966796875;-0.5780029296875;-0.4744873046875;16.707564906128937;11.902283187049425;16.44592286317726;-0.95166015625;0.16552734375;0.12548828125;1.0625;-5.0625;17.8125;
1441975575572945;0.42169189453125;-0.511962890625;-0.57916259765625;-0.47406005859375;16.684772562435672;11.90529166435216;16.44806073578823;-0.95654296875;0.16455078125;0.12158203125;2.5625;-5.0625;14.1875;
1441975575609947;0.4208984375;-0.51165771484375;-0.580322265625;-0.47369384765625;16.669174364777174;11.896839711884192;16.44260776467269;-0.958984375;0.16796875;0.1123046875;1.125;-5.875;11.125;
1441975575615947;0.4205322265625;-0.5108642578125;-0.58154296875;-0.473388671875;16.657492558867588;11.879418197872758;16.430825273459867;-0.9609375;0.1591796875;0.1083984375;-3.0625;-5.9375;8.5;
1441975575632948;0.42041015625;-0.5098876953125;-0.58251953125;-0.47332763671875;16.650410045549098;11.857021515307558;16.413891092264635;-0.96826171875;0.1416015625;0.10986328125;-5.8125;-6.25;6.9375;
1441975575654949;0.4202880859375;-0.50897216796875;-0.5831298828125;-0.4736328125;16.64670320380086;11.832192180748576;16.392234424253235;-0.9638671875;0.1279296875;0.11572265625;-5.5625;-6.0625;5.375;
1441975575687951;0.41998291015625;-0.50848388671875;-0.58343505859375;-0.47406005859375;16.643400198899453;11.814538471924276;16.37475863001289;-0.96875;0.119140625;0.12353515625;-3.125;-5.5;4.0625;
1441975575692951;0.4197998046875;-0.508056640625;-0.58349609375;-0.474609375;16.643071216164312;11.797642739170026;16.35715861888757;-0.962890625;0.13037109375;0.119140625;-0.25;-5.125;3.0625;
1441975575714953;0.41986083984375;-0.5074462890625;-0.583740234375;-0.47491455078125;16.643085796307265;11.78075347010669;16.34203004233309;-0.96044921875;0.13720703125;0.11181640625;0.4375;-4.75;1.5625;
1441975575737954;0.42041015625;-0.5064697265625;-0.58404541015625;-0.47509765625;16.646854252374403;11.759637067242902;16.325665421404032;-0.95703125;0.15478515625;0.11669921875;-2.0625;-4.0625;0.25;
1441975575753955;0.42120361328125;-0.5052490234375;-0.5843505859375;-0.47528076171875;16.652858040633426;11.734333803855518;16.30652196176896;-0.95458984375;0.150390625;0.11376953125;-5.1875;-3.3125;-0.9375;
1441975575774956;0.422119140625;-0.504150390625;-0.58441162109375;-0.4755859375;16.66176330574255;11.71046497169914;16.28775139776773;-0.953125;0.1455078125;0.1181640625;-6.5;-2.75;-2.375;
1441975575796957;0.4229736328125;-0.5032958984375;-0.5841064453125;-0.47607421875;16.67292721792201;11.689488935942466;16.26940842487568;-0.953125;0.14892578125;0.11962890625;-5.25;-1.9375;-3.8125;
1441975575811958;0.42401123046875;-0.50238037109375;-0.58380126953125;-0.4765625;16.685644533407903;11.667283162990824;16.25053405079236;-0.95849609375;0.150390625;0.1181640625;-3.3125;-1.25;-4.9375;
1441975575834960;0.42523193359375;-0.50140380859375;-0.5833740234375;-0.47705078125;16.700797202207305;11.644256974040873;16.231190083384153;-0.95751953125;0.1513671875;0.1142578125;-3.8125;-1.0625;-5.875;
1441975575856961;0.426513671875;-0.50018310546875;-0.5828857421875;-0.47772216796875;16.717305617671762;11.613300101371722;16.204092937872574;-0.96142578125;0.146484375;0.109375;-4.25;-0.5625;-6.6875;
1441975575872962;0.427734375;-0.49920654296875;-0.58221435546875;-0.47845458984375;16.73449340827457;11.586016358785905;16.17908192533621;-0.96826171875;0.1318359375;0.11865234375;-4.1875;-0.9375;-7.3125;
1441975575894963;0.42864990234375;-0.49853515625;-0.58135986328125;-0.4793701171875;16.75046647714404;11.561398124440048;16.15392179745909;-0.96337890625;0.13037109375;0.1123046875;-2.875;-0.5;-7.25;
1441975575916964;0.42950439453125;-0.498046875;-0.5804443359375;-0.480224609375;16.766112118243303;11.541062320137081;16.132340889013822;-0.9775390625;0.12744140625;0.12353515625;0.3125;-0.1875;-7.1875;
1441975575933965;0.43035888671875;-0.49749755859375;-0.5797119140625;-0.48095703125;16.78017369998829;11.520437210966657;16.111525956553233;-0.97021484375;0.13525390625;0.12060546875;0.5625;0.375;-6.8125;
1441975575954966;0.4312744140625;-0.4969482421875;-0.57904052734375;-0.48150634765625;16.793983620648035;11.502403863705021;16.094184610972853;-0.966796875;0.12841796875;0.12158203125;-0.3125;0.1875;-6.25;
1441975575984968;0.4320068359375;-0.49652099609375;-0.578369140625;-0.4820556640625;16.806142788549643;11.486419093183247;16.0780156134251;-0.9599609375;0.12353515625;0.11962890625;-0.75;0.6875;-5.3125;
1441975575993969;0.43267822265625;-0.4962158203125;-0.57781982421875;-0.48248291015625;16.8166478145792;11.47446146943922;16.066046749655595;-0.95947265625;0.1181640625;0.1240234375;0.0625;0.8125;-4.5;
1441975576014970;0.43328857421875;-0.4959716796875;-0.577392578125;-0.482666015625;16.82536878415488;11.46762751287923;16.05991015979314;-0.96337890625;0.125;0.12109375;0.0;0.875;-3.5;
1441975576038971;0.433349609375;-0.49591064453125;-0.57733154296875;-0.48272705078125;16.826438636819045;11.465441440704225;16.057724087618134;-0.9677734375;0.1201171875;0.119140625;-0.75;0.75;-2.125;
1441975576076973;0.43341064453125;-0.495849609375;-0.5772705078125;-0.4827880859375;16.827507830162507;11.463251352300118;16.055533999214024;-0.97216796875;0.109375;0.1171875;-0.875;0.5;-0.75;
1441975576078974;0.43341064453125;-0.49603271484375;-0.57708740234375;-0.48284912109375;16.82891986521106;11.466610471072803;16.057660098180136;-0.95849609375;0.1123046875;0.1220703125;0.375;0.0625;0.4375;
1441975576096975;0.433349609375;-0.49627685546875;-0.576904296875;-0.48291015625;16.829794364258195;11.471247429859256;16.06071262866002;-0.95654296875;0.1201171875;0.12060546875;1.375;0.125;1.5625;
1441975576119976;0.4329833984375;-0.49652099609375;-0.57684326171875;-0.4830322265625;16.827210890393186;11.474237271317268;16.061420535949722;-0.96533203125;0.12255859375;0.119140625;1.9375;-0.25;2.1875;
1441975576133977;0.43267822265625;-0.496826171875;-0.5767822265625;-0.48309326171875;16.825060207863533;11.479651229408558;16.06472553536042;-0.96142578125;0.130859375;0.1279296875;2.125;-0.625;2.5625;
1441975576156978;0.43231201171875;-0.49725341796875;-0.5765380859375;-0.48321533203125;16.823799330408086;11.487096687987954;16.06883426984876;-0.95703125;0.1357421875;0.1259765625;2.5;-0.375;2.4375;
1441975576172979;0.43182373046875;-0.497802734375;-0.5762939453125;-0.4833984375;16.821539712450406;11.49593110956822;16.073450506343843;-0.9560546875;0.13720703125;0.12548828125;3.625;-0.1875;2.0;
1441975576194980;0.4315185546875;-0.498291015625;-0.57598876953125;-0.48358154296875;16.82131907114521;11.50376842757436;16.077594578464385;-0.95263671875;0.150390625;0.1328125;4.375;0.375;1.375;
1441975576216981;0.43145751953125;-0.49853515625;-0.57568359375;-0.483642578125;16.823085107508355;11.50882182123036;16.080716841288172;-0.95556640625;0.15283203125;0.13037109375;3.5625;0.75;0.5625;
1441975576233982;0.431396484375;-0.49871826171875;-0.57537841796875;-0.48388671875;16.82512306919373;11.509260046768633;16.0788679881295;-0.94775390625;0.14453125;0.12255859375;2.125;0.75;0.125;
1441975576263984;0.431396484375;-0.4990234375;-0.57476806640625;-0.48431396484375;16.830179674535714;11.510024941299609;16.07576209084683;-0.9443359375;0.142578125;0.1357421875;2.1875;0.9375;-0.5;
1441975576276985;0.431396484375;-0.49951171875;-0.573974609375;-0.4847412109375;16.83655142650407;11.515319303631305;16.076131608959493;-0.955078125;0.1396484375;0.126953125;3.875;1.3125;-1.375;
1441975576293986;0.431396484375;-0.5;-0.57330322265625;-0.485107421875;16.841929292039094;11.52134557710107;16.07775903341023;-0.958984375;0.14501953125;0.1240234375;4.875;1.9375;-1.9375;
1441975576315987;0.43145751953125;-0.500244140625;-0.57269287109375;-0.4854736328125;16.847443458486826;11.52198035168004;16.075053262912153;-0.96240234375;0.15380859375;0.12744140625;4.5;1.9375;-2.125;
1441975576336988;0.43170166015625;-0.50042724609375;-0.572021484375;-0.48583984375;16.855002635043526;11.521623375345696;16.0718815420178;-0.96240234375;0.14599609375;0.12646484375;3.375;1.5625;-2.5;
1441975576352989;0.43194580078125;-0.50048828125;-0.5714111328125;-0.48626708984375;16.862223571194782;11.517216936594522;16.06501209864662;-0.96337890625;0.140625;0.12451171875;2.75;1.6875;-2.5625;
1441975576375991;0.43218994140625;-0.50054931640625;-0.57086181640625;-0.48663330078125;16.868902161539502;11.513686442444882;16.05937028379217;-0.9677734375;0.13427734375;0.12890625;2.5;1.6875;-2.5;
1441975576404992;0.43231201171875;-0.50079345703125;-0.57025146484375;-0.487060546875;16.87502358128487;11.513103727892531;16.055445365666973;-0.9619140625;0.12255859375;0.1240234375;2.375;1.5;-1.75;
1441975576412993;0.43231201171875;-0.50103759765625;-0.56976318359375;-0.4873046875;16.87893758753129;11.515512418399549;16.05504308546371;-0.9775390625;0.12451171875;0.12255859375;3.125;1.125;-1.0625;
1441975576434994;0.43218994140625;-0.50115966796875;-0.56951904296875;-0.48760986328125;16.880094193740923;11.513124461507417;16.050370058709373;-0.9765625;0.126953125;0.1181640625;3.1875;0.625;-0.0625;
1441975576456995;0.43182373046875;-0.50152587890625;-0.56915283203125;-0.48797607421875;16.880089171661798;11.515232653170814;16.048261867045973;-0.9677734375;0.12158203125;0.1279296875;2.625;0.125;0.625;
1441975576472996;0.43109130859375;-0.5023193359375;-0.568603515625;-0.4884033203125;16.87828493926794;11.526014960759758;16.051841898121772;-0.9619140625;0.12109375;0.13330078125;4.375;0.3125;1.5;
1441975576494997;0.43048095703125;-0.5030517578125;-0.5682373046875;-0.48870849609375;16.876004402616335;11.537198106868349;16.057226600244473;-0.958984375;0.13330078125;0.12744140625;7.1875;0.4375;2.0;
1441975576516999;0.429931640625;-0.50360107421875;-0.568115234375;-0.48876953125;16.872127916360967;11.548141533933606;16.06448109129045;-0.95751953125;0.140625;0.12109375;6.0625;0.1875;2.125;
1441975576533000;0.42962646484375;-0.50390625;-0.5679931640625;-0.48883056640625;16.87041282907285;11.553877458621354;16.0679334327572;-0.96142578125;0.15185546875;0.12060546875;3.75;-0.1875;2.0;
1441975576555001;0.4293212890625;-0.50421142578125;-0.5677490234375;-0.48907470703125;16.869868847603783;11.556571010149392;16.067464398832353;-0.96533203125;0.14404296875;0.123046875;2.375;0.0;1.3125;
1441975576577002;0.42889404296875;-0.50457763671875;-0.56744384765625;-0.48944091796875;16.868889143005084;11.558406666019556;16.065083264106065;-0.962890625;0.1435546875;0.1201171875;3.125;-0.1875;0.6875;
1441975576600003;0.42840576171875;-0.5050048828125;-0.567138671875;-0.48980712890625;16.86736732805133;11.56152801470418;16.063636414959078;-0.95458984375;0.138671875;0.12353515625;4.375;-0.4375;0.625;
1441975576622005;0.42803955078125;-0.50531005859375;-0.56689453125;-0.49005126953125;16.866300716132983;11.564168841426008;16.062938903524106;-0.95751953125;0.14697265625;0.12060546875;4.4375;-0.5625;0.5;
1441975576653006;0.42779541015625;-0.50555419921875;-0.566650390625;-0.49029541015625;16.866300970345183;11.565574484438429;16.061533260511688;-0.96337890625;0.150390625;0.119140625;3.375;-0.75;0.25;
1441975576659007;0.4276123046875;-0.5057373046875;-0.5662841796875;-0.49066162109375;16.8679296409356;11.563828536183514;16.056624617872128;-0.97314453125;0.1455078125;0.11279296875;2.625;-0.875;0.0625;
1441975576682008;0.42730712890625;-0.50616455078125;-0.5657958984375;-0.4910888671875;16.869433405183784;11.566607335730703;16.054659751064065;-0.97314453125;0.138671875;0.1123046875;3.25;-0.875;0.0;
1441975576697009;0.4268798828125;-0.50653076171875;-0.5654296875;-0.491455078125;16.86891183065936;11.568668049569752;16.052327490068176;-0.97021484375;0.13916015625;0.11083984375;4.375;-0.625;0.0625;
1441975576728011;0.42669677734375;-0.50689697265625;-0.565185546875;-0.4915771484375;16.869222387310227;11.57511152370992;16.05613598993661;-0.96826171875;0.142578125;0.1181640625;4.375;-0.5;0.3125;
1441975576734011;0.42669677734375;-0.50689697265625;-0.565185546875;-0.4915771484375;16.869222387310227;11.57511152370992;16.05613598993661;-0.962890625;0.1513671875;0.10791015625;2.75;-0.3125;0.1875;
1441975576757012;0.42669677734375;-0.5069580078125;-0.565185546875;-0.4915771484375;16.869202736910562;11.576446333240586;16.057295688641716;-0.9609375;0.15576171875;0.11083984375;0.5625;0.25;0.125;
1441975576781014;0.42669677734375;-0.5069580078125;-0.56512451171875;-0.49151611328125;16.86956851332934;11.577833166803801;16.058681347651767;-0.96240234375;0.15087890625;0.11181640625;0.0;0.625;0.125;
1441975576795015;0.42681884765625;-0.5072021484375;-0.56488037109375;-0.49151611328125;16.872352103071794;11.584199250928693;16.063994450918326;-0.962890625;0.14501953125;0.107421875;0.375;0.9375;0.0625;
1441975576818016;0.4268798828125;-0.50750732421875;-0.5645751953125;-0.491455078125;16.874949002983957;11.59327585870322;16.071665520284355;-0.9609375;0.14111328125;0.109375;1.25;1.0625;0.1875;
1441975576833017;0.42694091796875;-0.5076904296875;-0.564453125;-0.4913330078125;16.876127818628504;11.600160920913211;16.078199198292015;-0.9638671875;0.1416015625;0.10595703125;1.125;1.0625;0.5625;
1441975576856018;0.42694091796875;-0.5079345703125;-0.56439208984375;-0.4912109375;16.8762983639576;11.608097019477343;16.085608910442755;-0.96142578125;0.13232421875;0.10693359375;0.8125;0.6875;1.3125;
1441975576877019;0.42694091796875;-0.50823974609375;-0.56439208984375;-0.49090576171875;16.875693261589916;11.620625787629123;16.098137678594533;-0.962890625;0.13720703125;0.111328125;0.625;0.9375;1.875;
1441975576901021;0.4268798828125;-0.508544921875;-0.56439208984375;-0.4906005859375;16.87454466407683;11.633065721694154;16.11040123116654;-0.95703125;0.1396484375;0.10791015625;0.375;0.875;2.375;
1441975576916021;0.42694091796875;-0.50885009765625;-0.56439208984375;-0.490234375;16.874318711533267;11.646803223889675;16.12449011723134;-0.9580078125;0.1474609375;0.107421875;0.0625;1.0625;2.3125;
1441975576937023;0.4271240234375;-0.509033203125;-0.56451416015625;-0.48974609375;16.874065376123788;11.659832015532615;16.139275830685534;-0.9677734375;0.1513671875;0.10595703125;-0.125;1.3125;1.9375;
1441975576955024;0.42767333984375;-0.50885009765625;-0.56463623046875;-0.48931884765625;16.87723263152343;11.664223231467675;16.14735711180108;-0.9716796875;0.1611328125;0.1064453125;-1.6875;1.625;1.0625;
1441975576984025;0.42816162109375;-0.50872802734375;-0.5645751953125;-0.48907470703125;16.881510674338926;11.667204948739169;16.152623219268175;-0.97265625;0.15185546875;0.10888671875;-3.5;1.75;0.125;
1441975576997026;0.4285888671875;-0.5087890625;-0.56427001953125;-0.489013671875;16.887282628202357;11.67173539117225;16.15750589983702;-0.96337890625;0.13818359375;0.10986328125;-2.0625;2.0;-0.375;
1441975577019027;0.42889404296875;-0.5089111328125;-0.56396484375;-0.48895263671875;16.891972157787684;11.677471689368733;16.1630669676943;-0.9580078125;0.12548828125;0.11328125;-0.25;2.375;-0.125;
1441975577036028;0.42926025390625;-0.50909423828125;-0.5638427734375;-0.4886474609375;16.89534990272176;11.688611896776136;16.175261993768608;-0.96142578125;0.13037109375;0.11279296875;0.625;2.375;0.25;
1441975577057030;0.42974853515625;-0.50897216796875;-0.5638427734375;-0.48822021484375;16.89883457770625;11.695037408161372;16.18467334247688;-0.962890625;0.14404296875;0.1064453125;-0.9375;2.3125;0.4375;
1441975577079031;0.43023681640625;-0.50885009765625;-0.56396484375;-0.48785400390625;16.901515772087276;11.699747547091834;16.192545837281855;-0.96240234375;0.14306640625;0.10693359375;-2.75;2.25;0.3125;
1441975577096032;0.4307861328125;-0.5087890625;-0.5638427734375;-0.487548828125;16.906589253758085;11.705947775882793;16.2010296844286;-0.955078125;0.13818359375;0.11376953125;-3.0;2.3125;0.25;
1441975577117033;0.43121337890625;-0.5087890625;-0.563720703125;-0.48736572265625;16.910795860587186;11.710952316301471;16.20743960878296;-0.95751953125;0.13818359375;0.10546875;-2.0625;2.4375;-0.125;
1441975577140034;0.4317626953125;-0.50872802734375;-0.56353759765625;-0.487060546875;16.916309621264237;11.717576353623686;16.216171270468404;-0.9619140625;0.14111328125;0.1044921875;-1.5;2.3125;-0.5;
1441975577156035;0.43243408203125;-0.50848388671875;-0.5634765625;-0.48681640625;16.922205003903596;11.71855880122034;16.22031504747214;-0.96240234375;0.14794921875;0.09912109375;-2.0625;2.3125;-1.125;
1441975577177036;0.4329833984375;-0.50823974609375;-0.56329345703125;-0.48675537109375;16.928308154437634;11.7162660244226;16.2199540281118;-0.96875;0.14453125;0.10400390625;-2.75;2.0;-1.625;
1441975577209038;0.43353271484375;-0.50811767578125;-0.56304931640625;-0.48675537109375;16.934882103850217;11.715839956392767;16.220756841989644;-0.96533203125;0.13818359375;0.10498046875;-2.25;1.8125;-1.8125;
1441975577232040;0.43402099609375;-0.50811767578125;-0.562744140625;-0.48663330078125;16.941068527058142;11.720879549188574;16.22667427191763;-0.96240234375;0.13720703125;0.1083984375;-1.125;2.0625;-1.9375;
1441975577237040;0.4345703125;-0.508056640625;-0.56256103515625;-0.4864501953125;16.946798017405314;11.725320367654133;16.232870602378714;-0.95947265625;0.14404296875;0.09814453125;-0.75;2.125;-2.0625;
1441975577260041;0.4351806640625;-0.5078125;-0.5625;-0.48626708984375;16.95228618708635;11.725060175562742;16.23541915974417;-0.9560546875;0.14794921875;0.09521484375;-1.8125;2.1875;-2.125;
1441975577276042;0.4359130859375;-0.5074462890625;-0.56243896484375;-0.4859619140625;16.95868230248415;11.724740740561009;16.238962383099263;-0.95947265625;0.1494140625;0.1044921875;-2.8125;2.0625;-2.375;
1441975577297043;0.4366455078125;-0.50701904296875;-0.56243896484375;-0.4857177734375;16.964790202291265;11.721421600449869;16.239680903314778;-0.955078125;0.14697265625;0.09912109375;-3.875;2.0625;-2.375;
1441975577319045;0.4373779296875;-0.50677490234375;-0.5623779296875;-0.4854736328125;16.971199309103703;11.722747634015215;16.244340756897223;-0.9609375;0.1435546875;0.1015625;-4.125;2.0625;-2.5625;
1441975577336045;0.43804931640625;-0.50653076171875;-0.56219482421875;-0.4853515625;16.97822685974638;11.722047458022093;16.2460968336004;-0.9609375;0.146484375;0.09521484375;-3.5625;2.0;-2.625;
1441975577358047;0.4385986328125;-0.50628662109375;-0.56195068359375;-0.4853515625;16.984902554791915;11.718802714974775;16.24443117091582;-0.96044921875;0.14208984375;0.09619140625;-2.3125;1.9375;-2.75;
1441975577380048;0.439208984375;-0.50616455078125;-0.56182861328125;-0.485107421875;16.990627531621097;11.723167936494034;16.25125215714308;-0.95947265625;0.140625;0.1015625;-1.6875;1.9375;-2.625;
1441975577396049;0.44000244140625;-0.5057373046875;-0.5618896484375;-0.4847412109375;16.996572166335532;11.722276823038401;16.255099154215905;-0.96142578125;0.15087890625;0.0927734375;-2.5;2.25;-2.625;
1441975577419050;0.4407958984375;-0.5052490234375;-0.56207275390625;-0.48431396484375;17.001547174349284;11.720568629581836;16.25883077349573;-0.953125;0.1455078125;0.09521484375;-4.5625;2.0;-2.6875;
1441975577447052;0.44171142578125;-0.50482177734375;-0.56219482421875;-0.48382568359375;17.007841148718786;11.722332366857827;16.266208078693634;-0.958984375;0.14453125;0.1005859375;-5.5625;2.125;-2.4375;
1441975577456052;0.44268798828125;-0.50433349609375;-0.5623779296875;-0.48321533203125;17.014019031761066;11.725131920037766;16.275499381475107;-0.9638671875;0.14306640625;0.09228515625;-5.6875;2.3125;-2.3125;
1441975577477054;0.44366455078125;-0.5037841796875;-0.5626220703125;-0.4825439453125;17.019679784139583;11.727489271296644;16.28487614722739;-0.96240234375;0.15283203125;0.0888671875;-6.625;2.625;-2.4375;
1441975577517056;0.444580078125;-0.50360107421875;-0.5626220703125;-0.48193359375;17.026406560288706;11.738915605282148;16.3012121540413;-0.95654296875;0.1513671875;0.09814453125;-6.9375;2.875;-2.75;
1441975577522056;0.4451904296875;-0.50390625;-0.56243896484375;-0.481201171875;17.031153743086094;11.765604789130734;16.330357897972632;-0.9423828125;0.15576171875;0.0947265625;-5.0;4.3125;-2.9375;
1441975577537057;0.44573974609375;-0.504638671875;-0.5623779296875;-0.4801025390625;17.03312080074403;11.810376812403923;16.377582341047997;-0.92333984375;0.1533203125;0.1083984375;-2.125;6.875;-0.75;
1441975577560058;0.4461669921875;-0.50537109375;-0.5625;-0.478759765625;17.03191190548443;11.858969141594061;16.429510457296413;-0.91162109375;0.16650390625;0.09765625;-1.9375;7.625;1.125;
1441975577584060;0.44683837890625;-0.50628662109375;-0.56298828125;-0.47662353515625;17.02753789857061;11.927623189164743;16.50500963982145;-0.9111328125;0.1767578125;0.0966796875;-2.5625;7.9375;2.0;
1441975577597060;0.44781494140625;-0.506591796875;-0.56427001953125;-0.47381591796875;17.018559146798268;11.99041220208669;16.58149507722029;-0.92333984375;0.19091796875;0.0712890625;-6.25;8.625;4.4375;
1441975577620062;0.4488525390625;-0.5072021484375;-0.565673828125;-0.47052001953125;17.006651742793185;12.068702650560041;16.674537108893535;-0.9326171875;0.20068359375;0.0615234375;-13.3125;7.875;6.3125;
1441975577643063;0.44915771484375;-0.50909423828125;-0.56646728515625;-0.4671630859375;16.989274257240613;12.176834028848956;16.790058992997913;-0.9482421875;0.22705078125;0.06396484375;-14.125;9.4375;7.3125;
1441975577657064;0.4490966796875;-0.51153564453125;-0.567138671875;-0.4637451171875;16.966740652537656;12.293149036942957;16.910958500612356;-0.939453125;0.2578125;0.05615234375;-6.4375;12.5625;9.5;
1441975577681065;0.44866943359375;-0.51416015625;-0.56787109375;-0.4603271484375;16.9387040607588;12.404728209291056;17.02572671730262;-0.9228515625;0.2705078125;0.01953125;-4.0;11.375;11.125;
1441975577695066;0.447509765625;-0.5179443359375;-0.56732177734375;-0.45782470703125;16.912177619372706;12.526126045707674;17.138545844245606;-0.8955078125;0.26611328125;0.04736328125;-1.875;12.5;13.25;
1441975577717067;0.44476318359375;-0.5235595703125;-0.56658935546875;-0.45513916015625;16.866041943498075;12.668976207032602;17.262981701466686;-0.85205078125;0.17041015625;0.05078125;10.25;14.75;18.8125;
1441975577740069;0.4412841796875;-0.52960205078125;-0.56744384765625;-0.450439453125;16.79098342385829;12.814051706447996;17.39669088209985;-0.830078125;0.22900390625;0.00927734375;19.875;12.9375;24.5625;
1441975577756070;0.43890380859375;-0.53363037109375;-0.5709228515625;-0.4434814453125;16.701905508811674;12.919192301060376;17.513520995281375;-0.80029296875;0.33154296875;-0.0185546875;12.75;12.4375;31.75;
1441975577778071;0.43707275390625;-0.536376953125;-0.5758056640625;-0.43560791015625;16.60722297637403;12.990630236956466;17.608658349179834;-0.73583984375;0.333984375;-0.0234375;-10.375;10.875;37.6875;
1441975577799072;0.4344482421875;-0.54010009765625;-0.580322265625;-0.4276123046875;16.503194216478047;13.063855600218401;17.699832793352094;-0.6826171875;0.2978515625;-0.005859375;-22.0625;10.4375;41.8125;
1441975577815073;0.43121337890625;-0.5452880859375;-0.58428955078125;-0.41876220703125;16.38548795117808;13.154335267948579;17.80322519338923;-0.63671875;0.283203125;0.0;-15.8125;11.9375;47.125;
1441975577839074;0.42864990234375;-0.54998779296875;-0.58843994140625;-0.4093017578125;16.268354283026436;13.234345630303556;17.90186251312876;-0.615234375;0.35009765625;-0.04248046875;-10.875;15.0625;50.3125;
1441975577859075;0.42645263671875;-0.55364990234375;-0.593017578125;-0.4000244140625;16.156072322188447;13.28879881799854;17.97978487565677;-0.59912109375;0.3408203125;-0.07861328125;-16.875;15.625;50.875;
1441975577875076;0.42401123046875;-0.55712890625;-0.59716796875;-0.3914794921875;16.048936883088246;13.331035229805417;0.042028581492056946;-0.55126953125;0.28857421875;-0.0625;-21.375;14.125;51.0625;
1441975577900078;0.42095947265625;-0.5621337890625;-0.60003662109375;-0.3831787109375;15.937582758191873;13.388811385611618;0.10923512726622273;-0.521484375;0.25390625;-0.0380859375;-17.8125;13.3125;50.0;
1441975577919079;0.41815185546875;-0.568359375;-0.60113525390625;-0.37530517578125;15.831886952953585;13.466393410453623;0.1870158473198345;-0.5244140625;0.3115234375;-0.02978515625;-6.5;17.9375;49.3125;
1441975577936080;0.41607666015625;-0.57452392578125;-0.60113525390625;-0.3681640625;15.739505689114115;13.546870914941852;0.2646295012287393;-0.55810546875;0.3466796875;-0.0654296875;3.0;21.9375;45.5;
1441975577958081;0.4146728515625;-0.57958984375;-0.60089111328125;-0.362060546875;15.663639445215999;13.61358707328701;0.3298599773231143;-0.62060546875;0.34228515625;-0.1083984375;6.0;22.8125;40.3125;
1441975577979082;0.41351318359375;-0.58447265625;-0.60040283203125;-0.35638427734375;15.593117100554512;13.676464457535088;0.39050617534459353;-0.62744140625;0.298828125;-0.087890625;4.75;21.625;35.375;
1441975577995083;0.41265869140625;-0.58941650390625;-0.59906005859375;-0.35137939453125;15.531210900942037;13.742801752917593;0.45083062941189633;-0.58740234375;0.2958984375;-0.07861328125;5.5;22.125;32.0625;
1441975578018084;0.41217041015625;-0.5950927734375;-0.59588623046875;-0.34783935546875;15.483985664291454;13.823741894594129;0.5149257071041237;-0.58203125;0.291015625;-0.0712890625;10.0;24.0;27.3125;
1441975578039086;0.4112548828125;-0.60198974609375;-0.59063720703125;-0.34600830078125;15.44627081364365;13.919771262392937;0.5780937841465446;-0.62451171875;0.28662109375;-0.09228515625;21.0;25.375;21.125;
1441975578055087;0.4107666015625;-0.608154296875;-0.5853271484375;-0.34478759765625;15.418085694325208;14.009754461841673;0.6365872030427107;-0.701171875;0.31005859375;-0.1318359375;36.375;23.75;16.1875;
1441975578078088;0.41168212890625;-0.61187744140625;-0.5821533203125;-0.34246826171875;15.394393841658605;14.075740132071125;0.6918631105379597;-0.7314453125;0.29833984375;-0.15625;34.25;21.625;12.9375;
1441975578099089;0.41265869140625;-0.61480712890625;-0.57952880859375;-0.34051513671875;15.375695591936072;14.130030721142132;0.7384753690709333;-0.68310546875;0.29052734375;-0.11669921875;14.5;22.6875;9.625;
1441975578123090;0.41363525390625;-0.6182861328125;-0.5753173828125;-0.34014892578125;15.370241812879826;14.196630154003442;0.7864112139087915;-0.671875;0.28564453125;-0.09130859375;11.625;21.0625;7.0625;
1441975578139091;0.4139404296875;-0.62298583984375;-0.56878662109375;-0.34228515625;15.379809566008236;14.28018130563063;0.8315228094149333;-0.71435546875;0.2548828125;-0.12060546875;21.9375;18.625;3.3125;
1441975578159093;0.4129638671875;-0.62860107421875;-0.56158447265625;-0.344970703125;15.382772656522354;14.36585054488137;0.8687226934978924;-0.80419921875;0.22607421875;-0.14599609375;40.4375;15.625;-0.0625;
1441975578175093;0.41241455078125;-0.63348388671875;-0.5562744140625;-0.34527587890625;15.366880634529279;14.438503997179007;0.9088750149826059;-0.7861328125;0.21044921875;-0.16064453125;49.5;12.3125;3.9375;
1441975578198095;0.412353515625;-0.637451171875;-0.5521240234375;-0.34478759765625;15.348565671975885;14.499724423427237;0.9474509974043943;-0.6875;0.25927734375;-0.1484375;35.0625;16.875;5.5625;
1441975578219096;0.41192626953125;-0.64117431640625;-0.547119140625;-0.34637451171875;15.348618296654394;14.560154405527856;0.9762638434751396;-0.68359375;0.27978515625;-0.1240234375;25.875;18.625;5.4375;
1441975578235097;0.4114990234375;-0.64447021484375;-0.5413818359375;-0.3497314453125;15.36717390748445;14.62170247449977;1.000128162902941;-0.80908203125;0.28369140625;-0.13671875;33.9375;12.75;1.5;
1441975578258098;0.411865234375;-0.647216796875;-0.53594970703125;-0.3525390625;15.386686829992051;14.684622356304287;1.0318530650660633;-0.9482421875;0.26708984375;-0.125;39.6875;9.5;-2.3125;
1441975578279099;0.41265869140625;-0.65032958984375;-0.5302734375;-0.3544921875;15.398171970802382;14.756944621488394;1.0749491980056376;-0.9833984375;0.2783203125;-0.07763671875;35.625;16.4375;-4.0625;
1441975578295100;0.4132080078125;-0.6529541015625;-0.52484130859375;-0.3570556640625;15.415620440835264;14.82227919745665;1.1107272856300352;-1.0078125;0.30419921875;-0.0673828125;35.8125;23.8125;-4.0;
1441975578326102;0.4136962890625;-0.6551513671875;-0.51885986328125;-0.36114501953125;15.448889001489203;14.888936495835601;1.1428936426706262;-1.0498046875;0.28662109375;-0.08544921875;34.75;19.125;-4.125;
1441975578340103;0.4141845703125;-0.65789794921875;-0.51177978515625;-0.36572265625;15.483857846676715;14.969837282966246;1.1830778740889654;-1.16650390625;0.28173828125;-0.09033203125;39.375;15.375;-7.6875;
1441975578355104;0.41571044921875;-0.6585693359375;-0.50665283203125;-0.3699951171875;15.529416143416794;15.03119839151932;1.219609241636272;-1.34716796875;0.3291015625;-0.1689453125;45.0;15.5625;-9.125;
1441975578379105;0.41741943359375;-0.6590576171875;-0.50250244140625;-0.372802734375;15.56198517787614;15.08644984126352;1.2582070658574722;-1.42041015625;0.32421875;-0.1162109375;30.25;16.0625;-12.125;
1441975578399106;0.4195556640625;-0.659423828125;-0.4984130859375;-0.37518310546875;15.592224027296357;15.14564125678423;1.3037879925963853;-1.34716796875;0.30908203125;-0.10693359375;22.125;18.9375;-8.75;
1441975578415107;0.42120361328125;-0.659912109375;-0.49456787109375;-0.3775634765625;15.619167489479157;15.200000600424392;1.3434595174600754;-1.369140625;0.25244140625;-0.18896484375;17.1875;17.0;-5.6875;
1441975578438109;0.4217529296875;-0.6610107421875;-0.49127197265625;-0.37933349609375;15.632379943957964;15.24327317832915;1.3703505017154185;-1.3828125;0.22998046875;-0.2568359375;15.5625;11.5625;-2.375;
1441975578461110;0.42303466796875;-0.66094970703125;-0.48980712890625;-0.3798828125;15.642620591694152;15.269217656372417;1.3943924503297835;-1.39306640625;0.26416015625;-0.32080078125;15.5625;7.125;3.8125;
1441975578475111;0.42352294921875;-0.66259765625;-0.486328125;-0.3809814453125;15.645599966989888;15.317202881598298;1.4255781491508912;-1.38232421875;0.2900390625;-0.23486328125;3.125;12.25;3.6875;
1441975578498112;0.42315673828125;-0.664794921875;-0.48236083984375;-0.38262939453125;15.647486581437686;15.365302805411106;1.449704541501844;-1.36376953125;0.2578125;-0.27197265625;17.5625;14.25;5.5;
1441975578519113;0.42254638671875;-0.66778564453125;-0.478759765625;-0.382568359375;15.62762070489525;15.410884108806943;1.4741652313943245;-1.2783203125;0.30419921875;-0.24658203125;25.8125;13.0625;2.5625;
1441975578535114;0.42376708984375;-0.670166015625;-0.476318359375;-0.38006591796875;15.593492843005482;15.456727831274272;1.5165007928466188;-1.1533203125;0.3447265625;-0.29833984375;22.125;14.8125;5.3125;
1441975578558115;0.424560546875;-0.67376708984375;-0.4730224609375;-0.3770751953125;15.54554963736054;15.511034660712607;1.561283422869404;-1.14794921875;0.28564453125;-0.380859375;4.0;20.5625;9.875;
1441975578579117;0.4263916015625;-0.67742919921875;-0.46807861328125;-0.37445068359375;15.502188053123984;15.589475892665929;1.6271066985829346;-1.14599609375;0.310546875;-0.44091796875;9.5625;22.5625;12.375;
1441975578595117;0.42742919921875;-0.68145751953125;-0.46234130859375;-0.37310791015625;15.464961495843442;15.66924721154383;1.6847866397954645;-1.12158203125;0.2529296875;-0.44775390625;13.8125;28.5625;7.0625;
1441975578618119;0.42529296875;-0.6884765625;-0.45391845703125;-0.37298583984375;15.411205295278377;15.759027253378509;1.7225292938003556;-1.20068359375;0.2724609375;-0.43017578125;23.625;28.0;5.9375;
1441975578639120;0.42474365234375;-0.69439697265625;-0.4478759765625;-0.3699951171875;15.341061467848593;15.828769015244637;1.763358795871416;-1.291015625;0.3671875;-0.5380859375;52.3125;24.4375;12.6875;
1441975578655121;0.42724609375;-0.69793701171875;-0.44281005859375;-0.36651611328125;15.286390784187757;15.902481183316482;1.8286477757840276;-1.21533203125;0.42333984375;-0.513671875;31.75;33.1875;10.9375;
1441975578678122;0.431884765625;-0.701416015625;-0.43682861328125;-0.36151123046875;15.218298463868244;15.995406259657557;1.9212640417384388;-1.27734375;0.32763671875;-0.427734375;13.875;43.875;3.8125;
1441975578699123;0.44281005859375;-0.70562744140625;-0.43304443359375;-0.34429931640625;15.038371480134863;16.085655690430585;2.0691600794672107;-1.33203125;0.1689453125;-0.4609375;5.375;58.4375;7.8125;
1441975578715124;0.46661376953125;-0.6871337890625;-0.44476318359375;-0.33526611328125;15.113077488254872;16.091966334641608;2.2633776973319155;-1.322265625;-0.04052734375;-1.09228515625;-45.4375;107.0;9.5;
1441975578738126;0.47711181640625;-0.66424560546875;-0.473876953125;-0.3265380859375;15.23684376825478;15.836143777382336;2.2187375427409273;-1.9912109375;0.71484375;-0.2646484375;-159.875;38.625;-98.5625;
1441975578761127;0.4595947265625;-0.685302734375;-0.46820068359375;-0.31622314453125;14.973647542088809;15.79263964474065;2.0737860000139707;-1.94775390625;-0.1298828125;0.48046875;-214.875;-41.625;-12.3125;
1441975578782128;0.44036865234375;-0.71051025390625;-0.4364013671875;-0.3328857421875;14.902424808947028;16.028072274451816;2.032119881007865;-0.81884765625;0.359375;-0.3818359375;83.375;46.0;141.5;
1441975578798129;0.4224853515625;-0.72064208984375;-0.4417724609375;-0.32720947265625;14.765546183792635;15.883898708448442;1.8354468795684058;-1.26953125;1.03173828125;-1.06201171875;272.8125;5.6875;30.875;
1441975578821130;0.40985107421875;-0.72308349609375;-0.4556884765625;-0.3187255859375;14.655387956068465;15.690634691093774;1.6626297870108337;-1.1806640625;1.73681640625;-0.53466796875;58.6875;-13.5625;48.0;
1441975578842132;0.3951416015625;-0.72613525390625;-0.46856689453125;-0.3116455078125;14.53683348482708;15.509252931887534;1.4861953332960722;-1.0322265625;0.7392578125;-0.31298828125;-45.125;-23.875;101.9375;
1441975578858133;0.3809814453125;-0.7305908203125;-0.48138427734375;-0.299072265625;14.348755689979933;15.347746334816811;1.3424385857113117;-0.771484375;0.8115234375;0.1083984375;-29.625;-27.3125;104.25;
1441975578881134;0.36468505859375;-0.73583984375;-0.49371337890625;-0.28619384765625;14.137015540490271;15.198111848432141;1.2007766520884833;-0.89453125;0.666015625;-0.14208984375;-41.75;-2.9375;123.6875;
1441975578902135;0.349365234375;-0.7369384765625;-0.50811767578125;-0.27703857421875;13.975651330281632;15.036795838008445;1.058792472896152;-1.18359375;0.77490234375;-0.41845703125;-36.3125;-7.75;136.5;
1441975578918136;0.33465576171875;-0.7342529296875;-0.5286865234375;-0.26348876953125;13.77951817609577;14.836546086636712;0.9234978491804616;-1.23095703125;0.61669921875;-0.357421875;-51.5625;-30.5625;120.3125;
1441975578941137;0.31878662109375;-0.73480224609375;-0.54638671875;-0.24493408203125;13.509301280393311;14.681651710076634;0.8263195020915463;-1.01416015625;0.67724609375;-0.060546875;-95.875;-26.4375;130.3125;
1441975578962138;0.301513671875;-0.7384033203125;-0.55828857421875;-0.22857666015625;13.238977511072989;14.581276691327744;0.7455059419403116;-0.67724609375;0.61572265625;-0.03857421875;-81.875;-0.375;150.75;
1441975578978139;0.28521728515625;-0.742919921875;-0.56719970703125;-0.21240234375;12.972298461540092;14.513317725919629;0.6875140125497867;-0.57177734375;0.68896484375;-0.04541015625;-42.0625;0.3125;145.9375;
1441975579001141;0.26678466796875;-0.7493896484375;-0.5726318359375;-0.1986083984375;12.709524129855058;14.47165199316786;0.6240198073619969;-0.6181640625;0.73193359375;-0.18896484375;-28.9375;7.625;139.9375;
1441975579022142;0.24755859375;-0.75445556640625;-0.57855224609375;-0.18670654296875;12.462025433584714;14.424143778638177;0.5516680249973052;-0.693359375;0.81201171875;-0.46826171875;-4.25;-3.8125;141.0;
1441975579039143;0.22711181640625;-0.7586669921875;-0.5845947265625;-0.17657470703125;12.223643028709937;14.374470513507923;0.4699776927619312;-0.4873046875;0.71875;-0.50390625;-8.625;-18.1875;135.6875;
1441975579061144;0.20538330078125;-0.76171875;-0.592041015625;-0.16485595703125;11.96232739891267;14.31741845009509;0.38899731239729146;-0.47900390625;0.71728515625;-0.33740234375;-6.375;-29.0625;134.1875;
1441975579084145;0.18243408203125;-0.7635498046875;-0.60076904296875;-0.15130615234375;11.675732939348329;14.254463262613578;0.31112817774849755;-0.50390625;0.68505859375;-0.23779296875;-16.0;-28.5625;146.5;
1441975579098146;0.15838623046875;-0.7662353515625;-0.60693359375;-0.13970947265625;11.397412110562477;14.210488437914897;0.22951827706639757;-0.41015625;0.63330078125;-0.166015625;-26.1875;-27.0;157.9375;
1441975579121148;0.1357421875;-0.77081298828125;-0.6082763671875;-0.13238525390625;11.166551451764494;14.200628290570046;0.14866133143386728;-0.33154296875;0.671875;-0.16943359375;-9.0;-35.9375;153.5;
1441975579142149;0.11602783203125;-0.77557373046875;-0.60675048828125;-0.13031005859375;11.00533128659915;14.20808419144758;0.06661899202752443;-0.287109375;0.69091796875;-0.1865234375;21.25;-44.5625;130.3125;
1441975579166150;0.101318359375;-0.77716064453125;-0.607177734375;-0.1309814453125;10.906269134807795;14.199228313194377;17.995221168757386;-0.30615234375;0.765625;-0.20458984375;35.8125;-54.6875;97.875;
1441975579181151;0.09173583984375;-0.77239990234375;-0.614013671875;-0.13433837890625;10.867232774638188;14.140167747058406;17.929668107690414;-0.3212890625;0.7294921875;-0.23193359375;12.0625;-53.5;68.375;
1441975579202152;0.08648681640625;-0.76617431640625;-0.62109375;-0.140869140625;10.886017030541533;14.075672878914144;17.8714363344516;-0.294921875;0.6201171875;-0.1552734375;-38.875;-54.9375;38.5625;
1441975579218153;0.0838623046875;-0.76116943359375;-0.62493896484375;-0.1519775390625;10.96430662525082;14.028482589833189;17.81040898592168;-0.26611328125;0.46435546875;-0.14404296875;-49.3125;-55.375;9.0;
1441975579248155;0.0826416015625;-0.75677490234375;-0.62628173828125;-0.16839599609375;11.099860226411037;13.990082276008426;17.73623983011348;-0.31982421875;0.345703125;-0.12451171875;-30.9375;-63.3125;-14.875;
1441975579262156;0.085205078125;-0.75225830078125;-0.62542724609375;-0.18902587890625;11.301394282356437;13.957162515296748;17.662298620493708;-0.30810546875;0.384765625;-0.09423828125;-14.5;-79.1875;-44.625;
1441975579286157;0.0926513671875;-0.7459716796875;-0.62445068359375;-0.21234130859375;11.562483712472028;13.914554812296458;17.595292069538452;-0.3125;0.43603515625;-0.12255859375;-8.75;-84.6875;-80.125;
1441975579301158;0.1043701171875;-0.73858642578125;-0.6219482421875;-0.238525390625;11.882346008151695;13.869462013784066;17.53192187103871;-0.39599609375;0.3974609375;-0.189453125;-17.1875;-80.4375;-116.875;
1441975579322159;0.11822509765625;-0.73187255859375;-0.61590576171875;-0.26666259765625;12.240653553147993;13.837249035728265;17.469610698621366;-0.458984375;0.28076171875;-0.17138671875;-18.0;-78.375;-146.25;
1441975579338160;0.1348876953125;-0.72589111328125;-0.605712890625;-0.2967529296875;12.64548837169844;13.821789455588807;17.41300155661883;-0.42333984375;0.25439453125;-0.13330078125;-2.125;-75.625;-167.6875;
1441975579361161;0.15557861328125;-0.71820068359375;-0.5931396484375;-0.3291015625;13.10859170632908;13.804195103171715;17.360299577978306;-0.4140625;0.30712890625;-0.150390625;14.8125;-70.5625;-193.25;
1441975579382163;0.17926025390625;-0.7078857421875;-0.5784912109375;-0.36358642578125;13.622779118001391;13.775325831397552;17.302143480535754;-0.50244140625;0.34130859375;-0.2041015625;13.1875;-67.8125;-223.25;
1441975579398163;0.20404052734375;-0.6959228515625;-0.56146240234375;-0.39862060546875;14.161704181409197;13.739267602277485;17.23608876861218;-0.61279296875;0.29443359375;-0.201171875;9.0625;-69.4375;-247.9375;
1441975579421165;0.23004150390625;-0.6824951171875;-0.5416259765625;-0.43359375;14.724333667115273;13.697930750195182;17.163941575343415;-0.63720703125;0.283203125;-0.15869140625;12.0625;-68.9375;-261.8125;
1441975579442166;0.25860595703125;-0.6678466796875;-0.5189208984375;-0.466796875;15.310324611912257;13.662938751075393;17.10507037728794;-0.65185546875;0.3408203125;-0.13818359375;16.25;-65.0625;-276.625;
1441975579458167;0.28948974609375;-0.650634765625;-0.4952392578125;-0.4976806640625;15.911169960522132;13.613970414065674;17.048739311225393;-0.77197265625;0.27294921875;-0.20654296875;14.6875;-50.4375;-289.0625;
1441975579481168;0.3193359375;-0.6322021484375;-0.4698486328125;-0.5269775390625;16.507809240003567;13.535507915919709;16.960262098385815;-0.98046875;0.1201171875;-0.24267578125;0.75;-40.875;-294.875;
1441975579503169;0.34674072265625;-0.6129150390625;-0.44244384765625;-0.55535888671875;17.094187152617916;13.34916402540919;16.753118960737723;-1.04150390625;0.03076171875;-0.201171875;4.8125;-38.5;-293.75;
1441975579518170;0.373046875;-0.59161376953125;-0.41412353515625;-0.58258056640625;17.659170531443234;12.42824825195491;15.812006364155737;-1.03271484375;0.01123046875;-0.12109375;16.1875;-39.375;-291.625;
1441975579540172;0.39703369140625;-0.56976318359375;-0.3878173828125;-0.60614013671875;17.695905715614582;6.603100123832719;9.975194081072402;-1.12548828125;-0.12060546875;-0.0810546875;15.6875;-42.1875;-290.875;
1441975579562173;0.41876220703125;-0.54779052734375;-0.36431884765625;-0.6259765625;17.22742850644833;5.571999757014314;8.942931193506123;-1.27490234375;-0.2421875;-0.1201171875;7.6875;-42.6875;-269.125;
1441975579584174;0.43695068359375;-0.5274658203125;-0.3421630859375;-0.643310546875;16.784916810489392;5.353323481244068;8.717571449262467;-1.28564453125;-0.35009765625;-0.14306640625;-2.0;-43.0;-243.1875;
1441975579608175;0.44970703125;-0.51116943359375;-0.31878662109375;-0.659423828125;16.392091022648703;5.263403370457478;8.591890445315986;-1.24365234375;-0.4169921875;-0.0556640625;3.8125;-38.375;-218.9375;
1441975579622176;0.459716796875;-0.49639892578125;-0.2955322265625;-0.67449951171875;16.027544206007637;5.225272789364627;8.507541890064472;-1.322265625;-0.318359375;-0.03466796875;32.625;-27.4375;-198.4375;
1441975579646178;0.468994140625;-0.4813232421875;-0.27398681640625;-0.68804931640625;15.681598530709289;5.212016646916703;8.455070424022066;-1.40380859375;-0.24365234375;-0.076171875;42.8125;-25.25;-186.875;
1441975579660178;0.47552490234375;-0.46649169921875;-0.25177001953125;-0.70208740234375;15.343582681184907;5.228974212742168;8.41868616810792;-1.4189453125;-0.177734375;-0.03857421875;36.125;-27.375;-179.0;
1441975579683180;0.47991943359375;-0.45172119140625;-0.2288818359375;-0.7164306640625;15.010193801171239;5.263515390099103;8.388333717355781;-1.26953125;-0.05029296875;-0.0263671875;49.9375;-29.9375;-176.3125;
1441975579706181;0.48150634765625;-0.4368896484375;-0.20550537109375;-0.73150634765625;14.68281684381074;5.320660127874296;8.366194263065289;-1.12109375;0.025390625;-0.07861328125;61.875;-32.8125;-174.5;
1441975579720182;0.48095703125;-0.4224853515625;-0.18267822265625;-0.7462158203125;14.372947975128746;5.387675255053475;8.346639522310015;-1.03369140625;0.07763671875;-0.11181640625;76.75;-37.8125;-171.125;
1441975579743183;0.48138427734375;-0.40789794921875;-0.1617431640625;-0.7587890625;14.077897197782141;5.44014526230611;8.32668732320203;-0.92578125;0.16357421875;-0.1376953125;83.8125;-39.5;-163.0;
1441975579758184;0.48358154296875;-0.392578125;-0.143310546875;-0.76910400390625;13.794062498454993;5.477117419098722;8.3124322693428;-0.87646484375;0.23388671875;-0.13427734375;68.8125;-39.4375;-156.125;
1441975579780185;0.4847412109375;-0.3773193359375;-0.12615966796875;-0.77899169921875;13.524339180590344;5.51978446266999;8.304618127642128;-0.83935546875;0.18603515625;-0.11181640625;48.25;-42.375;-148.875;
1441975579803187;0.48486328125;-0.36328125;-0.11053466796875;-0.78790283203125;13.281227297519836;5.562686296552758;8.297508588895951;-0.75048828125;0.10986328125;-0.060546875;48.4375;-44.9375;-138.375;
1441975579824188;0.48565673828125;-0.35107421875;-0.09759521484375;-0.79461669921875;13.074531501576756;5.591849388112502;8.289837200261234;-0.623046875;0.08447265625;-0.060546875;48.25;-42.0625;-124.1875;
1441975579840189;0.48468017578125;-0.34429931640625;-0.08953857421875;-0.79913330078125;12.957004981697073;5.617595703295762;8.284123538658235;-0.54345703125;0.01513671875;-0.0390625;34.4375;-35.6875;-105.0625;
1441975579863190;0.47991943359375;-0.34124755859375;-0.08392333984375;-0.80389404296875;12.898877037011417;5.661196917178301;8.282659930989393;-0.5986328125;-0.017578125;-4.8828125E-4;29.875;-29.9375;-84.875;
1441975579884191;0.47216796875;-0.3419189453125;-0.080810546875;-0.8084716796875;12.898897692890246;5.716806136452663;8.284107820868071;-0.67529296875;0.02783203125;0.0048828125;43.75;-24.4375;-62.125;
1441975579900192;0.466064453125;-0.3447265625;-0.08099365234375;-0.81085205078125;12.93815524238182;5.755319534364343;8.288636116771196;-0.7001953125;0.1572265625;-0.07666015625;54.625;-19.5625;-41.0;
1441975579923193;0.46148681640625;-0.34967041015625;-0.0848388671875;-0.81097412109375;13.01939020032941;5.778103312561444;8.298781554183948;-0.63330078125;0.173828125;-0.16552734375;39.9375;-16.0625;-18.9375;
1441975579944195;0.4564208984375;-0.35772705078125;-0.091796875;-0.8095703125;13.15235052600263;5.797027354661111;8.31272325971594;-0.556640625;0.15966796875;-0.13330078125;19.0625;-8.1875;6.0625;
1441975579968196;0.45184326171875;-0.3682861328125;-0.10162353515625;-0.80615234375;13.32844802909149;5.805668638996709;8.328934967738524;-0.564453125;0.22314453125;-0.107421875;9.8125;1.75;27.9375;
1441975579983197;0.4473876953125;-0.380615234375;-0.11419677734375;-0.80120849609375;13.540481280578181;5.809882130215677;8.351516993867065;-0.6357421875;0.19677734375;-0.11962890625;-1.3125;8.125;46.1875;
1441975580006198;0.43841552734375;-0.39617919921875;-0.1285400390625;-0.7965087890625;13.80512327533119;5.84168913005509;8.384141307578464;-0.65625;0.10546875;-0.10791015625;-9.0;12.6875;68.5;
1441975580020199;0.42913818359375;-0.4112548828125;-0.141845703125;-0.79156494140625;14.0608161294005;5.876905075102415;8.41629494284179;-0.6689453125;0.1728515625;-0.0947265625;8.5625;20.125;91.625;
1441975580043200;0.421630859375;-0.4300537109375;-0.15948486328125;-0.7822265625;14.38290873796658;5.886306096694108;8.447414326119425;-0.728515625;0.3115234375;-0.13671875;10.375;34.1875;112.125;
1441975580064202;0.417724609375;-0.44744873046875;-0.18115234375;-0.769775390625;14.715606852952167;5.876291702584421;8.496020485916128;-0.9443359375;0.45361328125;-0.30859375;-14.375;49.1875;136.625;
1441975580080202;0.40887451171875;-0.46734619140625;-0.20159912109375;-0.75750732421875;15.079151680750215;5.8984063832779805;8.547597830920727;-0.97216796875;0.31884765625;-0.314453125;-48.75;44.0;147.6875;
1441975580119205;0.3958740234375;-0.49169921875;-0.2222900390625;-0.74310302734375;15.504969439213063;5.939157638777714;8.598494134961946;-0.951171875;0.294921875;-0.19970703125;-21.8125;54.3125;161.625;
1441975580124205;0.38812255859375;-0.51580810546875;-0.25091552734375;-0.72137451171875;15.987079150286723;5.948048396302005;8.67980535664638;-1.15283203125;0.5556640625;-0.25537109375;-4.875;72.4375;182.3125;
1441975580140206;0.37841796875;-0.5400390625;-0.2843017578125;-0.69598388671875;16.520046330892903;6.034457619756701;8.854349737607416;-1.75439453125;0.5712890625;-0.3720703125;-65.9375;77.75;207.875;
1441975580163207;0.355224609375;-0.5718994140625;-0.31268310546875;-0.67010498046875;17.132000136888372;6.415422540656495;9.242407748430416;-2.1923828125;-0.09423828125;-0.04638671875;-79.5625;81.4375;250.5625;
1441975580184208;0.33612060546875;-0.60089111328125;-0.349609375;-0.63543701171875;17.699472090210726;8.61568314726631;11.517179349796809;-2.09619140625;0.2919921875;0.017578125;-0.25;104.75;287.25;
1441975580200209;0.31451416015625;-0.6226806640625;-0.395263671875;-0.59765625;17.31461773426123;12.85174843104187;15.87008153719777;-2.50146484375;0.2041015625;-0.0546875;-66.625;115.75;326.25;
1441975580231211;0.27532958984375;-0.65460205078125;-0.42803955078125;-0.55902099609375;16.53627272558012;13.597374605519182;16.6068673850715;-2.7431640625;-0.57568359375;0.3134765625;-107.625;78.1875;358.875;
1441975580252212;0.22357177734375;-0.69390869140625;-0.4476318359375;-0.5179443359375;15.675774004218162;13.958178526436347;16.856234230858107;-2.55322265625;-0.669921875;0.2099609375;19.625;99.75;398.0;
