1441975833091674;-0.11102294921875;0.7232666015625;0.661376953125;0.16461181640625;11.264305592659252;13.720378471878396;17.822505845697325;-2.15087890625;0.36376953125;-0.1259765625;-97.1875;111.875;163.9375;
1441975833114675;-0.121337890625;0.68359375;0.7071533203125;0.13348388671875;11.074070927843026;13.390110961718836;17.929850359224954;-1.92041015625;-0.10791015625;-0.21728515625;-252.5;111.75;111.125;
1441975833134676;-0.127197265625;0.63720703125;0.7530517578125;0.10308837890625;10.884283877270319;13.02711347563304;0.020707124013061455;-1.68017578125;-0.67626953125;-0.26806640625;-370.3125;101.9375;93.375;
1441975833151677;-0.12689208984375;0.59368896484375;0.791259765625;0.07257080078125;10.66783879226702;12.703831896329936;0.10716860940842268;-1.39599609375;-1.00244140625;-0.2568359375;-394.375;75.375;103.4375;
1441975833173679;-0.12188720703125;0.57049560546875;0.81085205078125;0.04620361328125;10.450109684623838;12.537103826164644;0.1899556534989242;-1.26123046875;-1.28564453125;-0.10888671875;-350.0625;56.75;123.625;
1441975833194680;-0.11846923828125;0.57720947265625;0.80743408203125;0.02764892578125;10.289990535933486;12.586655352886428;0.2711453243904568;-1.150390625;-1.0380859375;0.0322265625;-189.375;43.125;128.1875;
1441975833211681;-0.11651611328125;0.60235595703125;0.78955078125;0.01312255859375;10.152557990286933;12.769472809190926;0.3507011023352356;-1.11572265625;-0.53271484375;-0.04345703125;32.6875;42.75;120.75;
1441975833233682;-0.1165771484375;0.6298828125;0.767822265625;0.0032958984375;10.055565971722533;12.974748683031718;0.4147019168122368;-1.05908203125;-0.0185546875;-0.19384765625;163.125;49.4375;105.1875;
1441975833254683;-0.11993408203125;0.65240478515625;0.748291015625;-0.0020751953125;10.018287333649104;13.150050880687546;0.46660724502999723;-1.02734375;0.30712890625;-0.24853515625;188.3125;46.3125;77.1875;
1441975833271684;-0.12811279296875;0.66741943359375;0.7335205078125;-0.0035400390625;10.055823570121518;13.277694550771207;0.516307215885767;-1.0244140625;0.560546875;-0.23876953125;160.875;44.3125;41.3125;
1441975833293685;-0.14776611328125;0.67547607421875;0.72235107421875;0.0064697265625;10.284019859347296;13.371457784828843;0.5627352612589176;-1.02783203125;0.75244140625;-0.26025390625;113.1875;47.875;1.3125;
1441975833314687;-0.16754150390625;0.6766357421875;0.71673583984375;0.018798828125;10.54034373284077;13.41631454363897;0.5980078954598222;-1.05322265625;0.88427734375;-0.25634765625;64.5;44.6875;-52.25;
1441975833331688;-0.19329833984375;0.6729736328125;0.712890625;0.03863525390625;10.912402646126994;13.441024970596878;0.6268535785126399;-1.03759765625;0.9697265625;-0.2021484375;32.4375;37.375;-114.1875;
1441975833353689;-0.22467041015625;0.6680908203125;0.70623779296875;0.065673828125;11.389935571599283;13.480374017277512;0.6557695835977712;-0.96142578125;1.0498046875;-0.078125;14.4375;31.4375;-175.625;
1441975833374690;-0.2603759765625;0.6634521484375;0.69427490234375;0.09942626953125;11.957348853594223;13.552914062510373;0.6900169949540043;-0.8984375;0.955078125;0.01806640625;29.0;30.125;-231.0625;
1441975833397691;-0.2974853515625;0.66064453125;0.67486572265625;0.13995361328125;12.590595474231472;13.676668504739586;0.7299898485376977;-0.90185546875;0.890625;0.029296875;57.75;29.1875;-278.125;
1441975833413692;-0.334716796875;0.65679931640625;0.6505126953125;0.18255615234375;13.248044321727615;13.83847736255722;0.7955800120446216;-1.01220703125;0.77392578125;0.07470703125;103.875;22.625;-311.6875;
1441975833434693;-0.3724365234375;0.646484375;0.62677001953125;0.22467041015625;13.923374817411574;13.999774064435696;0.8914306964227805;-1.11962890625;0.78466796875;-0.080078125;120.375;21.75;-327.5625;
1441975833452695;-0.40814208984375;0.623779296875;0.61297607421875;0.2618408203125;14.579589155781864;14.071407885246284;0.9778840897651658;-1.376953125;0.83203125;-0.283203125;90.75;15.625;-339.6875;
1441975833473696;-0.44476318359375;0.59222412109375;0.60430908203125;0.293701171875;15.230428843060198;14.10291264507796;1.0848552054192757;-1.47216796875;0.83544921875;-0.2490234375;2.1875;-9.75;-330.4375;
1441975833494697;-0.48321533203125;0.55877685546875;0.593017578125;0.32025146484375;15.859850748753999;14.226115609230657;1.302044286624545;-1.24169921875;0.58642578125;-0.09033203125;-60.0;-11.9375;-329.5625;
1441975833517698;-0.51593017578125;0.52978515625;0.57781982421875;0.3453369140625;16.418530392625794;14.50575382116668;1.639383101238206;-1.365234375;0.2236328125;-0.04931640625;-74.8125;17.125;-322.375;
1441975833533699;-0.54095458984375;0.50677490234375;0.55908203125;0.37139892578125;16.891530088970708;15.048702054016665;2.1886189277619263;-1.54833984375;-0.02099609375;-0.07373046875;-40.5625;21.0625;-291.4375;
1441975833562701;-0.55853271484375;0.48974609375;0.53826904296875;0.39794921875;17.23767959896688;16.07165246947164;3.1731584786792006;-1.484375;-0.11767578125;-0.0556640625;7.6875;15.125;-261.3125;
1441975833577702;-0.57098388671875;0.476806640625;0.517578125;0.4227294921875;17.383845407240575;17.71054127234836;4.753669665884081;-1.4267578125;-0.11083984375;-0.02392578125;50.9375;9.75;-229.625;
1441975833593703;-0.5806884765625;0.46490478515625;0.5009765625;0.4422607421875;17.32813518135518;1.206363965718178;6.2077916691278325;-1.33056640625;-0.0283203125;-0.08056640625;68.9375;6.5625;-199.125;
1441975833622704;-0.5889892578125;0.45318603515625;0.48931884765625;0.45635986328125;17.191298666456206;2.0985640498662876;7.083822608107812;-1.2626953125;0.02783203125;-0.09716796875;50.5625;1.5625;-165.3125;
1441975833637705;-0.59625244140625;0.44219970703125;0.48150634765625;0.46588134765625;17.04952259813911;2.58887201363376;7.577242849138425;-1.1865234375;0.07666015625;-0.06787109375;23.5625;-3.625;-134.3125;
1441975833653706;-0.60198974609375;0.4327392578125;0.4786376953125;0.47027587890625;16.95374306721869;2.8404362520971125;7.8520894270848425;-1.11181640625;0.1064453125;-0.0732421875;3.1875;-6.25;-107.5;
1441975833674707;-0.60687255859375;0.42425537109375;0.47802734375;0.472412109375;16.883667288902835;3.0033608361213515;8.04599486271201;-1.0107421875;0.09619140625;-0.076171875;-17.9375;-9.0;-84.25;
1441975833697709;-0.60931396484375;0.417724609375;0.4786376953125;0.4744873046875;16.843602879287342;3.141681363401243;8.206217812967552;-0.94873046875;0.021484375;-0.0771484375;-26.5;-11.6875;-61.625;
1441975833713709;-0.608642578125;0.41461181640625;0.4803466796875;0.476318359375;16.844465618094283;3.24868325988923;8.3199349381834;-0.88037109375;-0.03466796875;-0.06494140625;-18.125;-16.875;-41.25;
1441975833736711;-0.60595703125;0.41436767578125;0.483642578125;0.47662353515625;16.886139302136694;3.312447506942003;8.38508014093415;-0.80615234375;-0.0146484375;-0.05029296875;-3.625;-19.375;-19.0;
1441975833757712;-0.60223388671875;0.414794921875;0.48956298828125;0.474853515625;16.96397827250085;3.3617198203114356;8.444239951873561;-0.810546875;-0.0029296875;-0.091796875;0.75;-22.1875;3.75;
1441975833781713;-0.59637451171875;0.416015625;0.49774169921875;0.47271728515625;17.077117782084358;3.448998506581707;8.540358736664707;-0.892578125;-0.1171875;-0.1396484375;-7.625;-30.6875;29.0625;
1441975833796714;-0.587158203125;0.41998291015625;0.5076904296875;0.47015380859375;17.237907641990475;3.568880037637167;8.657690882828069;-0.9169921875;-0.22607421875;-0.099609375;-7.375;-39.8125;52.1875;
1441975833817715;-0.5758056640625;0.42694091796875;0.51800537109375;0.46673583984375;17.431151072450863;3.6898442447811877;8.764857886288809;-0.865234375;-0.1875;-0.0830078125;3.8125;-46.4375;75.4375;
1441975833833716;-0.562255859375;0.43548583984375;0.5291748046875;0.4627685546875;17.652488977751954;3.9483896558116043;9.002929839030879;-0.8837890625;-0.13134765625;-0.1181640625;15.125;-47.5625;91.625;
1441975833856718;-0.54766845703125;0.4454345703125;0.540283203125;0.4580078125;17.881845712273037;4.963870122796509;9.993223248485705;-0.96630859375;-0.076171875;-0.13623046875;21.25;-46.5625;103.3125;
1441975833885719;-0.53240966796875;0.455810546875;0.55126953125;0.45257568359375;17.84494088371839;11.485195114985181;16.488077388312327;-1.04345703125;-0.01025390625;-0.14306640625;26.0;-44.3125;112.0625;
1441975833893720;-0.51666259765625;0.46630859375;0.56219482421875;0.44659423828125;17.597857664647965;12.182426610664612;17.1587181274421;-1.05908203125;0.02001953125;-0.123046875;26.9375;-43.125;117.25;
1441975833916721;-0.5006103515625;0.47705078125;0.57244873046875;0.4405517578125;17.346719816843624;12.373424429883194;17.31995754347102;-1.029296875;0.052734375;-0.0927734375;27.375;-42.5;120.4375;
1441975833941722;-0.48468017578125;0.4876708984375;0.58172607421875;0.43450927734375;17.102452736073182;12.478282426918437;17.39310481635165;-1.0009765625;0.09814453125;-0.05908203125;30.0;-40.25;120.625;
1441975833959724;-0.4696044921875;0.49774169921875;0.5899658203125;0.428466796875;16.87286655951987;12.554039443929618;17.438252048834038;-1.00244140625;0.1611328125;-0.03955078125;32.375;-37.0;116.875;
1441975833976724;-0.45587158203125;0.50653076171875;0.59771728515625;0.4222412109375;16.659943560640414;12.605871140306398;17.466151318015804;-1.0107421875;0.224609375;-0.02392578125;30.75;-32.875;110.3125;
1441975833997726;-0.4443359375;0.51373291015625;0.604736328125;0.415771484375;16.4725057207184;12.647771944079865;17.493596963645707;-0.998046875;0.23388671875;-0.013671875;24.375;-29.3125;102.3125;
1441975834013727;-0.43402099609375;0.51995849609375;0.61114501953125;0.40948486328125;16.302232614065154;12.679905445116816;17.515305680222355;-0.96533203125;0.2080078125;0.01123046875;14.375;-26.1875;94.5;
1441975834036728;-0.42510986328125;0.52569580078125;0.6162109375;0.4039306640625;16.155921509837167;12.713041498990313;17.537391950743707;-0.90771484375;0.212890625;0.0361328125;10.6875;-21.875;86.8125;
1441975834057729;-0.41802978515625;0.5308837890625;0.61956787109375;0.39935302734375;16.040354698198918;12.750351218210755;17.562635137881404;-0.876953125;0.2548828125;0.0390625;11.5;-16.25;74.125;
1441975834079730;-0.41314697265625;0.53485107421875;0.62158203125;0.39599609375;15.959801811236089;12.782270195406351;17.58480023487558;-0.8798828125;0.3017578125;0.03466796875;12.3125;-10.75;57.625;
1441975834096731;-0.41021728515625;0.53729248046875;0.62286376953125;0.3936767578125;15.90911803434273;12.802894104163821;17.600509358412307;-0.8896484375;0.3037109375;0.01953125;9.75;-6.8125;41.9375;
1441975834117733;-0.40863037109375;0.538818359375;0.6234130859375;0.39239501953125;15.881577046943173;12.817164687159526;17.611169342266813;-0.88427734375;0.28759765625;0.0263671875;4.8125;-4.5;28.75;
1441975834133733;-0.408447265625;0.5396728515625;0.62274169921875;0.3924560546875;15.881186757506562;12.829999960083384;17.618843370339658;-0.84814453125;0.2734375;0.03515625;3.5;-2.4375;17.0;
1441975834156735;-0.4097900390625;0.54010009765625;0.62066650390625;0.39373779296875;15.908356355951533;12.847362896924746;17.628959326361258;-0.830078125;0.26904296875;0.041015625;5.0;0.5625;3.6875;
1441975834177736;-0.41229248046875;0.53985595703125;0.61785888671875;0.39593505859375;15.955791178696149;12.862432033564739;17.637226653723413;-0.82421875;0.25341796875;0.02978515625;7.125;3.75;-9.0;
1441975834193737;-0.41546630859375;0.539306640625;0.6142578125;0.39886474609375;16.017794180618598;12.878835893241884;17.645201950020855;-0.7958984375;0.23046875;0.041015625;7.0625;6.5;-18.5;
1441975834223739;-0.4193115234375;0.53851318359375;0.6099853515625;0.40252685546875;16.093476697537028;12.89656481431142;17.65303700976608;-0.7666015625;0.22265625;0.0419921875;8.8125;8.375;-26.625;
1441975834237739;-0.42376708984375;0.53704833984375;0.6053466796875;0.4068603515625;16.181961316706307;12.90833922014274;17.655617699322647;-0.76611328125;0.21484375;0.033203125;9.8125;9.0;-33.75;
1441975834253740;-0.4287109375;0.534912109375;0.60040283203125;0.4117431640625;16.281361948370307;12.913259491307917;17.652244084748336;-0.779296875;0.20263671875;0.02294921875;8.9375;8.125;-39.875;
1441975834276742;-0.43341064453125;0.532470703125;0.59552001953125;0.41705322265625;16.38212863875687;12.90757302395942;17.637410512400194;-0.78564453125;0.1728515625;0.015625;7.75;6.6875;-44.25;
1441975834297743;-0.43780517578125;0.53021240234375;0.5902099609375;0.42279052734375;16.4846679445024;12.900471932722883;17.617321572757874;-0.76904296875;0.16357421875;0.03515625;8.6875;5.1875;-46.75;
1441975834313744;-0.4420166015625;0.528076171875;0.58441162109375;0.42913818359375;16.59143779530742;12.889686252597688;17.589523376957676;-0.74072265625;0.16357421875;0.0263671875;12.0;4.5;-49.25;
1441975834335745;-0.44580078125;0.5260009765625;0.57843017578125;0.43585205078125;16.69775084894676;12.870261778415102;17.550154354132953;-0.73876953125;0.15478515625;0.0263671875;15.8125;3.1875;-51.8125;
1441975834358746;-0.44927978515625;0.52398681640625;0.5723876953125;0.44256591796875;16.80180493491687;12.844595765497786;17.50338269587131;-0.76904296875;0.16455078125;0.0283203125;18.625;1.8125;-53.4375;
1441975834372747;-0.45257568359375;0.521728515625;0.5665283203125;0.44940185546875;16.90467633228484;12.801140350093501;17.439222304350515;-0.79443359375;0.1806640625;0.0166015625;19.625;0.0;-54.25;
1441975834395748;-0.4556884765625;0.51934814453125;0.56048583984375;0.45654296875;17.00876623128502;12.738791806456586;17.354638553340923;-0.82958984375;0.18603515625;0.01953125;19.25;-1.5;-55.1875;
1441975834417750;-0.45806884765625;0.51708984375;0.55462646484375;0.46380615234375;17.105449890736587;12.648876719885202;17.240260150280616;-0.87158203125;0.16357421875;0.02685546875;20.4375;-2.75;-55.375;
1441975834432751;-0.45989990234375;0.51531982421875;0.548828125;0.4708251953125;17.19358050490612;12.546609414144145;17.111468467167114;-0.88720703125;0.16064453125;0.05322265625;23.0625;-3.75;-53.625;
1441975834455752;-0.46173095703125;0.513671875;0.5433349609375;0.47705078125;17.274704449091736;12.437857613948685;16.979034030293835;-0.8955078125;0.1875;0.06640625;24.9375;-2.875;-52.375;
1441975834477753;-0.46405029296875;0.511474609375;0.5389404296875;0.482177734375;17.348012168959922;12.304868370491588;16.831665638692648;-0.9306640625;0.2060546875;0.05322265625;22.3125;-1.625;-50.875;
1441975834492754;-0.46697998046875;0.50823974609375;0.5361328125;0.48590087890625;17.410870174731222;12.132247433088281;16.65798597458187;-0.95556640625;0.1923828125;0.05029296875;13.125;-1.8125;-47.25;
1441975834515755;-0.47021484375;0.50439453125;0.5350341796875;0.48797607421875;17.457962283375476;11.94222257785383;16.479159978915884;-0.94873046875;0.15380859375;0.05810546875;-0.1875;-2.5625;-40.75;
1441975834537757;-0.4736328125;0.50030517578125;0.53564453125;0.48822021484375;17.48788161435257;11.771627871053969;16.33114108272097;-0.94580078125;0.1142578125;0.0625;-12.1875;-2.8125;-31.9375;
1441975834552757;-0.47705078125;0.495849609375;0.53778076171875;0.48712158203125;17.50268717629881;11.61324042841261;16.204606253196395;-0.9765625;0.08203125;0.05029296875;-23.3125;-3.25;-20.8125;
1441975834575759;-0.4793701171875;0.49200439453125;0.5406494140625;0.48553466796875;17.500522872916335;11.490427483235795;16.11225543658038;-1.03515625;0.00390625;0.0458984375;-31.875;-5.4375;-7.875;
1441975834614761;-0.479736328125;0.49005126953125;0.54364013671875;0.4837646484375;17.4794848435718;11.459847990972142;16.101998919369546;-1.04345703125;-0.06201171875;0.0537109375;-30.6875;-7.1875;5.125;
1441975834617761;-0.47802734375;0.49066162109375;0.546630859375;0.4815673828125;17.439021226005277;11.552362535050076;16.202760707327535;-1.0146484375;-0.072265625;0.07275390625;-19.6875;-6.6875;17.3125;
1441975834636762;-0.474853515625;0.4927978515625;0.55010986328125;0.47845458984375;17.378889905113255;11.712472682112487;16.366597686531087;-1.0166015625;-0.0205078125;0.0712890625;-7.125;-5.125;28.3125;
1441975834657763;-0.47100830078125;0.49517822265625;0.55511474609375;0.47406005859375;17.296880157350234;11.873097672791264;16.5363951369045;-1.0;0.044921875;0.05810546875;-2.9375;-5.25;37.25;
1441975834672764;-0.467041015625;0.497314453125;0.56146240234375;0.46826171875;17.19885065316088;12.014762184551406;16.695510712353833;-0.95458984375;0.0830078125;0.07275390625;-7.9375;-6.125;46.0625;
1441975834695766;-0.463134765625;0.4993896484375;0.56866455078125;0.461181640625;17.08960874265791;12.142788495015147;16.847535945809206;-0.92919921875;0.0947265625;0.07763671875;-16.0625;-6.625;53.875;
1441975834717767;-0.459228515625;0.50146484375;0.57623291015625;0.45343017578125;16.973775957474047;12.250100196463023;16.981897690226983;-0.9345703125;0.11962890625;0.07275390625;-22.125;-5.9375;59.75;
1441975834732768;-0.45513916015625;0.5035400390625;0.5838623046875;0.44537353515625;16.853495480272016;12.336109018671477;17.095583224821855;-0.9541015625;0.12255859375;0.068359375;-25.0;-5.375;64.125;
1441975834755769;-0.4508056640625;0.5057373046875;0.5914306640625;0.437255859375;16.72999584281579;12.405161960722278;17.191349768960126;-0.9619140625;0.1298828125;0.0673828125;-25.375;-5.5;67.125;
1441975834777770;-0.4461669921875;0.50823974609375;0.5985107421875;0.4293212890625;16.606283369061753;12.46461524836227;17.273930724280042;-0.9638671875;0.13916015625;0.072265625;-24.6875;-6.125;69.0625;
1441975834792771;-0.44140625;0.51080322265625;0.60491943359375;0.42218017578125;16.488551283228382;12.509000700689555;17.336738816082622;-0.97705078125;0.14990234375;0.0498046875;-21.0;-7.125;69.4375;
1441975834815772;-0.43646240234375;0.51336669921875;0.6104736328125;0.4161376953125;16.37935716134941;12.539703011048616;17.379730289074228;-1.00830078125;0.142578125;0.04150390625;-16.375;-9.0;68.5;
1441975834837774;-0.43084716796875;0.51629638671875;0.61553955078125;0.41094970703125;16.270543141765835;12.562273361651254;17.40772674236653;-1.03271484375;0.10986328125;0.04052734375;-10.6875;-11.375;67.0;
1441975834854775;-0.42474365234375;0.519775390625;0.61993408203125;0.40625;16.162418430029376;12.586867439612586;17.43141866258895;-1.0029296875;0.111328125;0.0615234375;-4.0625;-12.625;66.5;
1441975834882776;-0.41888427734375;0.52349853515625;0.6234130859375;0.4022216796875;16.064038531040932;12.613806518119398;17.45280667174796;-0.96435546875;0.1357421875;0.0732421875;2.8125;-11.875;64.75;
1441975834897777;-0.41314697265625;0.52703857421875;0.62652587890625;0.398681640625;15.971675212087085;12.635525824484322;17.46735277286776;-0.96630859375;0.1376953125;0.07177734375;7.375;-10.875;61.125;
1441975834914778;-0.4078369140625;0.5302734375;0.6292724609375;0.39556884765625;15.887869191181213;12.653445094516107;17.477870809324195;-0.96923828125;0.15673828125;0.087890625;8.9375;-10.6875;57.75;
1441975834935779;-0.40313720703125;0.53302001953125;0.6317138671875;0.392822265625;15.81401537999052;12.66703587414344;17.48525596475631;-0.97265625;0.171875;0.0927734375;8.75;-9.875;53.5625;
1441975834957781;-0.39910888671875;0.53546142578125;0.6336669921875;0.390380859375;15.750746761628784;12.680643723154382;17.493148069935025;-0.97265625;0.18359375;0.10986328125;8.125;-8.1875;48.375;
1441975834974782;-0.39599609375;0.53741455078125;0.63519287109375;0.3883056640625;15.700541741283772;12.692665389731372;17.501165828406542;-0.95068359375;0.2060546875;0.1123046875;7.625;-6.0625;42.5;
1441975834995783;-0.39404296875;0.5386962890625;0.6363525390625;0.38677978515625;15.666549350435103;12.700757563734127;17.50781680729585;-0.93115234375;0.2265625;0.115234375;5.875;-3.75;34.6875;
1441975835017784;-0.393310546875;0.53900146484375;0.6370849609375;0.38580322265625;15.650561140118334;12.702787204575683;17.511913452556342;-0.9228515625;0.24853515625;0.11376953125;3.125;-1.875;25.6875;
1441975835034785;-0.39361572265625;0.538330078125;0.6376953125;0.3853759765625;15.649454578238752;12.696159191013434;17.511199746298587;-0.921875;0.26220703125;0.115234375;-0.8125;-0.4375;16.125;
1441975835055786;-0.39508056640625;0.53704833984375;0.63751220703125;0.385986328125;15.669333775280371;12.686052448624533;17.506699537436013;-0.90478515625;0.27197265625;0.1220703125;-4.6875;0.375;7.0;
1441975835077787;-0.3975830078125;0.53515625;0.636474609375;0.3878173828125;15.710501161232047;12.670796627692596;17.495667337759706;-0.9072265625;0.2724609375;0.1171875;-5.0625;1.375;-3.4375;
1441975835093788;-0.40093994140625;0.53265380859375;0.634765625;0.390625;15.769135958096975;12.649521379619085;17.477983446519588;-0.92236328125;0.27099609375;0.10791015625;-4.3125;1.75;-14.4375;
1441975835115790;-0.40496826171875;0.5296630859375;0.63226318359375;0.39453125;15.84462257533593;12.621705190841828;17.45153635678531;-0.91943359375;0.263671875;0.11376953125;-4.0625;1.9375;-23.75;
1441975835137791;-0.40948486328125;0.52630615234375;0.62890625;0.399658203125;15.93593679300077;12.58587382929095;17.4134397480038;-0.91650390625;0.24609375;0.1103515625;-2.6875;1.9375;-32.625;
1441975835162792;-0.414306640625;0.52288818359375;0.62481689453125;0.4056396484375;16.03796609899755;12.544979552485952;17.36668322251016;-0.92578125;0.232421875;0.1220703125;0.75;1.9375;-40.875;
1441975835175793;-0.41925048828125;0.51922607421875;0.6202392578125;0.4122314453125;16.146967280750193;12.494542092057657;17.308279706374016;-0.93603515625;0.220703125;0.11767578125;4.0;1.625;-47.375;
1441975835197794;-0.4244384765625;0.5152587890625;0.61529541015625;0.419189453125;16.26194780025397;12.433299607702805;17.23857608337469;-0.93896484375;0.22119140625;0.12548828125;5.6875;1.3125;-52.8125;
1441975835213795;-0.42999267578125;0.5107421875;0.61016845703125;0.426513671875;16.383029917499975;12.35380668911383;17.15170662561537;-0.947265625;0.21240234375;0.11962890625;5.6875;1.0625;-57.1875;
1441975835242797;-0.435546875;0.505859375;0.6051025390625;0.43377685546875;16.502791352340108;12.25557567801831;17.047584924703543;-0.96875;0.18212890625;0.1201171875;4.5625;0.25;-60.375;
1441975835257798;-0.44091796875;0.5008544921875;0.60015869140625;0.44097900390625;16.618094830860098;12.137067426204819;16.923589420162163;-0.96826171875;0.1611328125;0.1201171875;2.875;-0.5625;-61.125;
1441975835280799;-0.44610595703125;0.49603271484375;0.5950927734375;0.44805908203125;16.72910698276705;12.00241136484619;16.782440236693134;-0.9619140625;0.14111328125;0.12646484375;2.375;-1.0625;-60.6875;
1441975835295800;-0.450927734375;0.4913330078125;0.59014892578125;0.45489501953125;16.831862552573302;11.846719024372858;16.61996880186834;-0.9677734375;0.126953125;0.123046875;3.125;-1.125;-59.9375;
1441975835317801;-0.4552001953125;0.4869384765625;0.58551025390625;0.46136474609375;16.92238613252561;11.672168442562356;16.43816659996023;-0.984375;0.1162109375;0.11767578125;3.8125;-2.0;-58.0625;
1441975835341803;-0.45916748046875;0.4825439453125;0.5814208984375;0.4671630859375;17.00031017227621;11.477817106917842;16.23926086721587;-0.9814453125;0.11572265625;0.11328125;3.8125;-3.0;-54.9375;
1441975835355803;-0.46270751953125;0.478515625;0.5777587890625;0.47222900390625;17.065274684920723;11.277385175978743;16.0353788759581;-0.974609375;0.10986328125;0.1162109375;1.625;-3.375;-51.25;
1441975835378805;-0.4658203125;0.474853515625;0.57452392578125;0.476806640625;17.1181334097768;11.071076322132743;15.825988939839931;-0.98388671875;0.1103515625;0.11572265625;0.4375;-3.375;-46.875;
1441975835393806;-0.46826171875;0.4716796875;0.57177734375;0.4808349609375;17.157145293179273;10.87152873301821;15.623043055572868;-0.99560546875;0.1005859375;0.11474609375;0.625;-3.6875;-42.1875;
1441975835415807;-0.47021484375;0.468994140625;0.56951904296875;0.48419189453125;17.18523773881481;10.690608515716036;15.439274440676687;-0.97509765625;0.1025390625;0.11865234375;0.875;-4.0;-36.875;
1441975835437808;-0.47161865234375;0.466796875;0.56781005859375;0.48699951171875;17.202888408568825;10.533940858381982;15.279941951659207;-0.96435546875;0.1005859375;0.11474609375;0.8125;-4.125;-31.3125;
1441975835460809;-0.472412109375;0.4652099609375;0.56671142578125;0.48907470703125;17.211175216292617;10.418053291159316;15.161755374118073;-0.96826171875;0.08544921875;0.1162109375;0.8125;-4.4375;-24.9375;
1441975835475810;-0.47271728515625;0.464111328125;0.5662841796875;0.4903564453125;17.21195563043849;10.345161310461169;15.087980392592417;-0.96728515625;0.09375;0.11376953125;1.0625;-4.6875;-18.3125;
1441975835497811;-0.4727783203125;0.46331787109375;0.56658935546875;0.4906005859375;17.207697227798896;10.31647492638535;15.061943138429818;-0.95703125;0.103515625;0.1142578125;-0.375;-4.5625;-12.1875;
1441975835520813;-0.47259521484375;0.46282958984375;0.5675048828125;0.490234375;17.198871377210313;10.319688734930013;15.069725203107291;-0.966796875;0.1123046875;0.11083984375;-3.375;-4.3125;-5.9375;
1441975835535814;-0.471923828125;0.46246337890625;0.569091796875;0.48944091796875;17.18218786544329;10.346154931748977;15.102176478511344;-0.97265625;0.0986328125;0.1015625;-5.0;-5.0625;0.0;
1441975835557815;-0.470703125;0.462646484375;0.57110595703125;0.48797607421875;17.160161854636804;10.411024818110668;15.173064410860025;-0.966796875;0.09423828125;0.12060546875;-5.875;-5.5625;5.9375;
1441975835574816;-0.46905517578125;0.4632568359375;0.5736083984375;0.486083984375;17.13200177016254;10.5000793788205;15.268306358051339;-0.96435546875;0.1015625;0.12548828125;-5.8125;-5.1875;11.5;
1441975835595817;-0.46728515625;0.46405029296875;0.57659912109375;0.4835205078125;17.0993590365582;10.60659685577138;15.383482802108448;-0.95361328125;0.11376953125;0.12548828125;-5.5;-5.375;16.3125;
1441975835617818;-0.46539306640625;0.4647216796875;0.58013916015625;0.48046875;17.060448473314537;10.715017222191603;15.503570729152035;-0.96484375;0.11669921875;0.12060546875;-7.5625;-5.5;21.0625;
1441975835641820;-0.46319580078125;0.46533203125;0.58416748046875;0.47711181640625;17.01391817176198;10.820997834443997;15.62283004428038;-0.9619140625;0.10546875;0.1259765625;-10.375;-6.5;25.5625;
1441975835655821;-0.46051025390625;0.46673583984375;0.58819580078125;0.47332763671875;16.96255046213313;10.945893358026309;15.758578168580271;-0.955078125;0.1015625;0.134765625;-11.625;-7.0625;29.75;
1441975835677822;-0.4576416015625;0.46820068359375;0.5924072265625;0.4693603515625;16.90625607996011;11.063390349505966;15.887307433910406;-0.97802734375;0.125;0.134765625;-9.1875;-6.25;33.3125;
1441975835700823;-0.4544677734375;0.46954345703125;0.5975341796875;0.46466064453125;16.83807163246792;11.17803039879027;16.017442462372998;-0.96728515625;0.13232421875;0.12939453125;-9.125;-6.9375;35.8125;
1441975835716824;-0.45111083984375;0.47137451171875;0.6029052734375;0.4591064453125;16.763605465582867;11.302927249450237;16.159134458188376;-0.90478515625;0.17529296875;0.14990234375;-13.25;-7.0625;38.5625;
1441975835737825;-0.447998046875;0.47332763671875;0.6085205078125;0.45263671875;16.68561678542533;11.428853306304493;16.30562424364736;-0.86572265625;0.2373046875;0.17578125;-14.5;-2.6875;40.125;
1441975835760827;-0.4456787109375;0.47430419921875;0.6146240234375;0.44561767578125;16.6079998706244;11.529089286432367;16.434588603226754;-0.8662109375;0.2529296875;0.1982421875;-17.375;1.875;43.625;
1441975835776827;-0.44366455078125;0.47430419921875;0.62127685546875;0.4383544921875;16.527559847571183;11.601954595434322;16.542284894851306;-0.92626953125;0.26220703125;0.18212890625;-25.4375;0.25;43.0625;
1441975835797829;-0.44134521484375;0.47369384765625;0.62847900390625;0.4310302734375;16.439917970214054;11.653170630425043;16.63113238665941;-0.94140625;0.234375;0.14990234375;-32.0;-4.625;45.5;
1441975835820830;-0.43865966796875;0.4736328125;0.63555908203125;0.42340087890625;16.34769652157642;11.708776067824619;16.722396121240777;-0.9248046875;0.2197265625;0.16064453125;-34.5625;-7.875;47.75;
1441975835836831;-0.43585205078125;0.47412109375;0.642333984375;0.41534423828125;16.253569671684666;11.770544167891595;16.818401662553992;-0.91015625;0.25537109375;0.1728515625;-32.5;-6.1875;49.8125;
1441975835859832;-0.4334716796875;0.4742431640625;0.64947509765625;0.4066162109375;16.158022530207944;11.825452150949523;16.91299188102215;-0.92919921875;0.27587890625;0.1767578125;-30.375;-3.5625;51.9375;
1441975835880833;-0.430908203125;0.47393798828125;0.6566162109375;0.3980712890625;16.061243667234873;11.865129538087901;16.992762405294343;-0.9296875;0.2919921875;0.16455078125;-35.375;-3.0;53.6875;
1441975835896834;-0.42724609375;0.474365234375;0.66314697265625;0.390625;15.960837346713515;11.898412168578837;17.055975325016494;-0.94189453125;0.27099609375;0.15869140625;-36.1875;-6.0;55.1875;
1441975835917836;-0.42254638671875;0.47613525390625;0.66900634765625;0.383544921875;15.85409726829102;11.940667424874114;17.118357276163245;-0.95654296875;0.25927734375;0.15625;-26.1875;-10.8125;56.5;
1441975835933836;-0.41790771484375;0.4781494140625;0.6746826171875;0.3760986328125;15.746509389242712;11.984738863153488;17.18271097003923;-0.95751953125;0.30859375;0.15380859375;-16.875;-11.75;57.8125;
1441975835964838;-0.41363525390625;0.47967529296875;0.6802978515625;0.36859130859375;15.642519045555554;12.020310926990975;17.2412099604523;-0.94580078125;0.33544921875;0.1591796875;-16.4375;-9.25;58.75;
1441975835977839;-0.40887451171875;0.4814453125;0.68536376953125;0.3621826171875;15.541128780425652;12.048201589587913;17.28507708111417;-0.9609375;0.32421875;0.16259765625;-18.875;-9.125;59.3125;
1441975836000840;-0.40301513671875;0.4840087890625;0.6898193359375;0.3568115234375;15.436249906722711;12.074584407777415;17.317137595525832;-0.96044921875;0.28369140625;0.16455078125;-11.9375;-12.5;59.375;
1441975836016841;-0.396484375;0.4881591796875;0.6932373046875;0.35198974609375;15.330273186108132;12.114003377046657;17.3508684051558;-0.93408203125;0.271484375;0.203125;-1.3125;-13.875;60.1875;
1441975836037842;-0.38983154296875;0.4931640625;0.6956787109375;0.34759521484375;15.228400971772462;12.160553614581746;17.384671205075314;-0.9228515625;0.2900390625;0.19140625;10.125;-13.3125;61.125;
1441975836060844;-0.3829345703125;0.498291015625;0.69781494140625;0.34356689453125;15.127070899971587;12.20426949660488;17.412562059458846;-0.953125;0.314453125;0.18505859375;17.375;-12.25;60.75;
1441975836076845;-0.3759765625;0.50311279296875;0.7000732421875;0.3397216796875;15.025751888473348;12.241253763233061;17.434210556529905;-0.96044921875;0.33056640625;0.19287109375;19.875;-12.9375;60.0;
1441975836097846;-0.36871337890625;0.5081787109375;0.701904296875;0.3363037109375;14.925352598953458;12.27762141818231;17.45105237323325;-0.91845703125;0.32763671875;0.20751953125;19.9375;-13.5625;59.125;
1441975836120847;-0.3612060546875;0.51446533203125;0.7027587890625;0.33306884765625;14.825840858030794;12.325632407334005;17.47161629032583;-0.896484375;0.33447265625;0.2314453125;24.3125;-12.8125;58.125;
1441975836136848;-0.3538818359375;0.52069091796875;0.70330810546875;0.33001708984375;14.730200769035676;12.372174500630255;17.489853050304472;-0.90625;0.38525390625;0.20703125;31.6875;-11.375;57.5625;
1441975836157849;-0.34698486328125;0.52581787109375;0.704345703125;0.3270263671875;14.638370309557951;12.406764615064148;17.50185212914518;-0.900390625;0.41064453125;0.1796875;31.6875;-12.125;54.875;
1441975836180851;-0.34051513671875;0.53033447265625;0.70550537109375;0.323974609375;14.550550533070112;12.436122784937531;17.512192205606357;-0.87158203125;0.41748046875;0.20361328125;25.5625;-12.3125;52.0625;
1441975836196851;-0.33453369140625;0.53466796875;0.70654296875;0.3209228515625;14.467822327687205;12.464741833376308;17.523293523652473;-0.84130859375;0.41796875;0.21435546875;22.6875;-10.5625;49.9375;
1441975836217853;-0.32891845703125;0.5390625;0.7071533203125;0.31781005859375;14.389669896944914;12.495902382935352;17.536692261259166;-0.8388671875;0.4296875;0.21044921875;21.3125;-8.6875;48.3125;
1441975836241854;-0.3238525390625;0.54302978515625;0.7080078125;0.3145751953125;14.315227329982939;12.523524365641759;17.55044245740361;-0.83935546875;0.47705078125;0.1904296875;20.875;-7.625;44.6875;
1441975836256855;-0.3194580078125;0.54620361328125;0.7088623046875;0.3114013671875;14.248564968090562;12.545834798717904;17.563070700433855;-0.82373046875;0.50830078125;0.17236328125;16.25;-6.8125;41.8125;
1441975836277856;-0.3155517578125;0.54901123046875;0.7098388671875;0.30841064453125;14.187294876590041;12.564714321784338;17.574509662917464;-0.81494140625;0.49755859375;0.166015625;11.9375;-6.0;39.125;
1441975836300857;-0.3116455078125;0.55181884765625;0.7105712890625;0.30548095703125;14.127380347402935;12.584045901647478;17.58549980654429;-0.8046875;0.4970703125;0.16943359375;10.0;-5.1875;36.9375;
1441975836316858;-0.3076171875;0.5548095703125;0.71136474609375;0.302490234375;14.065285797516399;12.603897354315594;17.59640739217771;-0.7783203125;0.49658203125;0.171875;10.9375;-4.25;35.6875;
1441975836337860;-0.3035888671875;0.55792236328125;0.71185302734375;0.29962158203125;14.0048630010675;12.625096979766404;17.606977027222193;-0.759765625;0.5126953125;0.18310546875;12.0;-3.8125;35.9375;
1441975836360861;-0.30010986328125;0.56085205078125;0.71246337890625;0.296142578125;13.945322972614195;12.647068189349824;17.622766706241674;-0.73583984375;0.53759765625;0.1787109375;13.3125;-3.25;33.625;
1441975836376862;-0.2972412109375;0.5628662109375;0.71337890625;0.29290771484375;13.893118645968801;12.661486692906802;17.635757426551713;-0.75244140625;0.58154296875;0.1533203125;8.9375;-1.0;33.25;
1441975836397863;-0.29473876953125;0.56402587890625;0.71478271484375;0.28985595703125;13.844985863899666;12.667933179365567;17.645384525396736;-0.74755859375;0.5849609375;0.154296875;3.5625;-1.0625;29.625;
1441975836420864;-0.29241943359375;0.56512451171875;0.71600341796875;0.2869873046875;13.800386535625208;12.674383057962636;17.65462027598661;-0.71533203125;0.556640625;0.1728515625;-0.4375;-1.3125;27.3125;
1441975836436865;-0.2904052734375;0.56683349609375;0.71685791015625;0.28350830078125;13.754758340270339;12.688526678067802;17.67138701747062;-0.6943359375;0.5595703125;0.197265625;0.9375;0.5;25.25;
1441975836457866;-0.28887939453125;0.56805419921875;0.71783447265625;0.28009033203125;13.714191290375489;12.699389289157168;17.688015127577376;-0.70458984375;0.58935546875;0.1767578125;1.875;4.125;26.25;
1441975836480868;-0.28802490234375;0.568359375;0.7193603515625;0.27655029296875;13.678452043330745;12.703320270238319;17.704611924233944;-0.70556640625;0.6064453125;0.169921875;-1.625;4.6875;24.0;
1441975836496869;-0.287353515625;0.56768798828125;0.72149658203125;0.27301025390625;13.644111594067667;12.69861061578937;17.718087602263683;-0.697265625;0.60791015625;0.15966796875;-8.75;4.9375;21.1875;
1441975836518870;-0.2867431640625;0.56744384765625;0.72332763671875;0.26934814453125;13.609770160557963;12.698244901218592;17.734243865323446;-0.66015625;0.59130859375;0.1904296875;-13.8125;4.875;19.875;
1441975836540871;-0.28643798828125;0.56768798828125;0.72442626953125;0.26617431640625;13.582741065716627;12.703149204021031;17.751225736755877;-0.65185546875;0.59619140625;0.1904296875;-11.0625;6.8125;19.5;
1441975836556872;-0.28656005859375;0.5677490234375;0.7254638671875;0.2630615234375;13.560355359240226;12.707617624482182;17.769224709477758;-0.66845703125;0.6142578125;0.17138671875;-7.5;7.4375;17.0;
1441975836577873;-0.2872314453125;0.567138671875;0.72662353515625;0.26031494140625;13.546019105274661;12.707286534278094;17.785340151056765;-0.69482421875;0.63134765625;0.15869140625;-9.5625;7.75;15.1875;
1441975836600875;-0.28790283203125;0.56640625;0.7276611328125;0.25830078125;13.537004780613161;12.704748875186795;17.796854118657457;-0.70068359375;0.626953125;0.15966796875;-12.625;7.0625;11.75;
1441975836615875;-0.28839111328125;0.5662841796875;0.728271484375;0.25634765625;13.526970316151523;12.707313810412924;17.809510907940354;-0.685546875;0.595703125;0.16943359375;-10.5;5.75;9.3125;
1441975836645877;-0.2889404296875;0.5665283203125;0.728515625;0.25457763671875;13.519069263763793;12.713306241934125;17.822888744720217;-0.6884765625;0.6123046875;0.185546875;-6.125;7.5;9.375;
1441975836661878;-0.28955078125;0.56646728515625;0.72882080078125;0.2529296875;13.512928207313877;12.716938391967465;17.834870917770935;-0.681640625;0.6259765625;0.16845703125;-4.0;7.125;7.5625;
1441975836676879;-0.29010009765625;0.566162109375;0.72943115234375;0.2513427734375;13.506103681195816;12.717454786439447;17.84503792618345;-0.69140625;0.63330078125;0.1650390625;-5.4375;6.25;6.625;
1441975836697880;-0.2906494140625;0.56585693359375;0.72991943359375;0.2498779296875;13.50049317209997;12.718182393846803;17.854667880612663;-0.68212890625;0.6162109375;0.19384765625;-5.875;6.375;7.0;
1441975836720881;-0.2916259765625;0.5657958984375;0.73028564453125;0.24798583984375;13.495652231072723;12.722744304481946;17.86959832761997;-0.6591796875;0.62353515625;0.18701171875;-5.375;6.25;5.25;
1441975836736882;-0.29248046875;0.56585693359375;0.73040771484375;0.2464599609375;13.492645018196;12.727960129793416;17.88250904389366;-0.68212890625;0.62255859375;0.19384765625;-5.125;10.0;7.0;
1441975836759884;-0.2930908203125;0.5665283203125;0.73004150390625;0.2451171875;13.488931328086007;12.738107511051595;17.895629169081563;-0.66552734375;0.62158203125;0.1904296875;-2.875;9.0;4.8125;
1441975836780885;-0.2933349609375;0.56805419921875;0.72918701171875;0.24383544921875;13.482031855773052;12.754720050855383;17.909737781759176;-0.666015625;0.626953125;0.1923828125;1.9375;9.1875;5.1875;
1441975836796886;-0.29351806640625;0.56939697265625;0.728515625;0.2425537109375;13.474322921868724;12.769263906432878;17.922739060832022;-0.66455078125;0.65087890625;0.1875;7.25;9.5625;5.75;
1441975836819887;-0.29437255859375;0.5693359375;0.7286376953125;0.2413330078125;13.473380719414802;12.772924464803205;17.933471404538892;-0.642578125;0.69287109375;0.17041015625;4.625;8.1875;2.5625;
1441975836840888;-0.2955322265625;0.56878662109375;0.72882080078125;0.24053955078125;13.478789662769573;12.77291363304608;17.941739497526957;-0.6630859375;0.693359375;0.166015625;-4.5625;7.25;0.1875;
1441975836855889;-0.29681396484375;0.5687255859375;0.7283935546875;0.240478515625;13.49082561440964;12.776993984533986;17.948563881544327;-0.6708984375;0.67431640625;0.17822265625;-5.5625;6.9375;-2.3125;
1441975836886891;-0.2977294921875;0.5692138671875;0.72760009765625;0.24053955078125;13.50041218044105;12.785051115357687;17.955061780932528;-0.67138671875;0.65576171875;0.16943359375;-0.9375;6.0;-4.625;
1441975836900892;-0.29864501953125;0.569580078125;0.72698974609375;0.240478515625;13.508862023251636;12.791876801780091;17.961666719177362;-0.6689453125;0.67919921875;0.171875;3.375;6.0;-5.3125;
1441975836915893;-0.29986572265625;0.56951904296875;0.72662353515625;0.2401123046875;13.518140059221444;12.796405270834851;17.96998568561612;-0.6630859375;0.6796875;0.1728515625;2.25;6.0;-5.0625;
1441975836939894;-0.30108642578125;0.56915283203125;0.72650146484375;0.23992919921875;13.528552927070237;12.797567831984614;17.976018282183816;-0.6669921875;0.6728515625;0.15625;-2.0;6.375;-4.4375;
1441975836960895;-0.30218505859375;0.56927490234375;0.72607421875;0.239501953125;13.536108152803681;12.803432035571722;17.98475164476135;-0.67724609375;0.65576171875;0.16650390625;-2.8125;5.75;-4.25;
1441975836975896;-0.3033447265625;0.56939697265625;0.72564697265625;0.239013671875;13.543748446693845;12.809590738193316;17.99415326675547;-0.68798828125;0.6669921875;0.158203125;-0.8125;6.75;-2.625;
1441975836999897;-0.3043212890625;0.56939697265625;0.725341796875;0.23858642578125;13.55014696426816;12.813973529029349;0.0018224955387265826;-0.69384765625;0.66552734375;0.1494140625;-1.25;6.4375;-2.3125;
1441975837020899;-0.3050537109375;0.56964111328125;0.7249755859375;0.23828125;13.554840275241945;12.819322198734556;0.008370798792775991;-0.689453125;0.64111328125;0.158203125;-1.125;5.6875;-1.0625;
1441975837035899;-0.3056640625;0.57025146484375;0.72442626953125;0.23779296875;13.556924634896797;12.827919833395757;0.016712940555383627;-0.68505859375;0.63330078125;0.16845703125;1.4375;5.75;-0.4375;
1441975837059901;-0.305908203125;0.57073974609375;0.72406005859375;0.23736572265625;13.556052958679956;12.834063896344503;0.022317089065851527;-0.6796875;0.66015625;0.158203125;2.5625;6.125;0.0;
1441975837080902;-0.30609130859375;0.5711669921875;0.72369384765625;0.2371826171875;13.556436541341501;12.839122925501455;0.02604081866937067;-0.67919921875;0.662109375;0.16650390625;2.5;4.375;0.5625;
1441975837095903;-0.3062744140625;0.57080078125;0.72412109375;0.236572265625;13.553487419154537;12.836821444452294;0.028751102341857696;-0.68798828125;0.6689453125;0.1611328125;2.5;2.75;-0.125;
1441975837119904;-0.306884765625;0.5693359375;0.72528076171875;0.2357177734375;13.553020570245902;12.826048145848002;0.030747236752175465;-0.68798828125;0.6806640625;0.1474609375;-4.75;1.125;0.625;
1441975837141906;-0.30767822265625;0.5670166015625;0.72698974609375;0.2349853515625;13.55536282254823;12.807711144588637;0.0296781907131396;-0.6845703125;0.68505859375;0.14599609375;-13.125;0.6875;-1.0625;
1441975837155906;-0.3084716796875;0.5640869140625;0.72906494140625;0.23455810546875;13.560093497489735;12.783275569174236;0.024543619988692453;-0.68359375;0.66650390625;0.15869140625;-17.8125;-0.4375;-2.4375;
1441975837179908;-0.30908203125;0.56182861328125;0.730712890625;0.2342529296875;13.563674682543109;12.76413560231393;0.020318201353374327;-0.681640625;0.62646484375;0.18115234375;-19.75;-2.3125;-1.9375;
1441975837216910;-0.30963134765625;0.56036376953125;0.731689453125;0.23370361328125;13.565319126139912;12.75332002172288;0.020558272807705502;-0.68603515625;0.59375;0.19091796875;-14.5;-1.4375;0.125;
1441975837218910;-0.31024169921875;0.55841064453125;0.7332763671875;0.2327880859375;13.564314431818847;12.737804285872514;0.02085223738242378;-0.677734375;0.6494140625;0.15234375;-12.125;-0.5;-1.5;
1441975837239911;-0.3109130859375;0.55633544921875;0.734619140625;0.2325439453125;13.56931258105142;12.721105118597958;0.017561327985794357;-0.693359375;0.64111328125;0.1572265625;-16.5;-1.0;1.1875;
1441975837276913;-0.31121826171875;0.5555419921875;0.735107421875;0.2325439453125;13.572309069237297;12.714688037182523;0.01600505467163423;-0.67822265625;0.6123046875;0.1787109375;-14.1875;-1.5625;-1.625;
1441975837279913;-0.3109130859375;0.55596923828125;0.73468017578125;0.23321533203125;13.574382270582841;12.7169243259307;0.012475830971940195;-0.68994140625;0.61474609375;0.1943359375;-4.125;0.0;-0.4375;
1441975837299915;-0.31072998046875;0.55615234375;0.734375;0.23406982421875;13.578883036381605;12.716901234910694;0.0075448080057842004;-0.673828125;0.63037109375;0.1875;5.3125;-1.625;-1.3125;
1441975837327916;-0.31060791015625;0.55621337890625;0.7340087890625;0.2352294921875;13.586389342596997;12.715754461528988;8.537649923503333E-4;-0.673828125;0.64501953125;0.17236328125;2.75;-2.875;-3.875;
1441975837335917;-0.31005859375;0.55712890625;0.73291015625;0.23712158203125;13.595280583902444;12.72040816614483;17.99137738882618;-0.67431640625;0.62353515625;0.173828125;3.8125;-3.5625;-4.5625;
1441975837359918;-0.30914306640625;0.5587158203125;0.7314453125;0.2391357421875;13.601404152648444;12.729768420321147;17.981917648005883;-0.6943359375;0.61279296875;0.19482421875;12.4375;-4.625;-4.6875;
1441975837380919;-0.30853271484375;0.559326171875;0.730224609375;0.24212646484375;13.618094929221375;12.730135647778953;17.964939434385528;-0.673828125;0.67724609375;0.1650390625;15.0625;-6.1875;-7.125;
1441975837395920;-0.3072509765625;0.5606689453125;0.72857666015625;0.24560546875;13.631862307341322;12.734275829260337;17.944604416978827;-0.68505859375;0.60205078125;0.1708984375;12.875;-9.0625;-9.4375;
1441975837419921;-0.305908203125;0.56243896484375;0.72686767578125;0.24835205078125;13.63960226363426;12.74307254835458;17.929668539221538;-0.70068359375;0.5947265625;0.2021484375;20.6875;-10.625;-7.8125;
1441975837440923;-0.3048095703125;0.56256103515625;0.72637939453125;0.25067138671875;13.646565674406608;12.737784426640285;17.91172713966402;-0.68896484375;0.6708984375;0.1611328125;18.6875;-9.375;-8.5625;
1441975837456924;-0.3033447265625;0.56268310546875;0.72589111328125;0.25360107421875;13.654251448792085;12.730118447531172;17.888334489885686;-0.7021484375;0.66748046875;0.17333984375;7.125;-11.125;-7.8125;
1441975837479925;-0.30169677734375;0.5633544921875;0.72515869140625;0.25616455078125;13.65752076434287;12.727547843888331;17.86825986485735;-0.68603515625;0.62109375;0.19189453125;10.375;-13.625;-7.6875;
1441975837501926;-0.30072021484375;0.56256103515625;0.725341796875;0.258544921875;13.665519948560123;12.713502242816062;17.84664868400423;-0.68505859375;0.6904296875;0.16064453125;10.375;-13.3125;-8.5625;
1441975837515927;-0.2996826171875;0.56231689453125;0.72503662109375;0.26116943359375;13.674877701497678;12.704215672557533;17.825605226473535;-0.70458984375;0.6435546875;0.18115234375;1.5625;-13.375;-8.1875;
1441975837553929;-0.29803466796875;0.5640869140625;0.7232666015625;0.26416015625;13.68192367898294;12.71186867674723;17.807759068739003;-0.720703125;0.59716796875;0.21240234375;8.0625;-11.0625;-5.5;
1441975837560929;-0.2958984375;0.56689453125;0.72088623046875;0.26690673828125;13.683191238488401;12.728514877552964;17.793212112834706;-0.70361328125;0.6025390625;0.18701171875;21.6875;-10.75;-5.125;
1441975837575930;-0.293701171875;0.56927490234375;0.71893310546875;0.269775390625;13.684213620495068;12.740117131757788;17.775664533640786;-0.70947265625;0.66552734375;0.15576171875;25.75;-10.4375;-4.625;
1441975837598932;-0.29156494140625;0.5714111328125;0.71710205078125;0.272216796875;13.683297874217448;12.750969210539669;17.76012879581252;-0.68115234375;0.63818359375;0.1611328125;23.625;-11.6875;-4.8125;
1441975837627933;-0.2896728515625;0.572998046875;0.71575927734375;0.2745361328125;13.683182942262064;12.756978985717899;17.744040374257658;-0.67822265625;0.6689453125;0.16259765625;21.5625;-10.6875;-5.125;
1441975837635934;-0.28826904296875;0.573974609375;0.71453857421875;0.277099609375;13.68974033024753;12.758811283113968;17.726713193302885;-0.6826171875;0.65478515625;0.154296875;16.75;-11.1875;-4.875;
1441975837658935;-0.28753662109375;0.57391357421875;0.71417236328125;0.27899169921875;13.696902603848716;12.75339034889573;17.712116458107975;-0.69775390625;0.64599609375;0.16455078125;14.125;-10.875;-6.875;
1441975837682936;-0.28790283203125;0.57354736328125;0.71380615234375;0.28033447265625;13.710645037901857;12.749527496368703;17.705016989123155;-0.6767578125;0.63818359375;0.14111328125;3.875;-9.5625;-7.6875;
1441975837702938;-0.2874755859375;0.57470703125;0.71246337890625;0.28167724609375;13.717944045015503;12.758214248979769;17.70041848382809;-0.70263671875;0.58642578125;0.13134765625;0.1875;-5.0;-5.3125;
1441975837718939;-0.2861328125;0.5771484375;0.71038818359375;0.283447265625;13.720068239049208;12.775388186745733;17.693998576527576;-0.69287109375;0.60302734375;0.14306640625;11.0625;-3.0625;-3.5625;
1441975837741940;-0.28497314453125;0.57940673828125;0.70849609375;0.28466796875;13.720062258819931;12.792508228245907;17.690980841165242;-0.68505859375;0.64013671875;0.1611328125;21.875;-4.0625;-3.5625;
1441975837755941;-0.2857666015625;0.57879638671875;0.70880126953125;0.284423828125;13.725459063930558;12.789416807665143;17.693831310296005;-0.68310546875;0.6640625;0.14013671875;18.0625;-2.375;-3.125;
1441975837778942;-0.28692626953125;0.57708740234375;0.71002197265625;0.2835693359375;13.729120370356332;12.77771590995944;17.697340162410427;-0.71826171875;0.62158203125;0.13623046875;-6.3125;0.6875;-1.125;
1441975837801943;-0.28778076171875;0.576416015625;0.7105712890625;0.28277587890625;13.730802568257992;12.77483534669365;17.70327329275176;-0.708984375;0.61376953125;0.169921875;-13.8125;3.25;-0.1875;
1441975837824945;-0.28857421875;0.57550048828125;0.71142578125;0.28173828125;13.72983236002953;12.769641571127679;17.70919532943104;-0.70361328125;0.6220703125;0.16357421875;-7.0625;4.0625;0.3125;
1441975837838945;-0.2899169921875;0.5732421875;0.71343994140625;0.2796630859375;13.725689191932071;12.754765805043542;17.718140160642804;-0.69140625;0.6669921875;0.15771484375;-10.375;3.6875;-0.8125;
1441975837861947;-0.29241943359375;0.56939697265625;0.71630859375;0.2777099609375;13.732593909567079;12.727772671498249;17.7254948222739;-0.69482421875;0.69287109375;0.14697265625;-23.125;4.3125;-0.25;
1441975837882948;-0.29461669921875;0.56610107421875;0.7186279296875;0.276123046875;13.740119846934746;12.705089586735113;17.731702899490568;-0.7138671875;0.60400390625;0.1533203125;-33.0625;4.5625;-0.375;
1441975837898949;-0.29608154296875;0.56365966796875;0.7205810546875;0.27447509765625;13.740526582405096;12.688311363305258;17.738100663178347;-0.71337890625;0.58251953125;0.18115234375;-26.625;5.125;-0.1875;
1441975837921950;-0.2978515625;0.5601806640625;0.7232666015625;0.2725830078125;13.741652081227244;12.662946292838127;17.743081019217964;-0.705078125;0.65283203125;0.17626953125;-22.3125;3.875;-0.625;
1441975837942951;-0.3004150390625;0.55487060546875;0.72735595703125;0.26971435546875;13.74245541706873;12.623970135603896;17.749948384287478;-0.68896484375;0.64306640625;0.16357421875;-30.375;2.25;-1.4375;
1441975837958952;-0.302978515625;0.549560546875;0.73126220703125;0.26708984375;13.745576446909347;12.585079458750572;17.755569829394016;-0.6953125;0.61865234375;0.1865234375;-44.3125;4.5;0.375;
1441975837981954;-0.3052978515625;0.54571533203125;0.73406982421875;0.2646484375;13.748768881337922;12.559397785084997;17.76515052949011;-0.6884765625;0.57470703125;0.2158203125;-42.1875;4.9375;0.75;
1441975838002955;-0.30804443359375;0.54180908203125;0.7373046875;0.26043701171875;13.743729216302253;12.537414167900206;17.786995035689376;-0.6923828125;0.60546875;0.220703125;-32.125;7.5;0.5;
1441975838018956;-0.3118896484375;0.53692626953125;0.74078369140625;0.25604248046875;13.748695438007738;12.510562752560283;17.811526266120463;-0.705078125;0.68994140625;0.201171875;-39.625;12.375;3.0;
1441975838041957;-0.31573486328125;0.5328369140625;0.74334716796875;0.25238037109375;13.760009145382632;12.49066222747318;17.83529004570059;-0.74658203125;0.62255859375;0.20654296875;-45.875;15.125;4.25;
1441975838062958;-0.31927490234375;0.52880859375;0.74615478515625;0.2481689453125;13.764556951896713;12.471180033079028;17.860994497000753;-0.724609375;0.59716796875;0.2255859375;-37.125;17.0;1.375;
1441975838078959;-0.32269287109375;0.52447509765625;0.749267578125;0.24346923828125;13.764965581938817;12.449619862512915;17.887867408878822;-0.69384765625;0.6611328125;0.2216796875;-39.6875;17.125;0.25;
1441975838101960;-0.325439453125;0.52215576171875;0.75054931640625;0.24090576171875;13.774492445828848;12.44157913722108;17.90725781849063;-0.7333984375;0.57568359375;0.2509765625;-40.3125;17.4375;8.6875;
1441975838122962;-0.3267822265625;0.5223388671875;0.75048828125;0.23883056640625;13.773733673310042;12.451553078742714;17.927156429738762;-0.75732421875;0.4931640625;0.287109375;-17.9375;16.0;7.9375;
1441975838138963;-0.32861328125;0.52044677734375;0.75262451171875;0.23388671875;13.756958894382098;12.44769481981971;17.95751102734585;-0.65966796875;0.6162109375;0.22216796875;-5.5625;12.4375;2.125;
1441975838161964;-0.33154296875;0.51446533203125;0.757080078125;0.22833251953125;13.747819940086808;12.411192409884165;17.980511614522047;-0.716796875;0.6953125;0.21337890625;-28.75;14.9375;10.8125;
1441975838182965;-0.3343505859375;0.50823974609375;0.76123046875;0.22430419921875;13.748692883419537;12.36988030867997;17.99307260959809;-0.67529296875;0.62158203125;0.21875;-54.875;12.125;7.3125;
1441975838198966;-0.3367919921875;0.5030517578125;0.7655029296875;0.21771240234375;13.728672422452917;12.341322921370937;0.023352088811282132;-0.75;0.53662109375;0.255859375;-49.1875;7.6875;7.875;
1441975838221967;-0.3399658203125;0.4945068359375;0.7718505859375;0.20989990234375;13.709255115875784;12.287063951106528;0.05137684134448396;-0.73974609375;0.67724609375;0.205078125;-54.375;11.625;14.875;
1441975838242968;-0.34222412109375;0.488525390625;0.775634765625;0.2061767578125;13.708845418314429;12.247087176390043;0.06116638743572148;-0.62744140625;0.71826171875;0.23291015625;-79.0625;13.1875;6.75;
1441975838258969;-0.343017578125;0.4876708984375;0.7764892578125;0.20379638671875;13.701269642294486;12.246096069805846;0.07592650119822926;-0.7080078125;0.42431640625;0.38525390625;-39.0625;11.375;11.6875;
1441975838281971;-0.34295654296875;0.48968505859375;0.775390625;0.20330810546875;13.696881563126807;12.264952823882203;0.08647572323809208;-0.69677734375;0.45556640625;0.3271484375;-6.625;10.125;14.5625;
1441975838302972;-0.3421630859375;0.49334716796875;0.77294921875;0.2049560546875;13.698990913768743;12.29279928705413;0.08724601964783113;-0.6669921875;0.52880859375;0.24267578125;11.0;4.875;6.875;
1441975838318973;-0.341064453125;0.49835205078125;0.770263671875;0.2049560546875;13.686165912461707;12.334195956840182;0.10141343973279678;-0.71533203125;0.60107421875;0.29736328125;28.25;1.9375;-0.4375;
1441975838341974;-0.340087890625;0.501953125;0.76904296875;0.20220947265625;13.656316435555638;12.36777486356946;0.12671898012135951;-0.70263671875;0.7587890625;0.2578125;28.0;6.25;1.8125;
1441975838364975;-0.33966064453125;0.50537109375;0.7672119140625;0.2012939453125;13.644474569177271;12.398811008586195;0.1432566547404077;-0.703125;0.68798828125;0.275390625;14.625;11.125;16.6875;
1441975838386977;-0.338623046875;0.51153564453125;0.76324462890625;0.20257568359375;13.640370172696656;12.449352103111027;0.15465822467736287;-0.646484375;0.45947265625;0.287109375;23.5;10.8125;15.3125;
1441975838401978;-0.34033203125;0.512451171875;0.76177978515625;0.2030029296875;13.66029549017661;12.463914047224966;0.1648856469492966;-0.64453125;0.62109375;0.23193359375;42.0;7.4375;2.1875;
1441975838422979;-0.34381103515625;0.51055908203125;0.76123046875;0.203857421875;13.70265759854969;12.459487966957354;0.1711949208272636;-0.72900390625;0.6767578125;0.2197265625;5.5625;9.0;-8.375;
1441975838439980;-0.346923828125;0.51129150390625;0.7591552734375;0.20452880859375;13.738685625777876;12.47822692982604;0.1872569416396314;-0.7509765625;0.5205078125;0.25439453125;-6.6875;11.625;-11.3125;
1441975838461981;-0.34930419921875;0.51776123046875;0.75372314453125;0.204345703125;13.757846523793056;12.54930020563942;0.2281871890253366;-0.71337890625;0.45654296875;0.28125;12.0;19.3125;-4.8125;
1441975838482982;-0.35333251953125;0.51947021484375;0.75128173828125;0.2020263671875;13.780372114610202;12.586527528933907;0.27140674445959706;-0.720703125;0.57666015625;0.2158203125;41.6875;29.1875;2.5;
1441975838498983;-0.35675048828125;0.52154541015625;0.74761962890625;0.2042236328125;13.828884619325343;12.619151577314122;0.2879431675935769;-0.77197265625;0.64013671875;0.12548828125;1.5;26.375;0.0;
1441975838520984;-0.35888671875;0.52532958984375;0.74298095703125;0.2076416015625;13.872245578074033;12.661332097075896;0.29811523797704226;-0.73193359375;0.49658203125;0.13818359375;19.3125;14.8125;-13.3125;
1441975838543986;-0.3607177734375;0.52850341796875;0.73895263671875;0.2109375;13.912027444631882;12.696725392967661;0.3049559090814098;-0.70751953125;0.578125;0.099609375;31.3125;8.625;-17.8125;
1441975838558987;-0.36297607421875;0.5325927734375;0.7333984375;0.21600341796875;13.968895182034817;12.742226248042543;0.30972978697893777;-0.71337890625;0.669921875;0.1435546875;27.75;8.5;-22.0625;
1441975838580988;-0.36480712890625;0.5379638671875;0.72613525390625;0.223876953125;14.042258984077023;12.796344038725998;0.30355811691755574;-0.7177734375;0.6328125;0.16943359375;41.75;10.8125;-28.9375;
1441975838602989;-0.36785888671875;0.54248046875;0.7181396484375;0.233642578125;14.143530932810624;12.847709376612613;0.2925102003667948;-0.73486328125;0.63427734375;0.2197265625;61.625;9.6875;-38.875;
1441975838618990;-0.3720703125;0.54296875;0.71246337890625;0.24310302734375;14.258011248862218;12.86563815184736;0.27217206015896067;-0.78173828125;0.61669921875;0.1748046875;61.25;6.75;-51.3125;
1441975838648992;-0.37713623046875;0.53814697265625;0.7115478515625;0.24859619140625;14.354428387691552;12.83708249429478;0.25168733263984167;-0.6240234375;0.755859375;0.046875;28.625;-2.5;-75.125;
1441975838664993;-0.38409423828125;0.5311279296875;0.711181640625;0.2540283203125;14.470794258049862;12.795274177605101;0.23176279194093174;-0.81005859375;0.5810546875;0.12939453125;-12.3125;-1.4375;-49.625;
1441975838678993;-0.39117431640625;0.52398681640625;0.71136474609375;0.25762939453125;14.574396519006278;12.754492757085163;0.22111913073048417;-0.767578125;0.5146484375;0.1357421875;-25.6875;2.25;-58.625;
1441975838700995;-0.3984375;0.51611328125;0.71185302734375;0.26092529296875;14.678702989685476;12.706967510605718;0.20833627743963998;-0.81640625;0.5869140625;0.1142578125;-33.5;5.3125;-54.625;
1441975838723996;-0.40643310546875;0.50726318359375;0.71185302734375;0.26593017578125;14.804571050003611;12.648749850976515;0.18271586211608123;-0.79296875;0.54296875;0.1142578125;-38.4375;5.6875;-54.75;
1441975838738997;-0.4149169921875;0.4976806640625;0.710693359375;0.27386474609375;14.958860602901067;12.5771787398037;0.13432445538590398;-0.77490234375;0.49609375;0.1376953125;-37.0625;4.0;-66.4375;
1441975838760998;-0.42388916015625;0.4862060546875;0.7093505859375;0.2840576171875;15.135910620230604;12.475402147477611;0.05500534475831604;-0.6943359375;0.45068359375;0.1357421875;-30.9375;0.0;-85.0;
1441975838783999;-0.43096923828125;0.4765625;0.709716796875;0.28875732421875;15.250120496944403;12.391440103355215;0.0055578171988066565;-0.80859375;0.43701171875;0.212890625;-31.0625;-3.9375;-98.0625;
1441975838806001;-0.436767578125;0.46728515625;0.7113037109375;0.29132080078125;15.333686492530497;12.305662863724523;17.960127457266484;-1.02197265625;0.42041015625;0.19677734375;-39.5;-0.9375;-56.875;
1441975838821002;-0.4417724609375;0.45831298828125;0.7132568359375;0.29327392578125;15.40340184941429;12.217418448141185;17.91218053194454;-0.88134765625;0.3896484375;0.173828125;-45.4375;-3.0;-45.8125;
1441975838852003;-0.44537353515625;0.45074462890625;0.71551513671875;0.29400634765625;15.44819736802872;12.14021228754416;17.872052121314262;-0.90771484375;0.35888671875;0.1943359375;-44.375;-4.625;-38.1875;
1441975838866004;-0.44683837890625;0.44500732421875;0.7191162109375;0.29180908203125;15.447439580973558;12.082749911789165;17.85369616761582;-0.9375;0.34326171875;0.17822265625;-41.125;-7.1875;-24.375;
1441975838880005;-0.44696044921875;0.4388427734375;0.7259521484375;0.28387451171875;15.391505738437912;12.034530433410737;17.870504254615582;-0.978515625;0.419921875;0.201171875;-41.875;-8.5;-4.125;
1441975838903006;-0.4462890625;0.43060302734375;0.736572265625;0.2698974609375;15.286153356758764;11.980200644109601;17.916763015430078;-1.00439453125;0.4931640625;0.205078125;-65.1875;-9.625;24.25;
1441975838919007;-0.44854736328125;0.41802978515625;0.7470703125;0.2567138671875;15.223387753321365;11.891200386588167;17.94739095429478;-0.9775390625;0.56494140625;0.2685546875;-97.5;-7.3125;47.5625;
1441975838940008;-0.45074462890625;0.40826416015625;0.754638671875;0.24609375;15.180398948823905;11.829105860222546;17.97951638888495;-0.8916015625;0.3466796875;0.29638671875;-115.625;-3.625;34.8125;
1441975838963010;-0.45050048828125;0.401611328125;0.76080322265625;0.23846435546875;15.129289050574288;11.7793366770455;17.994055066819612;-0.82568359375;0.224609375;0.3544921875;-84.9375;7.9375;34.9375;
1441975838979011;-0.4649658203125;0.3734130859375;0.77264404296875;0.217529296875;15.176635759474497;11.619635409853172;0.06724942653543493;-0.8564453125;0.4501953125;0.3583984375;-61.3125;-2.9375;21.0625;
1441975839000012;-0.4681396484375;0.3580322265625;0.7811279296875;0.20587158203125;15.150654767810735;11.511036640882768;0.0816543402588016;-1.26806640625;0.68701171875;0.41357421875;-224.8125;42.25;-0.875;
1441975839023013;-0.47259521484375;0.35137939453125;0.78466796875;0.1934814453125;15.13629246562599;11.513415520475444;0.17036670755367664;-0.6630859375;0.044921875;0.3134765625;-119.75;-1.3125;18.0;
1441975839039014;-0.47705078125;0.35809326171875;0.78021240234375;0.18798828125;15.153912372607346;11.638711564690603;0.2909810301445959;-0.828125;0.31103515625;0.41162109375;-71.5;35.6875;34.5625;
1441975839060015;-0.478759765625;0.3599853515625;0.78009033203125;0.18048095703125;15.127869833101384;11.700898334584588;0.3773522966300337;-0.9443359375;0.23291015625;0.14990234375;18.5625;40.5625;39.8125;
1441975839083017;-0.4781494140625;0.3612060546875;0.78204345703125;0.1710205078125;15.062988304462065;11.746782826912177;0.4571676798854927;-0.81591796875;0.33984375;0.2744140625;-12.9375;26.0625;36.4375;
1441975839099017;-0.47833251953125;0.36016845703125;0.7845458984375;0.16094970703125;15.005871118112825;11.773535127801884;0.5312193545020978;-0.81494140625;0.4912109375;0.28271484375;-25.5;13.75;41.6875;
1441975839121019;-0.47894287109375;0.3575439453125;0.7872314453125;0.15179443359375;14.961262308400967;11.781603983727477;0.5902812960302091;-0.8125;0.45263671875;0.2392578125;-39.9375;12.0;40.4375;
1441975839143020;-0.47930908203125;0.35540771484375;0.78936767578125;0.14422607421875;14.923354717375025;11.787725961339842;0.6381610141545067;-0.8505859375;0.42041015625;0.23974609375;-44.25;9.375;34.25;
1441975839159021;-0.47967529296875;0.35369873046875;0.79107666015625;0.13775634765625;14.891405934397977;11.794158304642144;0.6797927896321663;-0.84716796875;0.41943359375;0.23779296875;-36.5625;6.6875;29.125;
1441975839181022;-0.47998046875;0.35302734375;0.792236328125;0.13177490234375;14.859941502965054;11.809010022530787;0.7229812799562685;-0.80712890625;0.40087890625;0.27734375;-28.9375;8.8125;25.5;
1441975839203023;-0.48114013671875;0.3519287109375;0.79290771484375;0.12615966796875;14.841068723421433;11.823958111788366;0.7670903161317595;-0.763671875;0.4326171875;0.30517578125;-22.0625;12.75;22.8125;
1441975839219024;-0.48199462890625;0.3489990234375;0.79473876953125;0.119384765625;14.815359491881477;11.821597026760525;0.8069848669879602;-0.833984375;0.44140625;0.28662109375;-22.75;13.9375;19.5;
1441975839241026;-0.483642578125;0.34368896484375;0.7972412109375;0.1109619140625;14.793912704321288;11.806106178100181;0.8518696858790591;-0.81591796875;0.48193359375;0.28955078125;-37.3125;11.125;18.875;
1441975839265027;-0.487060546875;0.335205078125;0.79998779296875;0.10186767578125;14.795398725616074;11.773378152793807;0.8976648024918836;-0.7978515625;0.52880859375;0.29931640625;-55.3125;14.75;15.3125;
1441975839279028;-0.49072265625;0.3248291015625;0.80322265625;0.0919189453125;14.800423374754088;11.727504982472304;0.9422573383083672;-0.814453125;0.494140625;0.2939453125;-73.0;20.75;8.625;
1441975839303029;-0.49420166015625;0.31427001953125;0.806396484375;0.0816650390625;14.804034582372964;11.681001524307266;0.9878436493459923;-0.822265625;0.416015625;0.3291015625;-82.6875;22.75;11.5;
1441975839323030;-0.49365234375;0.3065185546875;0.81072998046875;0.07080078125;14.755318865582165;11.638048622266759;1.0246889180264895;-0.83935546875;0.36083984375;0.3193359375;-83.6875;21.1875;16.25;
1441975839339031;-0.49505615234375;0.30255126953125;0.811767578125;0.0662841796875;14.755088654624753;11.62420347796187;1.0480946394384898;-0.78662109375;0.30908203125;0.365234375;-70.0625;4.5;36.4375;
1441975839361032;-0.49578857421875;0.29449462890625;0.81494140625;0.05743408203125;14.734530431656488;11.581679894172881;1.078745142110058;-0.7998046875;0.47119140625;0.2939453125;-35.75;9.125;3.5;
1441975839383034;-0.50604248046875;0.3023681640625;0.80560302734375;0.059326171875;14.834212786304008;11.723496253104697;1.1818440072934844;1.1611328125;-1.01318359375;0.3134765625;-68.5;6.5;18.3125;
1441975839399035;-0.516845703125;0.31280517578125;0.79461669921875;0.0599365234375;14.91931363745449;11.908963288531028;1.3223509548320707;-1.05810546875;0.32861328125;0.59814453125;65.625;87.125;5.3125;
1441975839421036;-0.51861572265625;0.32220458984375;0.78997802734375;0.05560302734375;14.87903175335868;12.029853536768849;1.4194435571396713;-0.89697265625;0.44677734375;0.16943359375;62.0625;77.1875;5.4375;
1441975839450038;-0.51318359375;0.33404541015625;0.78900146484375;0.04962158203125;14.746003862949715;12.114839263104146;1.4731667241592938;-1.2021484375;0.44775390625;0.10302734375;32.9375;17.375;54.0;
1441975839459038;-0.51171875;0.34063720703125;0.78765869140625;0.0408935546875;14.651243879103284;12.186567609499967;1.5502075430664688;-0.6650390625;0.43359375;0.359375;43.8125;2.75;68.4375;
1441975839482039;-0.51458740234375;0.34521484375;0.7843017578125;0.02838134765625;14.577699388430124;12.28197833296027;1.6773094820021621;-0.58447265625;0.32568359375;0.31396484375;12.25;24.4375;62.4375;
1441975839511041;-0.52069091796875;0.34478759765625;0.78082275390625;0.01751708984375;14.56111512449654;12.353808789969932;1.7982385470519497;-0.484375;0.5205078125;0.2353515625;-10.375;53.6875;50.75;
1441975839519041;-0.52777099609375;0.34332275390625;0.77685546875;0.00775146484375;14.562347049557328;12.42380414915548;1.9176570938836133;-0.845703125;0.47802734375;0.30908203125;-24.125;63.9375;38.0;
1441975839541043;-0.53125;0.34564208984375;0.77349853515625;-0.00152587890625;14.51639110169722;12.493403801617346;2.015921236260003;-0.88232421875;0.6474609375;0.1953125;-30.8125;61.125;20.0;
1441975839570044;-0.536865234375;0.345458984375;0.76959228515625;-0.008056640625;14.516972334137435;12.556143679002414;2.1080780896661575;-0.642578125;0.6591796875;0.1376953125;-15.5625;43.0625;27.4375;
1441975839579045;-0.54412841796875;0.34368896484375;0.7652587890625;-0.01007080078125;14.568406243009429;12.614264582981894;2.1848416798709414;-0.9775390625;0.52099609375;0.2421875;-10.3125;51.125;24.375;
1441975839601046;-0.5506591796875;0.33856201171875;0.76287841796875;-0.010009765625;14.645474611476677;12.635451538306432;2.2311381412862614;-1.01416015625;0.54296875;0.15625;-5.8125;46.1875;-3.875;
1441975839622047;-0.5518798828125;0.3341064453125;0.76397705078125;-0.0096435546875;14.680823149248182;12.608831324904067;2.223668831986784;-1.02392578125;0.515625;0.1298828125;-18.4375;31.9375;-21.5625;
1441975839639048;-0.5533447265625;0.33123779296875;0.76422119140625;-0.0093994140625;14.708761403959276;12.598325406173808;2.2256559004285426;-0.8291015625;0.490234375;0.20849609375;-18.4375;4.0;-16.5625;
1441975839661050;-0.55523681640625;0.33038330078125;0.76318359375;-0.00885009765625;14.73172998024758;12.60988625397288;2.239324490017889;-0.78515625;0.5107421875;0.203125;-11.0625;8.0;-14.4375;
1441975839682051;-0.55712890625;0.331787109375;0.76123046875;-0.010498046875;14.726626290680354;12.644448459488132;2.27482714347178;-0.65185546875;0.5078125;0.1982421875;1.5;14.8125;-15.25;
1441975839699052;-0.5595703125;0.33380126953125;0.75848388671875;-0.0125732421875;14.718849240054208;12.691458351495452;2.321782308663505;-0.5390625;0.541015625;0.2041015625;5.8125;23.3125;-4.1875;
1441975839721053;-0.55914306640625;0.3370361328125;0.75726318359375;-0.01519775390625;14.678965861115865;12.71909949824459;2.345266560342184;-0.60205078125;0.46533203125;0.1396484375;7.9375;25.0625;5.5;
1441975839742054;-0.526611328125;0.35113525390625;0.77252197265625;-0.05096435546875;14.106364408556704;12.57807942398013;2.277064741974813;-0.45166015625;0.53125;0.06982421875;4.8125;6.375;8.25;
1441975839759055;-0.5081787109375;0.36767578125;0.77362060546875;-0.089599609375;13.608960381369668;12.605281693293236;2.3812624283822625;1.5234375;-0.08837890625;-0.072265625;-85.9375;-122.5;262.1875;
1441975839781056;-0.4776611328125;0.406494140625;0.7718505859375;-0.1041259765625;13.074678908106465;12.68277057309033;2.322426340150365;1.4638671875;0.15869140625;0.65283203125;-51.125;-12.125;257.875;
1441975839802058;-0.46063232421875;0.4052734375;0.77734375;-0.138671875;12.714156422032028;12.59715756216613;2.3818378281636607;0.52734375;0.74853515625;-0.85400390625;105.5625;-127.4375;227.375;
1441975839819059;-0.4486083984375;0.396240234375;0.79351806640625;-0.10968017578125;12.868699828348776;12.435341352041695;2.1362497899977737;-1.515625;1.3603515625;0.20947265625;-126.25;-13.5625;191.6875;
1441975839841060;-0.42706298828125;0.38946533203125;0.80877685546875;-0.10833740234375;12.733373592796037;12.26673095080455;1.9851791854349612;-2.75341796875;1.74755859375;0.603515625;-11.0;-156.5;-137.875;
1441975839864061;-0.435546875;0.36151123046875;0.80999755859375;-0.15313720703125;12.65054150719346;12.172914392859997;2.2231767575582877;-1.03857421875;0.84716796875;0.38037109375;-75.5;-138.0;19.75;
1441975839887063;-0.4605712890625;0.3572998046875;0.789306640625;-0.19281005859375;12.610733455723803;12.331777829555548;2.582047313291427;-1.00537109375;0.64306640625;0.720703125;-231.8125;155.5625;125.5;
1441975839908064;-0.491943359375;0.3155517578125;0.7899169921875;-0.185546875;13.130782681147226;12.252681799506192;2.673574344787424;-1.12109375;0.3408203125;1.416015625;-37.5625;262.625;150.25;
1441975839924065;-0.5172119140625;0.2850341796875;0.778076171875;-0.2139892578125;13.307134437950893;12.277057957238366;2.9631123859837474;-0.681640625;0.00732421875;-0.53857421875;-142.6875;162.375;-200.1875;
1441975839947066;-0.51885986328125;0.31378173828125;0.7681884765625;-0.20538330078125;13.193545999599593;12.458081083979303;2.976657835148364;-1.57275390625;-0.27685546875;1.423828125;-170.4375;231.875;9.875;
1441975839968067;-0.49871826171875;0.336669921875;0.7713623046875;-0.20721435546875;12.903954717049722;12.459785810995573;2.877796726817009;-0.5302734375;0.38818359375;-0.22265625;167.5625;-18.0625;57.9375;
1441975839984068;-0.4862060546875;0.33831787109375;0.7803955078125;-0.20025634765625;12.856345445771046;12.378787273480505;2.7567103855303707;-0.5517578125;0.3349609375;0.42138671875;69.5;-119.75;111.8125;
1441975840007069;-0.47491455078125;0.33087158203125;0.79132080078125;-0.19683837890625;12.841784153057265;12.254807271610046;2.6505715646504666;-0.91455078125;0.841796875;0.57177734375;6.0625;-90.6875;-2.5;
1441975840028071;-0.46795654296875;0.32940673828125;0.796142578125;-0.1966552734375;12.79923259538328;12.20184417938201;2.6023404831629553;-0.64990234375;0.74951171875;0.5751953125;-46.5;-68.9375;-27.0625;
1441975840044072;-0.4632568359375;0.3209228515625;0.80133056640625;-0.20062255859375;12.7856665512541;12.12411364135468;2.5806937981970126;-0.376953125;0.64404296875;0.41748046875;-17.75;-34.5625;-6.3125;
1441975840067073;-0.46575927734375;0.314208984375;0.80242919921875;-0.20123291015625;12.83885067681279;12.09697336178261;2.5878999938883642;-0.19091796875;0.515625;0.5283203125;-51.5625;-0.4375;-14.5;
1441975840088074;-0.46441650390625;0.31085205078125;0.804443359375;-0.20135498046875;12.84637877760372;12.06770498880646;2.574489302604102;-0.59619140625;0.54736328125;0.4609375;-23.4375;21.875;-15.9375;
1441975840104075;-0.45648193359375;0.3114013671875;0.80816650390625;-0.20367431640625;12.766188578351562;12.027216242017515;2.540326712457476;-0.5830078125;0.5673828125;0.46435546875;-13.6875;-2.625;-5.125;
1441975840127076;-0.4495849609375;0.31591796875;0.809326171875;-0.20758056640625;12.662302036700074;12.021111109819678;2.529255855654807;-0.31982421875;0.58740234375;0.45556640625;-13.375;-32.1875;12.5625;
1441975840148077;-0.4520263671875;0.31903076171875;0.8065185546875;-0.20819091796875;12.660835606470558;12.05585155632399;2.552547149614645;-0.46435546875;0.568359375;0.638671875;15.9375;-19.1875;39.6875;
1441975840164078;-0.4666748046875;0.3179931640625;0.80072021484375;-0.1998291015625;12.833583937928786;12.12502894660918;2.5923783836171963;-0.6611328125;0.6484375;0.4970703125;27.75;18.75;15.3125;
1441975840187080;-0.4827880859375;0.31951904296875;0.79534912109375;-0.1795654296875;13.078485912411123;12.209562742038484;2.5846742655043453;-0.74560546875;0.484375;0.2998046875;47.4375;62.5;-46.0625;
1441975840201080;-0.48443603515625;0.3203125;0.79766845703125;-0.16229248046875;13.198547494350219;12.202045362576612;2.499415527183823;-0.8203125;0.50048828125;0.09765625;82.25;35.125;-96.0625;
1441975840224082;-0.48187255859375;0.3218994140625;0.80047607421875;-0.1529541015625;13.229891560749527;12.18228143793681;2.431750408594209;-0.74853515625;0.5419921875;0.37744140625;54.1875;-31.125;-72.3125;
1441975840245083;-0.4825439453125;0.32208251953125;0.80108642578125;-0.147216796875;13.271002244307349;12.17951708460648;2.4037664089788513;-0.611328125;0.76171875;0.48681640625;30.875;-29.0625;-43.75;
1441975840261084;-0.4830322265625;0.321533203125;0.80169677734375;-0.1435546875;13.30123122091241;12.173470559986738;2.3847498466015202;-0.66650390625;0.56005859375;0.33642578125;18.6875;-8.625;-23.375;
1441975840284085;-0.48388671875;0.31976318359375;0.8021240234375;-0.14202880859375;13.327208796122942;12.16483309170599;2.3779559078366637;-0.6484375;0.57275390625;0.34423828125;9.5625;-4.25;-17.5625;
1441975840305086;-0.47802734375;0.31689453125;0.8067626953125;-0.14208984375;13.294238142101403;12.106839641312583;2.332047893918521;-0.62548828125;0.49365234375;0.28125;-2.5;0.375;-9.0;
1441975840321087;-0.46533203125;0.31646728515625;0.81488037109375;-0.138671875;13.211696645516682;12.019113150060862;2.2284489895084207;-0.6875;0.400390625;0.3515625;-20.5;-37.125;11.25;
1441975840344089;-0.45306396484375;0.31658935546875;0.822998046875;-0.1307373046875;13.15304958065702;11.934810786211184;2.1061529210896097;-0.7099609375;0.4697265625;0.50048828125;-7.3125;-81.375;9.9375;
1441975840365090;-0.4344482421875;0.32666015625;0.83087158203125;-0.1190185546875;13.01062164099674;11.883338294775713;1.9514089159449748;-0.7958984375;0.396484375;0.4990234375;8.5625;-91.8125;-3.625;
1441975840381091;-0.417724609375;0.34344482421875;0.8349609375;-0.10186767578125;12.88736464234443;11.888983864254758;1.797449451963589;-0.68359375;0.25146484375;0.79833984375;56.875;-133.0625;3.625;
1441975840404092;-0.42608642578125;0.38330078125;0.8157958984375;-0.07720947265625;12.949715210441424;12.180308285069103;1.7957154860742963;-0.14013671875;0.63037109375;0.82666015625;108.5625;-125.5;-16.0;
1441975840425093;-0.4271240234375;0.44561767578125;0.785400390625;-0.04571533203125;12.906582446626427;12.607690301195657;1.7823844941531735;-0.6728515625;0.21142578125;0.53955078125;297.875;15.875;-22.4375;
1441975840441094;-0.4287109375;0.50909423828125;0.74627685546875;-0.00885009765625;12.9114873421234;13.077399370122949;1.7712399330504147;-0.30224609375;0.3154296875;0.6494140625;443.625;-12.0;17.125;
1441975840464096;-0.41558837890625;0.5745849609375;0.7042236328125;0.0338134765625;12.862582491933557;13.521223479093011;1.66968208793821;-0.76513671875;0.599609375;0.11865234375;478.25;-8.625;-1.0;
1441975840485097;-0.39190673828125;0.6317138671875;0.664794921875;0.07342529296875;12.786802172117303;13.883307443969631;1.5117811889370323;-0.669921875;0.70947265625;-0.044921875;508.3125;-81.5;20.5;
1441975840501098;-0.3665771484375;0.67254638671875;0.6348876953125;0.1005859375;12.692934552961892;14.126829959580192;1.360010650459016;-0.57568359375;1.068359375;-0.455078125;456.5;-124.875;42.5625;
1441975840523099;-0.33966064453125;0.68646240234375;0.6322021484375;0.11688232421875;12.615515031990688;14.119589719713696;1.161865859858851;-0.5625;1.2919921875;-0.40478515625;334.6875;-112.875;61.1875;
1441975840537100;-0.315185546875;0.68804931640625;0.6390380859375;0.13714599609375;12.627045331950328;14.020160196686634;0.9348945718706054;-0.64208984375;1.2060546875;-0.41015625;108.9375;-149.3125;68.6875;
1441975840560101;-0.2991943359375;0.68109130859375;0.65179443359375;0.147216796875;12.620065561632437;13.880639541560852;0.7750637313975186;-0.44580078125;1.10498046875;-0.20361328125;34.875;-181.6875;25.0625;
1441975840583102;-0.28765869140625;0.68096923828125;0.65606689453125;0.1519775390625;12.576329805630987;13.828871349955518;0.6856592452332637;-0.33251953125;0.73486328125;-0.0341796875;-44.125;-126.625;20.8125;
1441975840597103;-0.27764892578125;0.68634033203125;0.65325927734375;0.15814208984375;12.54424597925807;13.83978991809273;0.6184850113261704;-0.3642578125;0.59228515625;-0.0439453125;2.125;-68.5625;26.875;
1441975840622105;-0.265625;0.6927490234375;0.6494140625;0.16650390625;12.51513383298694;13.854798607586675;0.5348849382194001;-0.46826171875;0.69580078125;-0.177734375;44.75;-56.375;20.6875;
1441975840643106;-0.24945068359375;0.69622802734375;0.65045166015625;0.1729736328125;12.442926896299001;13.827035320370431;0.42645531191494973;-0.533203125;0.70263671875;-0.29345703125;51.5;-74.1875;24.4375;
1441975840657107;-0.2369384765625;0.70147705078125;0.64849853515625;0.1766357421875;12.37205177077169;13.832994436800384;0.35678987534025064;-0.490234375;0.7744140625;-0.02880859375;37.4375;-82.0625;43.75;
1441975840684108;-0.229248046875;0.70318603515625;0.6490478515625;0.17779541015625;12.320850300075554;13.823088125260359;0.31434189871162765;-0.419921875;1.0078125;-0.07421875;47.75;-53.125;26.9375;
1441975840703109;-0.22967529296875;0.702392578125;0.6495361328125;0.17864990234375;12.332407778030403;13.817101260259667;0.31114122986640413;-0.63623046875;1.10302734375;-0.14404296875;12.4375;-33.75;23.875;
1441975840725110;-0.214111328125;0.7052001953125;0.65423583984375;0.16961669921875;12.12929829403206;13.790021781504297;0.26875663885175066;-0.66796875;0.853515625;-0.39306640625;-21.6875;-14.375;0.6875;
1441975840740111;-0.19677734375;0.7137451171875;0.65374755859375;0.15618896484375;11.870337747017526;13.815423773523964;0.2507888757334945;-0.24609375;0.43798828125;-0.15185546875;-6.1875;-25.8125;104.375;
1441975840763113;-0.18170166015625;0.7188720703125;0.65557861328125;0.1427001953125;11.63231113941408;13.8191685648451;0.23724657639973193;-0.46044921875;1.01416015625;-0.08544921875;34.9375;-1.625;128.9375;
1441975840777113;-0.1646728515625;0.72186279296875;0.65582275390625;0.1470947265625;11.536486320641608;13.806428916702945;0.14212119452142047;-0.5478515625;0.939453125;-0.1435546875;9.1875;1.0;120.875;
1441975840800115;-0.14251708984375;0.72247314453125;0.660888671875;0.14459228515625;11.341075184199507;13.764481421779351;0.04623963723221101;-0.53076171875;0.88037109375;0.10986328125;41.25;-73.0;64.1875;
1441975840831117;-0.12994384765625;0.72198486328125;0.6641845703125;0.143798828125;11.235023334290334;13.736702626049055;17.98952102144037;-0.134765625;0.92578125;0.10205078125;10.1875;-73.4375;88.75;
1441975840845117;-0.12005615234375;0.72802734375;0.657958984375;0.15020751953125;11.21311826270242;13.775586643589369;17.92931195874467;-0.3017578125;0.71875;-0.0498046875;-5.125;-47.125;57.6875;
1441975840860118;-0.11187744140625;0.73028564453125;0.65557861328125;0.15582275390625;11.198213253387292;13.784005741462444;17.873580453797068;-0.5615234375;0.74755859375;-0.19580078125;53.1875;-56.4375;32.3125;
1441975840883120;-0.1065673828125;0.72100830078125;0.6651611328125;0.1619873046875;11.204898120911597;13.693439981985021;17.808750343158632;-0.26611328125;1.09716796875;-0.26318359375;19.375;-55.875;0.5;
1441975840897120;-0.11749267578125;0.70703125;0.6744384765625;0.17718505859375;11.414520059471716;13.586150268144983;17.771009927529224;-0.123046875;0.89306640625;-0.185546875;-74.0;-64.8125;-13.75;
1441975840920122;-0.13336181640625;0.69451904296875;0.67999267578125;0.19317626953125;11.672874512892207;13.501395371916558;17.751155397000904;0.02587890625;0.7421875;-0.0810546875;-93.5625;-40.375;-108.75;
1441975840943123;-0.14739990234375;0.690673828125;0.6796875;0.19793701171875;11.828343515154746;13.492201154242315;17.786831499583307;0.07568359375;0.796875;-0.01123046875;-76.4375;-20.3125;-136.5;
1441975840965124;-0.142578125;0.68115234375;0.6895751953125;0.20025634765625;11.80010280569874;13.398350422094955;17.73370228011753;-0.22705078125;1.0263671875;0.19873046875;-13.625;38.125;-97.9375;
1441975840989126;-0.14398193359375;0.66400146484375;0.70721435546875;0.1953125;11.758481554374763;13.251857529764633;17.724666516501756;-1.150390625;0.94580078125;0.17236328125;-60.5625;-43.1875;53.8125;
1441975841003126;-0.14825439453125;0.62835693359375;0.73468017578125;0.208251953125;11.86581780402261;12.953696129759656;17.608017572790683;-0.83447265625;0.76904296875;0.4541015625;-136.4375;-6.75;26.75;
1441975841025128;-0.16046142578125;0.60516357421875;0.75225830078125;0.2049560546875;11.931062905256137;12.783037134354057;17.62384765625592;-0.64697265625;1.05908203125;-0.09814453125;-247.8125;-97.1875;-66.5625;
1441975841040128;-0.17230224609375;0.60015869140625;0.75494384765625;0.20025634765625;12.003755873589684;12.76327553208481;17.68314210971053;-0.59326171875;0.7080078125;0.08740234375;-179.5625;19.0625;-26.0625;
1441975841063130;-0.17877197265625;0.59979248046875;0.7518310546875;0.20721435546875;12.116045761543422;12.76723845088532;17.674098094248606;-0.4111328125;0.64990234375;0.4287109375;-34.3125;67.8125;-21.3125;
1441975841086131;-0.1876220703125;0.60955810546875;0.74395751953125;0.1990966796875;12.146332768113773;12.86896142312582;17.773010071480464;-0.36474609375;0.67431640625;0.16259765625;7.8125;7.125;-59.5;
1441975841100132;-0.1993408203125;0.62445068359375;0.7281494140625;0.2001953125;12.270734795669448;13.019017680210226;17.854938341347033;-0.27587890625;0.71630859375;0.201171875;52.5;89.4375;-5.0;
1441975841123133;-0.22125244140625;0.6494140625;0.69927978515625;0.200439453125;12.473985051453639;13.295935747895935;0.024554988659127648;-0.27392578125;0.66943359375;-0.0185546875;98.8125;77.0;-57.0;
1441975841146135;-0.241455078125;0.67291259765625;0.6697998046875;0.20050048828125;12.639330838878072;13.579305924281154;0.2007767209093331;0.08447265625;0.91796875;-0.10595703125;180.0625;151.625;-94.25;
1441975841160135;-0.25653076171875;0.68280029296875;0.65496826171875;0.197265625;12.726286063939552;13.73109982777456;0.33161527516267975;-0.341796875;0.7392578125;0.0068359375;181.25;145.5;-82.4375;
1441975841182137;-0.2596435546875;0.689453125;0.64801025390625;0.19293212890625;12.70562404831401;13.807979906744166;0.3888544203062214;-0.578125;0.74609375;-0.1923828125;65.75;96.4375;-48.8125;
1441975841206138;-0.25860595703125;0.68902587890625;0.65240478515625;0.180908203125;12.59257407752417;13.795125605035729;0.4272522171928394;-0.14599609375;0.87939453125;-0.1767578125;37.625;40.0625;-23.0625;
1441975841221139;-0.25067138671875;0.68402099609375;0.66400146484375;0.1683349609375;12.427785449431868;13.713375971729889;0.415354337750212;-0.21484375;0.92138671875;0.0029296875;-30.375;38.0;26.875;
1441975841251141;-0.24261474609375;0.68353271484375;0.66790771484375;0.1666259765625;12.349801810360512;13.679502836276269;0.37586065422758247;-0.09765625;0.61767578125;0.0283203125;-70.625;-1.0625;64.625;
1441975841265141;-0.2510986328125;0.66973876953125;0.6761474609375;0.17657470703125;12.5176943368272;13.581490448960047;0.34276629118990537;-0.5869140625;0.79443359375;-0.349609375;-29.4375;-41.75;44.1875;
1441975841280142;-0.25048828125;0.6644287109375;0.68255615234375;0.1728515625;12.486582692818457;13.529502607782282;0.3391373150834882;-0.7734375;0.88134765625;-0.052734375;-81.125;-31.8125;-73.625;
1441975841302143;-0.24676513671875;0.6651611328125;0.6845703125;0.167236328125;12.408137310445944;13.523272574956572;0.3443412770089838;-0.27978515625;0.80322265625;-0.0361328125;-51.5625;-4.125;-0.5625;
1441975841325145;-0.23675537109375;0.66943359375;0.6873779296875;0.15264892578125;12.199637815368249;13.528390424298374;0.3628528641351393;-0.47021484375;0.9619140625;-0.11767578125;-15.4375;0.1875;28.5625;
1441975841340146;-0.223876953125;0.6707763671875;0.69451904296875;0.13232421875;11.924391627160682;13.500641674339375;0.38380188296498163;-0.57763671875;1.18212890625;-0.13232421875;-12.25;11.625;94.25;
1441975841362147;-0.216064453125;0.66998291015625;0.70086669921875;0.11456298828125;11.715640133860774;13.471734472357133;0.4166341229060907;-0.5908203125;1.0703125;-0.13037109375;-40.5;17.6875;137.625;
1441975841385148;-0.20989990234375;0.6705322265625;0.70379638671875;0.1044921875;11.582471710897678;13.459968938848077;0.4294086943450313;-0.67041015625;1.0419921875;0.0029296875;-44.3125;28.25;106.5;
1441975841401149;-0.2054443359375;0.67083740234375;0.70599365234375;0.09637451171875;11.479740697250438;13.45112834414956;0.44219568400263637;-0.56494140625;0.98291015625;0.01318359375;-17.5625;10.4375;72.5;
1441975841423150;-0.2012939453125;0.6702880859375;0.708740234375;0.088134765625;11.379889650566474;13.436505683836412;0.45572179535209273;-0.52294921875;0.9912109375;0.13427734375;-6.75;14.1875;55.5625;
1441975841446152;-0.1968994140625;0.67034912109375;0.71044921875;0.0838623046875;11.309420500654284;13.426381177078126;0.4529584761422852;-0.51611328125;0.94189453125;0.13671875;-12.8125;14.5625;56.75;
1441975841460153;-0.193603515625;0.665771484375;0.7156982421875;0.0833740234375;11.284097369809432;13.380458305972262;0.43205320239204714;-0.4990234375;0.9951171875;0.1455078125;-1.3125;-0.125;39.6875;
1441975841483154;-0.18902587890625;0.658203125;0.72357177734375;0.08587646484375;11.27454210086599;13.30733664673917;0.3881545241034472;-0.42041015625;0.9091796875;0.1767578125;-28.875;-15.875;14.4375;
1441975841505155;-0.17987060546875;0.64813232421875;0.7349853515625;0.085205078125;11.201771338279041;13.205779776714408;0.3342559281478733;-0.38818359375;0.87353515625;0.19482421875;-47.4375;-37.125;4.125;
1441975841520156;-0.1683349609375;0.6318359375;0.75189208984375;0.08392333984375;11.105188575682357;13.053582594489683;0.2659789942740992;-0.27978515625;0.9130859375;0.2001953125;-73.9375;-49.4375;25.9375;
1441975841543157;-0.15557861328125;0.61163330078125;0.77142333984375;0.080810546875;10.981062796215753;12.875906213445255;0.2000386599112322;-0.30224609375;0.74267578125;0.22900390625;-125.6875;-68.375;39.8125;
1441975841565159;-0.14300537109375;0.5875244140625;0.792236328125;0.0816650390625;10.88182300426785;12.675462027035595;0.1169926869119152;-0.37158203125;0.69091796875;0.2529296875;-153.0625;-72.125;51.5625;
1441975841580159;-0.1357421875;0.587646484375;0.79296875;0.08612060546875;10.845168687046751;12.665371018037614;0.06933381025902041;-0.3154296875;0.76513671875;0.26513671875;-172.375;-88.4375;29.1875;
1441975841603161;-0.11187744140625;0.53851318359375;0.83148193359375;0.0777587890625;10.565341030575931;12.289324843805831;17.973771483218123;-0.1923828125;1.22607421875;0.3623046875;4.9375;-44.0;-10.6875;
1441975841625162;-0.08563232421875;0.50262451171875;0.85693359375;0.07501220703125;10.283738643365366;12.025277266779728;17.875137704963855;-0.212890625;1.00146484375;0.71142578125;-344.4375;-132.9375;98.0;
1441975841640163;-0.0654296875;0.48291015625;0.870361328125;0.069580078125;10.043519733162844;11.886896729748745;17.83114004399591;-0.52490234375;0.82373046875;0.48974609375;-239.875;-151.5625;87.1875;
1441975841663164;-0.04132080078125;0.4571533203125;0.88665771484375;0.0550537109375;9.710132715297284;11.716793660008538;17.827099515772172;-0.03369140625;0.3798828125;0.52978515625;-125.3125;-97.25;80.0;
1441975841685165;-0.01861572265625;0.4320068359375;0.9007568359375;0.03936767578125;9.387374900836168;11.556928125660434;17.842446483903537;-0.05224609375;0.560546875;0.5947265625;-166.9375;-95.6875;135.75;
1441975841700166;-0.017333984375;0.429931640625;0.90167236328125;0.0413818359375;9.38331244526972;11.543510615890003;17.82840339049869;-0.21875;0.77587890625;0.63623046875;-161.1875;-87.4375;139.8125;
1441975841731168;-0.02862548828125;0.4224853515625;0.905029296875;0.03924560546875;9.48749332166324;11.496671108017566;17.865240898172285;-0.1044921875;0.55078125;0.6259765625;-2.8125;-13.4375;-4.0;
1441975841746169;-0.04620361328125;0.40869140625;0.91082763671875;0.03350830078125;9.640571624010509;11.4128378341191;17.932891179893545;-0.279296875;0.6083984375;0.6767578125;-40.5625;52.75;-5.5625;
1441975841762170;-0.0709228515625;0.40447998046875;0.911376953125;0.0267333984375;9.86795317889663;11.395123436074774;0.025055402461185677;-0.13916015625;0.67138671875;0.72802734375;-89.0625;100.875;-13.1875;
1441975841783171;-0.09796142578125;0.3995361328125;0.9112548828125;0.01849365234375;10.11467452554041;11.38019323667227;0.13019952285080538;-0.15234375;0.66357421875;0.71533203125;-28.25;144.125;-23.375;
1441975841805172;-0.130615234375;0.3890380859375;0.911865234375;0.00738525390625;10.412050677527718;11.342825278471885;0.26079791020348037;-0.2333984375;0.5947265625;0.658203125;-31.5625;159.0625;-21.0;
1441975841820173;-0.167236328125;0.38140869140625;0.9090576171875;-0.00958251953125;10.72636742608995;11.342539019472767;0.4366946805073444;-0.322265625;0.62646484375;0.638671875;-65.25;193.5;-21.125;
1441975841843174;-0.20172119140625;0.376708984375;0.90374755859375;-0.02490234375;11.023398527188945;11.37130135716279;0.605975566641356;-0.0791015625;0.5673828125;0.59716796875;-47.5625;233.25;-1.125;
1441975841865176;-0.23291015625;0.37115478515625;0.89801025390625;-0.03948974609375;11.28925200100629;11.401837221702895;0.7673541480539601;0.0888671875;0.53564453125;0.5712890625;-24.8125;223.0;-3.8125;
1441975841880177;-0.25909423828125;0.3685302734375;0.891357421875;-0.04949951171875;11.517878137156531;11.4485215517291;0.89860350201239;0.11328125;0.5537109375;0.48388671875;-29.25;205.0;-2.625;
1441975841903178;-0.27667236328125;0.36431884765625;0.88714599609375;-0.0609130859375;11.651983684721298;11.473562613755846;1.012392651948714;0.0361328125;0.51708984375;0.373046875;-7.6875;168.5625;-10.3125;
1441975841925179;-0.2823486328125;0.36529541015625;0.88409423828125;-0.07159423828125;11.655007575639523;11.505694411233227;1.0924098370661413;-0.01708984375;0.4931640625;0.38134765625;-25.25;124.0;12.375;
1441975841940180;-0.3079833984375;0.38726806640625;0.86578369140625;-0.0743408203125;11.840778431008278;11.726871364096228;1.2340819812144477;0.11767578125;0.552734375;0.40673828125;-6.8125;73.1875;22.25;
1441975841963181;-0.33447265625;0.32098388671875;0.875244140625;-0.13763427734375;11.981389234592454;11.445952068506005;1.5841132223286356;-0.3134765625;0.67822265625;0.06591796875;150.6875;153.9375;1.875;
1441975841985183;-0.3328857421875;0.343505859375;0.867431640625;-0.1365966796875;11.892821508351481;11.585453034668012;1.6074074593326517;-0.615234375;1.44140625;0.8701171875;-457.0;285.625;129.125;
1441975842000183;-0.3543701171875;0.326416015625;0.853271484375;-0.199462890625;11.832940426931454;11.625457081105475;2.025340338959628;-0.078125;1.87451171875;0.78125;93.5625;12.375;-13.375;
1441975842023185;-0.38739013671875;0.3277587890625;0.83056640625;-0.22930908203125;11.955308344629184;11.805860814541623;2.343733039133717;0.48193359375;1.42919921875;1.83203125;-160.5625;271.8125;249.1875;
1441975842045186;-0.36175537109375;0.3358154296875;0.82342529296875;-0.27984619140625;11.406740078597942;11.791919341600396;2.5215453336898292;-0.24609375;0.19921875;0.845703125;34.9375;267.25;113.9375;
1441975842068187;-0.361083984375;0.35247802734375;0.8004150390625;-0.323486328125;11.048822912050738;11.92043498280826;2.7774510345771737;-0.470703125;1.74853515625;-0.5810546875;-116.75;-31.375;310.0;
1441975842083188;-0.3858642578125;0.3831787109375;0.76422119140625;-0.34674072265625;10.89080500901838;12.220726181101517;3.03925750820334;0.41357421875;0.56298828125;-0.552734375;19.0;101.375;270.1875;
1441975842105189;-0.38653564453125;0.37738037109375;0.74859619140625;-0.38433837890625;10.677730634303066;12.211304965205994;3.246425069844439;-0.48095703125;0.51123046875;1.22314453125;226.375;182.625;191.6875;
1441975842120190;-0.3973388671875;0.3826904296875;0.7275390625;-0.40777587890625;10.54308605210808;12.302540214136243;3.4302920472704868;-0.22607421875;1.32763671875;0.67626953125;-72.4375;133.375;178.0625;
1441975842143192;-0.39990234375;0.37933349609375;0.72467041015625;-0.41357421875;10.541615383147882;12.299121669340682;3.473520610742488;-0.50537109375;1.70703125;0.55322265625;36.9375;131.0;135.3125;
1441975842165193;-0.39801025390625;0.37603759765625;0.7252197265625;-0.41741943359375;10.526947999008057;12.273978799161801;3.4849714475681433;-0.869140625;1.1982421875;0.78369140625;1.0625;28.5625;49.4375;
1441975842180194;-0.38909912109375;0.38018798828125;0.7255859375;-0.42144775390625;10.413353332129924;12.255496922758134;3.4674789231104715;-0.89453125;0.6357421875;0.55126953125;-11.8125;-7.875;54.5625;
1441975842211195;-0.38262939453125;0.38616943359375;0.72198486328125;-0.427978515625;10.282475140247348;12.260246472612522;3.477004585290989;-0.58740234375;0.85205078125;0.51416015625;-6.75;-47.0625;66.375;
1441975842225196;-0.38116455078125;0.3914794921875;0.7083740234375;-0.44683837890625;10.096199559035131;12.288490011518949;3.579356750280598;-0.3798828125;1.0302734375;0.62548828125;11.75;-20.5;70.875;
1441975842240197;-0.36871337890625;0.39886474609375;0.6905517578125;-0.47760009765625;9.736760364273293;12.27928747199747;3.704386205751351;-0.6259765625;1.10107421875;0.57177734375;8.375;50.0;132.5;
1441975842263198;-0.3580322265625;0.40496826171875;0.6807861328125;-0.49432373046875;9.499764830599771;12.267038567516163;3.7586664227086097;-0.68017578125;1.08447265625;0.32470703125;-31.5625;34.4375;223.0625;
1441975842285200;-0.31878662109375;0.429931640625;0.6812744140625;-0.4993896484375;9.028393383503667;12.235918993129427;3.63322175476463;-0.7041015625;1.125;0.20166015625;-23.0;-4.875;139.5;
1441975842300201;-0.2943115234375;0.43646240234375;0.65875244140625;-0.53753662109375;8.532689770297964;12.171598842333445;3.7769685526697185;-0.7333984375;0.29736328125;-0.400390625;-34.0625;-219.0;172.0;
1441975842323202;-0.29205322265625;0.41754150390625;0.66839599609375;-0.54180908203125;8.644282834177172;12.060410731957168;3.7976356978845356;2.341796875;2.0322265625;0.3740234375;-58.6875;20.8125;285.75;
1441975842345203;-0.3023681640625;0.38739013671875;0.67852783203125;-0.5460205078125;8.927146278770657;11.943224365105609;3.86185762054663;0.6982421875;0.79931640625;0.85595703125;-103.5625;48.8125;-49.875;
1441975842360204;-0.32025146484375;0.39501953125;0.64990234375;-0.5648193359375;8.828286792765596;12.055885872021708;4.048641579530052;-0.365234375;0.4921875;0.10498046875;-117.625;123.25;-84.75;
1441975842383205;-0.312744140625;0.40850830078125;0.6273193359375;-0.5845947265625;8.510986403947392;12.090728214992282;4.151660524204257;0.87841796875;0.3427734375;-0.52001953125;105.5;144.4375;123.625;
1441975842405207;-0.3057861328125;0.4119873046875;0.60186767578125;-0.61199951171875;8.217297717909753;12.072290265364245;4.31500910930328;-0.158203125;0.3115234375;1.3623046875;58.875;11.875;191.4375;
1441975842420207;-0.2860107421875;0.40728759765625;0.57403564453125;-0.6502685546875;7.8385749314737865;11.949447073974056;4.527055812919004;0.3525390625;0.666015625;0.17138671875;-3.3125;75.5625;202.5625;
1441975842442209;-0.28033447265625;0.4603271484375;0.5953369140625;-0.59588623046875;7.759506872699806;12.229678732460018;4.10966588325131;0.0498046875;0.7724609375;-0.23779296875;-97.1875;88.375;270.4375;
1441975842465210;-0.2679443359375;0.4951171875;0.5938720703125;-0.5748291015625;7.546601342822836;12.388688138301642;3.917130014026762;-0.32666015625;1.12255859375;-0.37353515625;178.8125;-380.3125;-150.5625;
1441975842480211;-0.2252197265625;0.50872802734375;0.62493896484375;-0.54766845703125;7.399468205062639;12.332591803608992;3.5948444834194;-0.3984375;0.40625;0.45751953125;118.1875;-219.0625;29.9375;
1441975842502212;-0.20977783203125;0.52813720703125;0.63739013671875;-0.52032470703125;7.360832493119527;12.417020254511975;3.364184145799409;0.44580078125;1.0478515625;0.7275390625;-136.6875;-316.25;-54.5625;
1441975842525213;-0.2088623046875;0.5540771484375;0.63702392578125;-0.4935302734375;7.369156015641599;12.593204648892545;3.1837909584687023;0.4970703125;0.9833984375;-0.5556640625;5.625;-206.0625;-70.25;
1441975842540214;-0.20782470703125;0.55780029296875;0.63421630859375;-0.493408203125;7.333168731115375;12.614725100218601;3.177427114969703;0.64404296875;0.80712890625;0.05224609375;122.0625;-158.25;-69.1875;
1441975842562216;-0.2076416015625;0.56085205078125;0.65576171875;-0.460693359375;7.5850580925376345;12.646571530390338;2.9848721627614205;0.40869140625;0.1611328125;0.38134765625;40.8125;-10.375;-7.4375;
1441975842585217;-0.18731689453125;0.54620361328125;0.66851806640625;-0.4686279296875;7.484121334599697;12.490524390715507;2.9725920662005443;0.75927734375;0.4892578125;-0.353515625;-27.3125;-134.4375;-185.9375;
1441975842600218;-0.17169189453125;0.544677734375;0.68157958984375;-0.45751953125;7.46716110682797;12.44333424442825;2.860104038220525;0.75537109375;1.55859375;0.83544921875;-154.875;-26.8125;39.125;
1441975842622219;-0.159912109375;0.5050048828125;0.7113037109375;-0.46197509765625;7.616580522335363;12.15674519221289;2.8739882429570027;-0.7568359375;0.7666015625;-0.21533203125;-85.0625;-108.0625;-15.25;
1441975842645220;-0.16461181640625;0.48822021484375;0.7286376953125;-0.451171875;7.842369675962762;12.069688087072935;2.8321847313304565;1.38427734375;0.74658203125;0.32470703125;-284.25;51.0625;-81.0625;
1441975842660221;-0.16729736328125;0.48876953125;0.74334716796875;-0.4248046875;8.041222056260189;12.089232358924802;2.6874393571920496;-0.32568359375;0.0634765625;0.9580078125;-82.5;10.3125;-113.8125;
1441975842682222;-0.1558837890625;0.4954833984375;0.753173828125;-0.403564453125;8.04961473332808;12.108770042955726;2.5313887960607286;0.345703125;0.21923828125;0.578125;-0.125;-77.0625;-159.625;
1441975842705224;-0.140869140625;0.50445556640625;0.73162841796875;-0.436279296875;7.646416277893972;12.117005886148156;2.670209059481713;0.23291015625;0.79638671875;0.9921875;2.0625;-135.1875;-77.1875;
1441975842720225;-0.1270751953125;0.51788330078125;0.72027587890625;-0.443603515625;7.395275318824893;12.166840299789522;2.6658594425919064;0.52880859375;1.52490234375;-0.35888671875;18.625;31.5625;240.3125;
1441975842742226;-0.0987548828125;0.5203857421875;0.71429443359375;-0.45733642578125;7.04318988362863;12.112057427019622;2.668634807553589;-0.2041015625;1.333984375;0.5869140625;47.25;-65.5625;119.125;
1441975842765227;-0.07757568359375;0.5411376953125;0.69720458984375;-0.46368408203125;6.681612515418241;12.20242583656261;2.6315452802461934;-0.03076171875;0.1015625;-0.0546875;-55.375;-78.1875;158.75;
1441975842780228;-0.061279296875;0.558349609375;0.68603515625;-0.46234130859375;6.438929666730579;12.292516008700801;2.5604409106087758;0.751953125;0.791015625;0.109375;72.8125;-108.25;140.375;
1441975842802229;-0.04681396484375;0.569091796875;0.67791748046875;-0.46295166015625;6.2388520214524945;12.344292015193055;2.511093265952996;0.7080078125;0.51318359375;0.294921875;61.8125;-107.625;76.4375;
1441975842825231;-0.034912109375;0.57476806640625;0.6754150390625;-0.460693359375;6.115623872998046;12.369194883710078;2.456845708665438;0.97998046875;0.75830078125;0.1455078125;19.4375;-61.0625;42.125;
1441975842840231;-0.03094482421875;0.57794189453125;0.67889404296875;-0.45172119140625;6.130431834374937;12.395061062137733;2.3867890151292595;0.83642578125;0.62060546875;0.32177734375;3.1875;-59.1875;11.6875;
1441975842863233;-0.02593994140625;0.5872802734375;0.6826171875;-0.43408203125;6.167590746651727;12.47307633631578;2.253054950287163;0.11572265625;0.63720703125;0.501953125;5.6875;-68.25;-15.3125;
1441975842885234;-0.0084228515625;0.5924072265625;0.68328857421875;-0.42669677734375;6.039218115109017;12.497954883621347;2.150733700956449;0.2978515625;0.80908203125;0.12060546875;3.5625;-100.0;-50.4375;
1441975842900235;-0.00445556640625;0.60125732421875;0.6810302734375;-0.41790771484375;6.023249925400567;12.569815929820795;2.0723567356306325;1.39892578125;0.38330078125;0.3974609375;-8.5625;-91.25;-38.0;
1441975842922236;6.103515625E-5;0.60992431640625;0.67620849609375;-0.41314697265625;5.972960201840641;12.638048794733454;2.01540520692452;0.60009765625;0.60595703125;0.1962890625;32.625;-62.0625;-28.4375;
1441975842945237;0.01019287109375;0.614990234375;0.6727294921875;-0.4111328125;5.870496215685371;12.672875675749873;1.9626027788446354;0.59033203125;0.701171875;0.0595703125;30.4375;-46.0625;-0.6875;
1441975842960238;0.02239990234375;0.6214599609375;0.67041015625;-0.40472412109375;5.77853759535178;12.723432684626415;1.8741114440733897;0.544921875;0.5419921875;0.17138671875;8.5625;-55.0625;24.1875;
1441975842982240;0.03271484375;0.63189697265625;0.66650390625;-0.3941650390625;5.719541222720298;12.814403672120418;1.758315422062811;0.47802734375;0.36083984375;0.2548828125;13.0;-87.0;9.875;
1441975843005241;0.0294189453125;0.63751220703125;0.66790771484375;-0.3828125;5.816811458144699;12.869872734454933;1.6951164595609;0.82470703125;0.6884765625;0.03857421875;21.8125;-91.625;-17.5;
1441975843020242;0.02899169921875;0.63885498046875;0.67242431640625;-0.37249755859375;5.900304884931752;12.887240023859038;1.638464554827911;0.5751953125;1.03369140625;0.166015625;17.4375;-39.8125;-54.6875;
1441975843042243;0.03179931640625;0.63751220703125;0.67974853515625;-0.36114501953125;5.975214067062228;12.88147308558534;1.5715222778317455;0.67919921875;0.861328125;0.17333984375;-12.6875;-35.6875;-60.0;
1441975843065244;0.03607177734375;0.63885498046875;0.68426513671875;-0.3497314453125;6.024866788508225;12.89799749330334;1.4940943549170742;0.607421875;0.740234375;0.21484375;-36.75;-48.125;-59.0;
1441975843088246;0.0439453125;0.642578125;0.68402099609375;-0.34234619140625;5.9991686550498375;12.933040758641399;1.420115669621118;0.48974609375;0.66064453125;0.203125;-18.3125;-61.125;-44.375;
1441975843102246;0.051513671875;0.6485595703125;0.6827392578125;-0.3323974609375;5.989753225141378;12.989491260483613;1.328998654897951;0.5078125;0.69580078125;0.23779296875;3.875;-67.75;-6.125;
1441975843125248;0.05596923828125;0.6494140625;0.6866455078125;-0.32183837890625;6.033632515177469;13.002309568867215;1.2575557256451133;0.798828125;0.94189453125;0.17529296875;11.25;-76.0;-24.9375;
1441975843148249;0.0604248046875;0.6474609375;0.69140625;-0.3148193359375;6.0579371219225795;12.989839628565816;1.2101037721139631;0.521484375;0.95703125;0.0478515625;-29.8125;-53.1875;-30.625;
1441975843162250;0.06475830078125;0.64605712890625;0.69384765625;-0.31134033203125;6.051595351964463;12.981195844172849;1.1796052213635573;0.61865234375;0.77490234375;0.10400390625;-38.125;-35.6875;-29.875;
1441975843186251;0.064453125;0.64544677734375;0.69818115234375;-0.3028564453125;6.125013142121914;12.979443915472796;1.1398996010070124;0.533203125;0.703125;0.12646484375;-23.5625;-25.25;-9.375;
1441975843208252;0.06378173828125;0.6417236328125;0.70635986328125;-0.291748046875;6.2317116729553;12.952548531785101;1.0950880327751884;0.5390625;0.908203125;0.0791015625;-26.625;-24.0;-44.375;
1441975843222253;0.0657958984375;0.63665771484375;0.7147216796875;-0.28192138671875;6.3061075687701305;12.91543519713705;1.0491058716128991;0.42822265625;0.9453125;0.1982421875;-47.25;-30.3125;-55.0;
1441975843245255;0.07342529296875;0.628662109375;0.7247314453125;-0.27203369140625;6.335051596614622;12.857867797755787;0.9875380880524234;0.40869140625;0.98876953125;0.2138671875;-57.6875;-34.25;-37.9375;
1441975843261256;0.08197021484375;0.61907958984375;0.73431396484375;-0.2659912109375;6.327254370884251;12.787010045051957;0.9445135213242564;0.53759765625;0.9951171875;0.17724609375;-88.375;-48.9375;-27.5;
1441975843282257;0.08270263671875;0.6121826171875;0.74151611328125;-0.26171875;6.369738471953519;12.734356908458784;0.9332279661387971;0.421875;0.9140625;0.21728515625;-91.0;-38.6875;-1.9375;
1441975843305258;0.08642578125;0.6005859375;0.75225830078125;-0.2567138671875;6.3998111444861765;12.647158013351072;0.9157293476285747;0.22607421875;1.0009765625;0.14697265625;-65.6875;-4.875;-5.625;
1441975843321259;0.08135986328125;0.58673095703125;0.76641845703125;-0.24835205078125;6.540733108727412;12.542722773388299;0.914054768791299;0.69677734375;0.88037109375;0.341796875;-90.4375;-8.9375;-34.125;
1441975843342260;0.07794189453125;0.56951904296875;0.77978515625;-0.2479248046875;6.6173499988746505;12.412018199877208;0.950227927473962;0.0390625;0.6875;0.35693359375;-103.5625;18.0;-63.0;
1441975843365261;0.05316162109375;0.5438232421875;0.80029296875;-0.24676513671875;6.929802398690478;12.224641345999085;1.056373228293309;0.00537109375;0.69140625;0.24560546875;-116.25;43.0;-19.625;
1441975843388263;0.0274658203125;0.515869140625;0.82647705078125;-0.2235107421875;7.39764258025128;12.049249247610689;1.0394907621358471;-0.0810546875;1.03662109375;0.37841796875;-148.5625;149.9375;-96.25;
1441975843402264;0.05633544921875;0.5157470703125;0.82806396484375;-0.212158203125;7.1809384762317565;12.04650952042702;0.8991006066889276;-2.32861328125;0.998046875;1.69873046875;-180.875;92.9375;-215.5;
1441975843425265;0.07421875;0.50030517578125;0.82965087890625;-0.2362060546875;6.892881496777685;11.92221175188196;0.9952487749791636;-0.978515625;0.30224609375;0.8203125;-35.3125;-182.25;45.4375;
1441975843448266;0.06451416015625;0.47021484375;0.8505859375;-0.2261962890625;7.118609180905053;11.725886161987432;1.0013064525502622;1.4423828125;0.3740234375;0.990234375;-50.0625;30.4375;97.875;
1441975843470267;0.00103759765625;0.41229248046875;0.88824462890625;-0.202392578125;8.028511796744413;11.39816932443511;1.067110975465724;1.4130859375;0.4697265625;0.96484375;-185.6875;74.625;-107.5625;
1441975843487268;-0.05035400390625;0.37725830078125;0.90875244140625;-0.1710205078125;8.784967296407306;11.235144700905964;1.0215859167882932;1.84326171875;2.00048828125;-0.24951171875;-312.125;335.5625;-316.0625;
1441975843508270;-0.07379150390625;0.35186767578125;0.91864013671875;-0.163818359375;9.116267200523989;11.106440735567366;1.033501096276882;0.27294921875;1.5078125;0.36962890625;-181.75;232.8125;-307.1875;
1441975843522270;-0.07373046875;0.328369140625;0.92718505859375;-0.16436767578125;9.164911046237549;10.965251882601638;1.034720823438605;2.13232421875;1.26513671875;0.18505859375;-128.6875;128.4375;-105.25;
1441975843545272;-0.0679931640625;0.30987548828125;0.93304443359375;-0.16943359375;9.125351851675878;10.84881480443352;1.0501886621523129;1.08251953125;0.583984375;0.56494140625;-142.875;33.625;-27.625;
1441975843568273;-0.0614013671875;0.29229736328125;0.9388427734375;-0.17108154296875;9.087554689685707;10.737420340096076;1.0464438047469655;-0.01025390625;0.615234375;0.6884765625;-118.3125;-5.875;24.1875;
1441975843582274;-0.0562744140625;0.27838134765625;0.943115234375;-0.1727294921875;9.0571679725438;10.64979204139196;1.046323255499102;-0.24072265625;0.5400390625;0.85205078125;-110.6875;-20.625;10.4375;
1441975843605275;-0.0540771484375;0.267578125;0.94580078125;-0.17572021484375;9.047299062490398;10.584105518530423;1.05920760023419;-0.15087890625;0.52880859375;0.8623046875;-85.625;-20.9375;13.8125;
1441975843628277;-0.05224609375;0.2591552734375;0.9468994140625;-0.18280029296875;9.024044724040422;10.532963708563111;1.0959571454346602;-0.12939453125;0.4775390625;0.8251953125;-63.8125;-4.6875;18.25;
1441975843642277;-0.04638671875;0.25921630859375;0.94317626953125;-0.20257568359375;8.899608178101744;10.52608157035776;1.198489319001299;0.0556640625;0.19287109375;0.72900390625;-37.0625;12.625;35.125;
1441975843665279;-0.04974365234375;0.24176025390625;0.94793701171875;-0.200927734375;8.983697459861261;10.4290366000621;1.194670419583682;0.55419921875;0.67041015625;0.794921875;-9.625;6.5625;115.375;
1441975843688280;-0.04168701171875;0.234375;0.94891357421875;-0.20684814453125;8.897737403922797;10.376368406994809;1.217195587939046;-0.55224609375;0.31298828125;0.9345703125;-84.875;0.625;-4.9375;
1441975843702281;-0.036865234375;0.23284912109375;0.94732666015625;-0.2166748046875;8.82201251535051;10.360927352839118;1.2667753225533092;0.3046875;0.33251953125;0.82666015625;-46.4375;-9.4375;30.375;
1441975843726282;-0.03094482421875;0.234375;0.943603515625;-0.231689453125;8.71221231351448;10.360488946270298;1.3447000822554427;0.0771484375;0.41455078125;0.822265625;-13.9375;-7.8125;59.9375;
1441975843749283;-0.031982421875;0.23785400390625;0.940185546875;-0.24169921875;8.685624411404719;10.380425858515528;1.4030879333899269;0.134765625;0.357421875;0.87353515625;8.5625;-7.875;91.25;
1441975843771285;-0.04248046875;0.2508544921875;0.93719482421875;-0.2384033203125;8.770824407790188;10.469968991222508;1.3971529066281232;-0.04296875;0.21826171875;0.86083984375;37.5;9.3125;60.0625;
1441975843794286;-0.0501708984375;0.26666259765625;0.9317626953125;-0.24114990234375;8.798747625503474;10.571551738389669;1.422718764770472;-0.2080078125;0.3515625;0.85009765625;97.0;19.0;-17.875;
1441975843807287;-0.0579833984375;0.2789306640625;0.92620849609375;-0.2467041015625;8.826822434807731;10.653334573862644;1.4657912151574084;0.0029296875;0.4541015625;0.83935546875;103.125;24.6875;15.1875;
1441975843822288;-0.062744140625;0.2772216796875;0.92578125;-0.249267578125;8.873766101853898;10.650238746992462;1.4882575450971973;0.01708984375;0.74169921875;0.7841796875;69.5625;34.125;30.0625;
1441975843853289;-0.06341552734375;0.2650146484375;0.9288330078125;-0.25091552734375;8.91297257864102;10.580796168096384;1.4993885626093348;0.0126953125;0.69580078125;0.75244140625;-14.8125;31.5;6.4375;
1441975843867290;-0.06475830078125;0.2530517578125;0.93145751953125;-0.25323486328125;8.956889852763641;10.514050807523034;1.515103909695585;0.12109375;0.509765625;0.78759765625;-70.75;28.5625;-4.9375;
1441975843882291;-0.06768798828125;0.2440185546875;0.93304443359375;-0.2554931640625;9.009291637881727;10.466899751529018;1.5325934239102361;0.109375;0.41064453125;0.7802734375;-64.0;33.3125;-1.6875;
1441975843905292;-0.070556640625;0.22998046875;0.9365234375;-0.25494384765625;9.085331187712036;10.391400773998225;1.5333957801044882;0.1396484375;0.48095703125;0.80322265625;-48.8125;39.75;-2.875;
1441975843927294;-0.07232666015625;0.2083740234375;0.94097900390625;-0.25653076171875;9.167384509671354;10.271744736821395;1.5438347391947829;0.04150390625;0.74609375;0.9658203125;-90.3125;37.4375;-19.5625;
1441975843942294;-0.08251953125;0.1884765625;0.946044921875;-0.2503662109375;9.354066761645718;10.17481233123565;1.5191510276501496;-0.12744140625;0.26708984375;0.9892578125;-116.875;40.125;-8.125;
1441975843965296;-0.09442138671875;0.19122314453125;0.94677734375;-0.240966796875;9.497039072490942;10.20760963430857;1.4811343495972835;-0.39794921875;0.078125;0.8701171875;-76.6875;52.5625;-50.3125;
1441975843987297;-0.10626220703125;0.19256591796875;0.94793701171875;-0.23028564453125;9.647505483297314;10.231272007050446;1.4361914879521518;0.15625;0.27880859375;0.9248046875;44.375;65.625;-69.75;
1441975844002298;-0.12420654296875;0.20819091796875;0.944091796875;-0.22344970703125;9.813366833814513;10.34734525689902;1.4291767767154464;0.22509765625;0.1025390625;0.900390625;48.125;71.3125;-79.125;
1441975844025299;-0.14178466796875;0.2274169921875;0.93798828125;-0.21966552734375;9.956059455939783;10.486314716587334;1.4451839777785016;0.00927734375;0.26318359375;0.82861328125;119.125;73.875;-43.25;
1441975844048301;-0.15936279296875;0.248779296875;0.93072509765625;-0.21551513671875;10.091879775089838;10.6396102533414;1.4648257465048475;-0.15771484375;0.3564453125;0.86279296875;138.75;70.375;-19.625;
1441975844062301;-0.17535400390625;0.26123046875;0.9267578125;-0.20501708984375;10.258743561783133;10.736976673038903;1.4449917148231042;-0.22998046875;0.4150390625;0.74951171875;150.5;67.125;-18.125;
1441975844093303;-0.19482421875;0.2811279296875;0.919921875;-0.1915283203125;10.452344078249093;10.884688014588985;1.4251513615942575;-0.2431640625;0.47021484375;0.84716796875;103.25;58.3125;-62.1875;
1441975844108304;-0.2125244140625;0.3013916015625;0.912109375;-0.17877197265625;10.625760656485525;11.034318438357179;1.4120763507422145;-0.26123046875;0.64697265625;0.68896484375;150.875;66.5;-72.8125;
1441975844130305;-0.23089599609375;0.3228759765625;0.90216064453125;-0.16864013671875;10.792327298805908;11.198207651919786;1.4230408420881953;-0.18896484375;0.68603515625;0.6640625;151.375;60.0;-65.8125;
1441975844153307;-0.2420654296875;0.33856201171875;0.894775390625;-0.16162109375;10.889061322141497;11.315513326774091;1.430844652098515;-0.466796875;0.66357421875;0.52392578125;158.9375;65.75;-46.75;
1441975844175308;-0.25201416015625;0.345947265625;0.8905029296875;-0.15411376953125;11.001277926559146;11.379958051081225;1.4268279293245532;0.03076171875;1.037109375;0.61865234375;96.875;55.6875;-54.0;
1441975844183308;-0.2637939453125;0.3502197265625;0.8868408203125;-0.14569091796875;11.146025905737476;11.429853051843867;1.421930739705559;-0.08251953125;0.8798828125;0.5791015625;54.5625;45.75;-60.5625;
1441975844205310;-0.27362060546875;0.34979248046875;0.88543701171875;-0.136962890625;11.287599714525474;11.445516944784405;1.4050257720791224;-0.4013671875;0.9248046875;0.5263671875;37.1875;41.5625;-60.875;
1441975844229311;-0.28350830078125;0.34588623046875;0.8851318359375;-0.12823486328125;11.440660957594528;11.439532130077685;1.3845241373210513;-0.4296875;0.8544921875;0.5966796875;14.75;32.8125;-65.875;
1441975844243312;-0.29144287109375;0.337646484375;0.8868408203125;-0.12054443359375;11.581970725032802;11.401002253300362;1.3570205461486187;-0.5810546875;0.81787109375;0.58203125;-4.375;28.5625;-66.0625;
1441975844265313;-0.294189453125;0.32855224609375;0.88995361328125;-0.11602783203125;11.657694130782575;11.345321963403375;1.3278369038663245;-0.59130859375;0.68017578125;0.62744140625;-26.3125;22.6875;-62.1875;
1441975844289314;-0.29388427734375;0.31707763671875;0.8944091796875;-0.1141357421875;11.696015219617449;11.26861803029336;1.2994464453436807;-0.3056640625;0.83056640625;0.62548828125;-49.4375;12.6875;-57.8125;
1441975844303315;-0.2958984375;0.30596923828125;0.89801025390625;-0.111328125;11.76014587139015;11.199176050344926;1.2732376336514342;-0.1875;0.681640625;0.66845703125;-64.1875;7.6875;-44.8125;
1441975844325316;-0.29498291015625;0.30096435546875;0.900146484375;-0.1099853515625;11.77020205677417;11.16291554879137;1.2550177011039714;-0.47998046875;0.5009765625;0.6474609375;-51.9375;5.9375;-34.75;
1441975844348318;-0.29388427734375;0.2974853515625;0.90185546875;-0.10821533203125;11.775779362319284;11.13549161713163;1.2360364309256917;-0.21875;0.55908203125;0.64892578125;-25.5625;3.6875;-24.125;
1441975844364319;-0.292724609375;0.2945556640625;0.9034423828125;-0.1064453125;11.778897397043115;11.111316860114869;1.2175975735652786;-0.2763671875;0.53564453125;0.65185546875;-15.5625;-0.8125;-20.3125;
1441975844385320;-0.2921142578125;0.29193115234375;0.9046630859375;-0.10479736328125;11.786339003694435;11.09084657493258;1.2021388761286254;-0.32421875;0.5498046875;0.634765625;-14.1875;-3.8125;-17.5;
1441975844408321;-0.2930908203125;0.28857421875;0.90570068359375;-0.10235595703125;11.815478734778882;11.068659622629559;1.1856934522042737;-0.380859375;0.52783203125;0.619140625;-12.25;-3.5625;-14.25;
1441975844423322;-0.29559326171875;0.28399658203125;0.90679931640625;-0.09796142578125;11.871734020349766;11.03987043258646;1.1603592988996656;-0.5;0.57373046875;0.64306640625;-15.0;-0.6875;-19.1875;
1441975844445323;-0.29730224609375;0.27996826171875;0.907958984375;-0.09417724609375;11.91520354976304;11.012935256814758;1.1366184644723094;-0.5439453125;0.5390625;0.64599609375;-15.625;2.875;-31.5625;
1441975844468325;-0.3004150390625;0.276611328125;0.9083251953125;-0.08990478515625;11.973974256869278;10.993349535231737;1.1152769111170209;-0.42529296875;0.48388671875;0.6494140625;-12.5625;5.0625;-29.625;
1441975844484325;-0.302978515625;0.27435302734375;0.90863037109375;-0.08502197265625;12.026416672549349;10.978251456498564;1.0901062992867314;-0.5537109375;0.45361328125;0.64404296875;-5.0;7.0625;-27.375;
1441975844505327;-0.30517578125;0.27301025390625;0.90863037109375;-0.08160400390625;12.066779630340584;10.970072361644874;1.0739489253714;-0.41650390625;0.4384765625;0.64501953125;1.75;9.6875;-33.0625;
1441975844528328;-0.30419921875;0.275390625;0.9083251953125;-0.08056640625;12.054988937362554;10.981754135071583;1.0689473501570026;-0.4521484375;0.408203125;0.62255859375;4.9375;7.875;-20.75;
1441975844544329;-0.30487060546875;0.2760009765625;0.90802001953125;-0.07952880859375;12.064942804341005;10.985934607300734;1.0658114616973382;-0.16064453125;0.51416015625;0.60205078125;13.3125;6.5625;-11.6875;
1441975844566330;-0.305908203125;0.27874755859375;0.90692138671875;-0.0789794921875;12.07188878152726;11.00573661136606;1.0704023575080392;-0.37451171875;0.427734375;0.6474609375;10.75;7.8125;-6.125;
1441975844588331;-0.3072509765625;0.28118896484375;0.90576171875;-0.078369140625;12.083122206161502;11.024388916450434;1.075164920083839;-0.4306640625;0.47900390625;0.63525390625;20.0625;8.0625;0.3125;
1441975844603332;-0.30865478515625;0.284423828125;0.90423583984375;-0.07855224609375;12.089862632152371;11.04967617277735;1.0863400875233415;-0.47998046875;0.49560546875;0.67138671875;19.6875;9.1875;0.25;
1441975844624333;-0.30853271484375;0.289306640625;0.9024658203125;-0.0811767578125;12.066041670526985;11.085350961792157;1.1101566766976532;-0.5205078125;0.533203125;0.6845703125;22.5;9.75;6.4375;
1441975844648335;-0.31036376953125;0.29241943359375;0.900634765625;-0.0838623046875;12.066365848331053;11.114399039041846;1.137241442837799;-0.33251953125;0.65283203125;0.65771484375;20.125;12.9375;13.125;
1441975844664336;-0.3123779296875;0.29437255859375;0.89898681640625;-0.08648681640625;12.071603440042722;11.136586367534925;1.1628029139381761;-0.57763671875;0.6474609375;0.69873046875;14.6875;15.0;17.4375;
1441975844685337;-0.3131103515625;0.29547119140625;0.89837646484375;-0.08697509765625;12.074324060268902;11.146390146386874;1.1698991510300727;-0.64501953125;0.64697265625;0.71533203125;9.75;13.875;17.75;
1441975844708338;-0.314697265625;0.29425048828125;0.89825439453125;-0.0860595703125;12.098204923181967;11.141601693272392;1.1676675486840042;-0.50146484375;0.69091796875;0.7099609375;4.75;8.5;-0.8125;
1441975844724339;-0.31390380859375;0.2918701171875;0.89947509765625;-0.084716796875;12.101532387576732;11.121693212792552;1.152855539004776;-0.54150390625;0.5791015625;0.6552734375;-2.25;7.1875;-8.25;
1441975844745340;-0.31304931640625;0.29144287109375;0.89996337890625;-0.08441162109375;12.094830063628784;11.116038869244175;1.1474745078652326;-0.30029296875;0.53173828125;0.66455078125;-9.0625;3.125;-17.375;
1441975844768342;-0.3150634765625;0.28875732421875;0.90008544921875;-0.08441162109375;12.122887911531455;11.103924400758146;1.1493405755278954;-0.3095703125;0.61767578125;0.61279296875;-5.6875;2.875;-11.1875;
1441975844783343;-0.31719970703125;0.28802490234375;0.89959716796875;-0.08404541015625;12.148902131026555;11.104462417280683;1.1528248479430747;-0.64306640625;0.4599609375;0.59912109375;-9.4375;4.5;0.75;
1441975844805344;-0.31939697265625;0.28961181640625;0.89837646484375;-0.08349609375;12.17049655495509;11.120264961174005;1.1596028123552016;-0.62353515625;0.45947265625;0.5810546875;1.5;5.25;1.6875;
1441975844827345;-0.321533203125;0.29168701171875;0.89703369140625;-0.08233642578125;12.192879751650151;11.138426183630944;1.1635974591669158;-0.6015625;0.5615234375;0.54833984375;9.75;5.4375;0.75;
1441975844843346;-0.323486328125;0.29388427734375;0.895751953125;-0.0810546875;12.213464640868201;11.156695331606969;1.1665200052605051;-0.62158203125;0.552734375;0.525390625;12.9375;2.8125;-0.625;
1441975844865347;-0.325439453125;0.297119140625;0.89404296875;-0.080322265625;12.229015627943884;11.182848614071604;1.1747888153173722;-0.6162109375;0.50048828125;0.5322265625;16.625;2.3125;0.9375;
1441975844887349;-0.32763671875;0.29986572265625;0.892333984375;-0.08038330078125;12.244715525575417;11.207696241580061;1.187809762566689;-0.61328125;0.583984375;0.55078125;19.375;4.6875;2.875;
1441975844904350;-0.32965087890625;0.30169677734375;0.89080810546875;-0.08160400390625;12.255655161330045;11.227890792586702;1.2056284355128728;-0.60302734375;0.61376953125;0.5517578125;14.375;8.25;4.375;
1441975844933351;-0.33282470703125;0.30267333984375;0.88909912109375;-0.083984375;12.275339616128353;11.247471121895224;1.2327853204646142;-0.57275390625;0.603515625;0.55419921875;8.0;11.375;7.9375;
1441975844947352;-0.33233642578125;0.30352783203125;0.88848876953125;-0.08935546875;12.243380891451743;11.259442849158994;1.2644143080945587;-0.72607421875;0.53369140625;0.521484375;4.5625;12.375;19.1875;
1441975844963353;-0.32965087890625;0.30560302734375;0.88873291015625;-0.08953857421875;12.209034547050694;11.26537901527687;1.2597678332336435;-0.43017578125;0.5478515625;0.56689453125;-4.1875;11.0625;27.5625;
