1441975793092386;-0.10845947265625;0.68341064453125;0.717041015625;0.0833740234375;10.563574912871571;13.374154500299149;0.08533809900229133;-2.08056640625;-0.97314453125;-0.3095703125;-172.3125;52.125;198.4375;
1441975793115387;-0.09405517578125;0.69818115234375;0.70733642578125;0.05743408203125;10.231415172578401;13.47853357354743;0.14693600321802786;-1.80615234375;-0.61328125;-0.2802734375;32.5;36.75;177.0625;
1441975793130388;-0.08575439453125;0.702392578125;0.70562744140625;0.0360107421875;9.988220170638103;13.504368931259545;0.20271264704699493;-1.5078125;-0.20361328125;-0.30322265625;89.625;55.25;167.5;
1441975793152389;-0.08013916015625;0.6973876953125;0.71197509765625;0.01629638671875;9.786568887380243;13.458345063260468;0.25650324833564825;-1.24169921875;-0.0537109375;-0.2421875;11.1875;53.6875;142.8125;
1441975793175391;-0.07666015625;0.6944580078125;0.71539306640625;-0.00103759765625;9.621444382376449;13.431866477259018;0.31174268153952;-1.1455078125;-0.044921875;-0.1015625;-55.9375;52.0;121.0625;
1441975793190392;-0.08270263671875;0.696044921875;0.713134765625;-0.00970458984375;9.599544185028785;13.450055817997004;0.3725654710617008;-1.03857421875;-0.0205078125;0.09033203125;-31.6875;53.125;101.3125;
1441975793212393;-0.093994140625;0.699951171875;0.70770263671875;-0.015380859375;9.640324765972485;13.493330966102118;0.44392369146698296;-0.89013671875;0.12890625;0.1103515625;19.8125;60.0;72.25;
1441975793235394;-0.109619140625;0.70172119140625;0.70367431640625;-0.0169677734375;9.749706693766358;13.525961453986115;0.516387141206293;-0.79931640625;0.2998046875;0.03466796875;38.5625;70.6875;33.0625;
1441975793250395;-0.12896728515625;0.7005615234375;0.70166015625;-0.01416015625;9.927370558623043;13.543230001150194;0.5863167617604518;-0.76904296875;0.4755859375;0.00439453125;25.0625;72.0;-5.9375;
1441975793272396;-0.15264892578125;0.69500732421875;0.7025146484375;-0.0074462890625;10.177929273766999;13.537329326255044;0.657362415570524;-0.72802734375;0.65576171875;-0.03369140625;5.9375;68.625;-46.8125;
1441975793312399;-0.17864990234375;0.68646240234375;0.704833984375;4.8828125E-4;10.462687109203426;13.518817530123316;0.7321413564291624;-0.69189453125;0.73291015625;-0.0576171875;-21.9375;67.8125;-89.375;
1441975793314399;-0.21026611328125;0.67755126953125;0.70458984375;0.01385498046875;10.836690248448637;13.520071300589452;0.8120394292749572;-0.66259765625;0.74072265625;-0.052734375;-36.1875;71.3125;-135.125;
1441975793332400;-0.2452392578125;0.67059326171875;0.69927978515625;0.033447265625;11.282145042500812;13.56132026776148;0.8912511287297531;-0.67236328125;0.65771484375;-0.02099609375;-21.875;75.4375;-180.125;
1441975793355401;-0.2813720703125;0.6656494140625;0.6883544921875;0.06158447265625;11.799595804691725;13.644894163717856;0.9581352048153247;-0.73486328125;0.65234375;-0.01904296875;13.375;71.0625;-216.875;
1441975793370402;-0.3170166015625;0.65972900390625;0.6746826171875;0.0947265625;12.355985030103534;13.746379444974085;1.0200985542983765;-0.810546875;0.69580078125;-0.04541015625;54.75;51.3125;-253.8125;
1441975793392403;-0.3531494140625;0.65020751953125;0.65972900390625;0.1312255859375;12.954227581214282;13.853917978128342;1.0889085513180812;-0.83056640625;0.712890625;-0.08837890625;69.4375;34.5;-276.4375;
1441975793415405;-0.39013671875;0.6353759765625;0.64385986328125;0.171630859375;13.609934834249326;13.964362153380783;1.1672530401803254;-0.8271484375;0.80419921875;-0.15234375;65.75;23.0625;-301.5;
1441975793430405;-0.4267578125;0.61407470703125;0.62823486328125;0.214599609375;14.311244322730063;14.069229185574597;1.2543410657157283;-0.9130859375;0.84716796875;-0.2001953125;56.3125;9.9375;-332.875;
1441975793452407;-0.46246337890625;0.58612060546875;0.6142578125;0.25543212890625;15.01808546170648;14.167722018192784;1.3666451499551673;-1.08203125;0.74169921875;-0.22802734375;37.4375;-8.5;-354.75;
1441975793475408;-0.49493408203125;0.55572509765625;0.60101318359375;0.29144287109375;15.676546778717734;14.291711377823198;1.5213066619656102;-1.2724609375;0.50390625;-0.2158203125;3.6875;-15.875;-355.875;
1441975793490409;-0.5225830078125;0.52813720703125;0.5849609375;0.32513427734375;16.272585672962517;14.526517816506304;1.7653884776916686;-1.42822265625;0.16357421875;-0.111328125;-14.9375;-15.4375;-329.5625;
1441975793512410;-0.5438232421875;0.5068359375;0.56390380859375;0.359619140625;16.793816750266924;15.013247099452858;2.2100242923421485;-1.4482421875;-0.16650390625;0.03515625;5.375;-9.4375;-299.5625;
1441975793535411;-0.55810546875;0.48992919921875;0.54248046875;0.39263916015625;17.200909466643232;15.892515725486914;3.019876204375527;-1.4853515625;-0.27783203125;0.05859375;56.0;-6.0;-274.0625;
1441975793550412;-0.568115234375;0.4739990234375;0.525634765625;0.41986083984375;17.442182015380933;17.368865157621634;4.443147004803911;-1.48095703125;-0.3310546875;-0.0390625;80.375;-16.1875;-237.1875;
1441975793572413;-0.575439453125;0.4595947265625;0.5140380859375;0.439697265625;17.476802093280124;1.0791109629250288;6.125367968645499;-1.43310546875;-0.31201171875;-0.046875;61.875;-25.75;-195.625;
1441975793595415;-0.58111572265625;0.44793701171875;0.50537109375;0.4541015625;17.38391181408678;2.2176718818661896;7.247609945221848;-1.39013671875;-0.31201171875;-0.0087890625;34.625;-27.0625;-149.75;
1441975793610416;-0.58551025390625;0.43902587890625;0.4991455078125;0.46392822265625;17.271177371964274;2.793052339994615;7.815382291109639;-1.31494140625;-0.2109375;-0.01123046875;21.25;-20.4375;-116.1875;
1441975793632417;-0.58935546875;0.431884765625;0.49578857421875;0.46929931640625;17.182746974476867;3.0751860153307353;8.104310508838449;-1.21826171875;-0.076171875;-0.083984375;11.75;-15.0;-89.1875;
1441975793655418;-0.5916748046875;0.42645263671875;0.49432373046875;0.47296142578125;17.124927193815868;3.2583526643769516;8.295228294311961;-1.134765625;-0.01318359375;-0.1484375;-3.0;-15.0;-67.125;
1441975793670419;-0.593017578125;0.422119140625;0.49517822265625;0.47418212890625;17.101003853530617;3.3747756423359716;8.427090378933869;-1.09033203125;0.02392578125;-0.15576171875;-4.125;-18.0625;-50.8125;
1441975793692420;-0.59515380859375;0.41845703125;0.49835205078125;0.471435546875;17.10489872972006;3.3915005409903065;8.477638758902657;-1.02197265625;0.083984375;-0.15283203125;-11.9375;-20.3125;-35.25;
1441975793715422;-0.59771728515625;0.41497802734375;0.5025634765625;0.46685791015625;17.120968209956676;3.3655546968973287;8.49446118692881;-0.93994140625;0.10498046875;-0.17626953125;-30.9375;-16.4375;-18.125;
1441975793730423;-0.5985107421875;0.41241455078125;0.50677490234375;0.4635009765625;17.14838708106849;3.375445636090343;8.535837513633261;-0.8837890625;0.0126953125;-0.216796875;-40.5625;-17.0;-2.875;
1441975793752424;-0.59576416015625;0.41278076171875;0.5108642578125;0.46221923828125;17.203271724349335;3.4272974333815305;8.593990554216893;-0.8642578125;-0.11376953125;-0.21484375;-29.375;-22.625;9.625;
1441975793775425;-0.589599609375;0.41668701171875;0.51470947265625;0.46240234375;17.288593066377175;3.496144921560048;8.643977553781664;-0.84033203125;-0.14501953125;-0.18896484375;-4.5625;-28.125;24.8125;
1441975793790426;-0.58148193359375;0.42315673828125;0.5184326171875;0.46258544921875;17.39715293102127;3.543211533332667;8.658822240186979;-0.8349609375;-0.12890625;-0.1884765625;20.5625;-31.75;39.75;
1441975793812427;-0.572265625;0.43096923828125;0.52239990234375;0.46240234375;17.522216878590605;3.572192075193911;8.650356369844305;-0.83935546875;-0.0927734375;-0.19970703125;33.6875;-32.0;51.0625;
1441975793835429;-0.56201171875;0.4395751953125;0.52734375;0.46124267578125;17.6686789882694;3.579683035554641;8.620855285253711;-0.8486328125;-0.10595703125;-0.20263671875;38.0;-31.875;62.0;
1441975793858430;-0.550537109375;0.4493408203125;0.53271484375;0.45953369140625;17.83362968321654;3.4881734465594;8.488427359274823;-0.86376953125;-0.095703125;-0.14794921875;37.5625;-30.625;73.375;
1441975793872431;-0.5380859375;0.46014404296875;0.5380859375;0.45733642578125;17.977249861852837;15.522447342619698;2.4775526573803024;-0.86328125;-0.10302734375;-0.10693359375;41.0625;-28.5625;85.125;
1441975793895432;-0.52386474609375;0.47216796875;0.5440673828125;0.45452880859375;17.782670642756816;13.103718185303238;0.008741195148132815;-0.88671875;-0.09228515625;-0.08203125;45.0;-26.625;93.625;
1441975793918433;-0.5089111328125;0.48480224609375;0.550048828125;0.450927734375;17.56808070807857;13.04671480727689;17.90023319659504;-0.94384765625;-0.05810546875;-0.0693359375;50.125;-25.0;100.375;
1441975793932434;-0.4942626953125;0.4974365234375;0.55572509765625;0.446533203125;17.35299919144365;13.079405505820034;17.88375869595393;-0.9619140625;0.0048828125;-0.037109375;51.0;-22.5625;106.375;
1441975793955435;-0.48089599609375;0.509521484375;0.56072998046875;0.441162109375;17.147550981186672;13.14794366092199;17.909298639322294;-0.99365234375;0.12255859375;-0.03271484375;48.9375;-18.6875;105.8125;
1441975793971436;-0.46923828125;0.5198974609375;0.5653076171875;0.4356689453125;16.96325680752845;13.198496369505786;17.925760836704676;-1.03125;0.22265625;-0.0419921875;42.75;-14.9375;97.4375;
1441975793992438;-0.45953369140625;0.5281982421875;0.569580078125;0.43048095703125;16.805284816009475;13.228729760788251;17.931664170746373;-1.046875;0.2880859375;-0.02880859375;33.5;-11.1875;84.9375;
1441975794015439;-0.45159912109375;0.53472900390625;0.57330322265625;0.42596435546875;16.67447714663265;13.246720243409252;17.93193530295343;-1.0185546875;0.31884765625;-9.765625E-4;24.25;-8.125;71.4375;
1441975794062442;-0.4451904296875;0.5399169921875;0.5760498046875;0.42242431640625;16.571275506135283;13.260921334413446;17.931000986700454;-0.951171875;0.31396484375;0.0322265625;17.5625;-5.25;58.9375;
1441975794065442;-0.44024658203125;0.54425048828125;0.577392578125;0.42022705078125;16.49741849144182;13.279361492795907;17.932995558640652;-0.89208984375;0.2919921875;0.0556640625;15.5;-2.1875;46.9375;
1441975794075442;-0.436767578125;0.54766845703125;0.57745361328125;0.4193115234375;16.452162885070866;13.300513433442449;17.93710780008506;-0.88134765625;0.28369140625;0.06103515625;17.125;0.5;33.625;
1441975794097444;-0.4349365234375;0.54986572265625;0.57659912109375;0.41943359375;16.434754175825002;13.32075027691709;17.94290061993987;-0.8818359375;0.296875;0.05322265625;17.875;2.0;18.875;
1441975794112444;-0.43511962890625;0.55047607421875;0.57501220703125;0.42059326171875;16.448416081305222;13.337276894544576;17.950229908556533;-0.88671875;0.333984375;0.0380859375;14.9375;2.25;2.875;
1441975794135446;-0.43707275390625;0.54962158203125;0.5726318359375;0.4229736328125;16.492399345754983;13.349053680123946;17.95630094094551;-0.908203125;0.35791015625;0.01513671875;9.4375;2.5;-13.9375;
1441975794157447;-0.4407958984375;0.5472412109375;0.5692138671875;0.4267578125;16.56939151095242;13.356714478947485;17.960697738822574;-0.91796875;0.375;0.00390625;5.5625;2.3125;-30.875;
1441975794172448;-0.446044921875;0.54351806640625;0.5648193359375;0.43194580078125;16.676603512085666;13.359406135239091;17.96150801085934;-0.9296875;0.37890625;-0.00927734375;2.625;1.6875;-47.8125;
1441975794203450;-0.45220947265625;0.53900146484375;0.55914306640625;0.4384765625;16.808589659688558;13.362741233606656;17.96032012931515;-0.95703125;0.3662109375;-0.01123046875;1.5;1.1875;-63.375;
1441975794217450;-0.458984375;0.53387451171875;0.55224609375;0.44647216796875;16.96291265728457;13.362699180745912;17.951541782222066;-0.9638671875;0.337890625;-0.0048828125;4.1875;1.6875;-75.25;
1441975794232451;-0.466064453125;0.52838134765625;0.5440673828125;0.45556640625;17.1345232286646;13.363877755840692;17.939108011609633;-0.9677734375;0.29541015625;0.005859375;8.375;2.125;-85.5625;
1441975794255453;-0.4727783203125;0.52264404296875;0.53521728515625;0.465576171875;17.314139601678523;13.342953097396425;17.899710956285894;-0.98291015625;0.21484375;9.765625E-4;13.4375;1.5625;-90.5625;
1441975794277454;-0.478515625;0.51690673828125;0.52679443359375;0.47564697265625;17.485214724071835;13.257592458312562;17.79417528051598;-0.9951171875;0.134765625;-0.001953125;17.9375;-1.5;-90.9375;
1441975794292455;-0.48333740234375;0.5111083984375;0.519287109375;0.48516845703125;17.640712627043996;13.031541858134467;17.549736487262958;-0.970703125;0.068359375;-0.0029296875;19.4375;-5.8125;-84.75;
1441975794315456;-0.48736572265625;0.505615234375;0.51263427734375;0.493896484375;17.77427977342239;12.493318760805549;16.994717925112617;-0.93505859375;0.0166015625;0.00390625;17.625;-9.375;-76.625;
1441975794338457;-0.49029541015625;0.50079345703125;0.50677490234375;0.50189208984375;17.866163067807186;11.067340449869858;15.551252066701135;-0.9296875;-0.03369140625;0.00244140625;16.0625;-11.0;-66.8125;
1441975794353458;-0.4915771484375;0.497314453125;0.50177001953125;0.5091552734375;17.873399929194033;8.804932323176796;13.267336059498717;-0.9267578125;-0.08154296875;0.01025390625;17.125;-12.375;-55.25;
1441975794375459;-0.49114990234375;0.49530029296875;0.49774169921875;0.51531982421875;17.82919857884802;7.6923839366721385;12.130123574463319;-0.91552734375;-0.09033203125;0.01513671875;20.875;-13.3125;-42.625;
1441975794397461;-0.4891357421875;0.494873046875;0.4949951171875;0.52032470703125;17.78835315652288;7.442736842691666;11.85371402335026;-0.8916015625;-0.0810546875;0.0224609375;24.4375;-13.5625;-29.25;
1441975794412462;-0.48577880859375;0.4957275390625;0.49371337890625;0.52386474609375;17.763089731079624;7.594868840906611;11.979953323318732;-0.8505859375;-0.04345703125;0.02197265625;26.6875;-13.75;-16.1875;
1441975794435463;-0.4814453125;0.49737548828125;0.49432373046875;0.52569580078125;17.747877441895238;8.040445012621085;12.404880742722238;-0.82177734375;0.01416015625;0.02099609375;25.8125;-14.25;-4.0;
1441975794466465;-0.47698974609375;0.49945068359375;0.4964599609375;0.52581787109375;17.73438124292572;8.646412063172345;12.997900070221661;-0.80419921875;0.0849609375;0.0263671875;20.875;-14.5625;6.75;
1441975794472465;-0.4725341796875;0.50152587890625;0.4996337890625;0.52484130859375;17.71028649272645;9.292302636132987;13.636957581955947;-0.81689453125;0.12744140625;0.013671875;12.9375;-14.25;15.3125;
1441975794495466;-0.4676513671875;0.5040283203125;0.50335693359375;0.5233154296875;17.67112198556938;9.911908312284853;14.250428816642824;-0.84716796875;0.1357421875;0.0126953125;7.1875;-14.3125;21.5;
1441975794519468;-0.46258544921875;0.5069580078125;0.50726318359375;0.52117919921875;17.62000410517082;10.450723424805565;14.783618020928847;-0.83837890625;0.1640625;0.01904296875;6.5625;-14.0625;25.9375;
1441975794540469;-0.45770263671875;0.510009765625;0.511474609375;0.5184326171875;17.558867771618385;10.889843247435707;15.219908670265639;-0.83984375;0.2001953125;0.02197265625;5.6875;-12.1875;28.25;
1441975794555470;-0.45330810546875;0.512939453125;0.51568603515625;0.51513671875;17.494056298704468;11.233857587060008;15.564401162157319;-0.859375;0.22705078125;0.02978515625;3.125;-9.75;29.4375;
1441975794577471;-0.44952392578125;0.5152587890625;0.52020263671875;0.51165771484375;17.426309521468024;11.477868504040062;15.8138007914385;-0.89990234375;0.23291015625;0.0146484375;-0.0625;-8.5625;30.3125;
1441975794592472;-0.44598388671875;0.51702880859375;0.525146484375;0.50787353515625;17.35391880770026;11.657008847141785;16.00269463746677;-0.9560546875;0.20361328125;0.0078125;-5.25;-9.6875;31.625;
1441975794615473;-0.44281005859375;0.5184326171875;0.530029296875;0.50408935546875;17.28327677750058;11.788252910814476;16.14562128838959;-0.98876953125;0.17578125;0.02197265625;-9.4375;-10.1875;34.4375;
1441975794637474;-0.4395751953125;0.51995849609375;0.53485107421875;0.500244140625;17.21097503779739;11.900263986377118;16.268794302530168;-1.021484375;0.11962890625;0.03759765625;-11.0625;-9.375;37.8125;
1441975794656475;-0.43603515625;0.52197265625;0.53955078125;0.4962158203125;17.134800516654153;12.009836601549226;16.387426850880523;-1.03173828125;0.0693359375;0.056640625;-10.0;-7.4375;42.5625;
1441975794675477;-0.43206787109375;0.5242919921875;0.54486083984375;0.49139404296875;17.046831420463864;12.118724746548375;16.50729572428282;-1.04248046875;0.03662109375;0.07470703125;-7.3125;-5.3125;48.75;
1441975794697478;-0.42822265625;0.52642822265625;0.551513671875;0.48504638671875;16.944697395650024;12.223358336712687;16.632041261502245;-0.9990234375;0.025390625;0.09326171875;-8.875;-3.5625;55.875;
1441975794712479;-0.42474365234375;0.52825927734375;0.5594482421875;0.47698974609375;16.830073573075783;12.322180222387232;16.761538081533985;-0.966796875;0.03955078125;0.10595703125;-17.125;-1.5;63.875;
1441975794735480;-0.42169189453125;0.52947998046875;0.568359375;0.4676513671875;16.707493138526377;12.403115155607564;16.882701486767814;-0.9658203125;0.046875;0.1025390625;-27.125;0.625;71.9375;
1441975794758481;-0.4188232421875;0.530517578125;0.577880859375;0.457275390625;16.57738901656799;12.473382495283744;16.999110266662;-0.99072265625;0.04248046875;0.103515625;-36.375;1.625;78.125;
1441975794772482;-0.41571044921875;0.53155517578125;0.58758544921875;0.44647216796875;16.441190019498023;12.530302126225088;17.103369610704384;-1.02490234375;0.052734375;0.0908203125;-41.5;1.8125;83.4375;
1441975794795483;-0.41229248046875;0.53271484375;0.59710693359375;0.43548583984375;16.301635370763787;12.577747440602987;17.19709270057092;-1.037109375;0.07080078125;0.087890625;-43.0625;1.75;86.75;
1441975794817485;-0.4085693359375;0.5341796875;0.60595703125;0.4249267578125;16.16412636763006;12.617790918994007;17.278636108733927;-1.025390625;0.0986328125;0.0947265625;-41.3125;1.8125;88.0;
1441975794832486;-0.40435791015625;0.535888671875;0.61407470703125;0.4149169921875;16.028467893268374;12.650546462999227;17.347232505687053;-1.01123046875;0.11865234375;0.0986328125;-36.3125;2.25;86.4375;
1441975794855487;-0.39990234375;0.53778076171875;0.6217041015625;0.40533447265625;15.894852570931565;12.67776347805091;17.406540148714445;-0.97119140625;0.14453125;0.11767578125;-30.375;2.3125;83.875;
1441975794877488;-0.3958740234375;0.539306640625;0.62890625;0.39599609375;15.769111642511579;12.69885115342321;17.46022419681538;-0.91162109375;0.18212890625;0.1328125;-26.625;2.625;79.875;
1441975794894489;-0.3927001953125;0.5400390625;0.635986328125;0.38677978515625;15.65370740872167;12.711353774407971;17.509553772205685;-0.87939453125;0.220703125;0.138671875;-26.8125;4.125;74.125;
1441975794915490;-0.39080810546875;0.53961181640625;0.64276123046875;0.37799072265625;15.555958635203302;12.713886474084239;17.554020573280695;-0.85986328125;0.2529296875;0.154296875;-30.75;6.125;67.25;
1441975794945492;-0.39044189453125;0.5382080078125;0.6488037109375;0.36993408203125;15.481311925128093;12.711257375411313;17.596407203362457;-0.84716796875;0.26513671875;0.162109375;-35.8125;8.0625;58.8125;
1441975794954493;-0.39129638671875;0.53594970703125;0.65399169921875;0.363037109375;15.430015113082398;12.702533501283343;17.63285731683627;-0.86474609375;0.26220703125;0.150390625;-39.0625;9.4375;48.875;
1441975794975494;-0.39312744140625;0.53314208984375;0.6583251953125;0.357421875;15.399890761446299;12.689628038761967;17.6632202066074;-0.892578125;0.25830078125;0.14697265625;-39.4375;9.875;38.6875;
1441975795005495;-0.39581298828125;0.52996826171875;0.66156005859375;0.35308837890625;15.390663115623342;12.675710323570366;17.689042845583888;-0.90576171875;0.24951171875;0.14208984375;-38.0;9.875;29.0;
1441975795014496;-0.3992919921875;0.5264892578125;0.66387939453125;0.35009765625;15.401023693460708;12.659785809721166;17.70922094287681;-0.9052734375;0.24755859375;0.13427734375;-35.375;10.125;18.8125;
1441975795035497;-0.40325927734375;0.5228271484375;0.66522216796875;0.3485107421875;15.428770484351084;12.641885587995477;17.72218931477574;-0.892578125;0.2353515625;0.12939453125;-32.375;10.125;9.1875;
1441975795065499;-0.4078369140625;0.5191650390625;0.6651611328125;0.34881591796875;15.479138984544743;12.623754511764112;17.72670896497774;-0.900390625;0.22705078125;0.1279296875;-27.875;9.625;-0.125;
1441975795074499;-0.41259765625;0.51568603515625;0.66387939453125;0.35076904296875;15.545768900873714;12.605378099880799;17.722323483879272;-0.93115234375;0.21435546875;0.12255859375;-20.75;8.6875;-10.3125;
1441975795095501;-0.417236328125;0.51220703125;0.66192626953125;0.35406494140625;15.622188134379076;12.581466965428582;17.70597480545648;-0.95263671875;0.20703125;0.10986328125;-13.375;6.8125;-18.9375;
1441975795117502;-0.421875;0.5086669921875;0.6593017578125;0.3585205078125;15.708441816090223;12.552059765197104;17.678828408294077;-0.94580078125;0.20263671875;0.11474609375;-7.6875;4.625;-26.0625;
1441975795134503;-0.426513671875;0.50518798828125;0.6558837890625;0.36407470703125;15.804326105839811;12.518414980334105;17.64165467081796;-0.93701171875;0.1943359375;0.12841796875;-2.9375;3.4375;-32.625;
1441975795155504;-0.4310302734375;0.501708984375;0.65191650390625;0.3707275390625;15.9074998212418;12.476127156710266;17.590588450846226;-0.93896484375;0.18603515625;0.1259765625;2.25;2.3125;-38.9375;
1441975795185506;-0.43536376953125;0.49847412109375;0.6473388671875;0.3779296875;16.014066043091557;12.430723412319743;17.531847013201617;-0.94189453125;0.17724609375;0.1416015625;6.9375;1.25;-44.3125;
1441975795194506;-0.43975830078125;0.4952392578125;0.6422119140625;0.38580322265625;16.126826609066484;12.377456011536045;17.461882059072398;-0.93994140625;0.19384765625;0.13525390625;11.1875;0.5;-49.125;
1441975795215507;-0.444091796875;0.4918212890625;0.63690185546875;0.39398193359375;16.24113234044828;12.311869098169012;17.378632611311303;-0.96337890625;0.19677734375;0.130859375;13.6875;-0.125;-53.8125;
1441975795237509;-0.4483642578125;0.4881591796875;0.63140869140625;0.4024658203125;16.35669180512292;12.230181661860025;17.27851116197849;-0.97900390625;0.20166015625;0.134765625;14.25;-0.8125;-57.4375;
1441975795261510;-0.45257568359375;0.48443603515625;0.6256103515625;0.41119384765625;16.472959473765847;12.13288980879601;17.16130911620122;-0.97802734375;0.1875;0.13623046875;15.0;-1.75;-59.875;
1441975795275511;-0.45648193359375;0.48089599609375;0.61956787109375;0.4200439453125;16.585916083030074;12.020014217954866;17.02618484119763;-0.96875;0.17138671875;0.142578125;16.375;-1.75;-62.0625;
1441975795297512;-0.46014404296875;0.4775390625;0.6134033203125;0.4288330078125;16.694094700907318;11.890199966198573;16.872834400750754;-0.962890625;0.16552734375;0.14013671875;18.625;-1.6875;-62.875;
1441975795314513;-0.46380615234375;0.47412109375;0.607421875;0.4371337890625;16.7960891201037;11.741445726572996;16.70278485137292;-0.9736328125;0.16259765625;0.1416015625;19.5625;-1.6875;-62.9375;
1441975795335514;-0.46728515625;0.470458984375;0.6019287109375;0.44482421875;16.887590110330034;11.567208337998585;16.510744043605147;-0.98681640625;0.1494140625;0.12841796875;17.5625;-2.125;-61.375;
1441975795357516;-0.470703125;0.46673583984375;0.5970458984375;0.45172119140625;16.967622617759172;11.373937873049488;16.303789884930957;-0.9833984375;0.1328125;0.138671875;14.0625;-2.1875;-58.5625;
1441975795374517;-0.47406005859375;0.46319580078125;0.5927734375;0.45751953125;17.03584161260906;11.176643559258979;16.097107199690665;-0.96728515625;0.125;0.13525390625;10.25;-1.875;-55.0;
1441975795395518;-0.47735595703125;0.45977783203125;0.5889892578125;0.46234130859375;17.094240466818857;10.976802473088696;15.891650239247365;-0.96435546875;0.1357421875;0.1357421875;6.3125;-0.875;-51.25;
1441975795417519;-0.4805908203125;0.45648193359375;0.5859375;0.46612548828125;17.141995312546445;10.781565933823652;15.695399714558178;-0.9755859375;0.14599609375;0.12890625;2.5;0.3125;-47.375;
1441975795434520;-0.48382568359375;0.45306396484375;0.58367919921875;0.468994140625;17.179967205777707;10.587725681534613;15.505842038685966;-0.98388671875;0.15087890625;0.12646484375;-1.875;0.8125;-43.125;
1441975795455521;-0.48675537109375;0.449951171875;0.58203125;0.470947265625;17.208817932731524;10.41607227488864;15.341155447931172;-0.986328125;0.13720703125;0.12451171875;-6.6875;1.0;-37.75;
1441975795477522;-0.48919677734375;0.44732666015625;0.58087158203125;0.47235107421875;17.229392370511597;10.270480634285494;15.202716468402336;-0.97265625;0.123046875;0.12353515625;-9.1875;1.0;-31.375;
1441975795501524;-0.49102783203125;0.44537353515625;0.58013916015625;0.47314453125;17.243102561520487;10.165176507571923;15.1038911491755;-0.96630859375;0.1044921875;0.12158203125;-9.1875;1.0625;-24.9375;
1441975795515525;-0.49212646484375;0.444091796875;0.5799560546875;0.47344970703125;17.24905418750041;10.103792003333988;15.04793647692162;-0.962890625;0.095703125;0.12158203125;-7.625;0.9375;-18.125;
1441975795537526;-0.49249267578125;0.44354248046875;0.580322265625;0.47308349609375;17.248563139724403;10.096044139339192;15.044946641495601;-0.9677734375;0.0927734375;0.123046875;-6.3125;0.375;-10.9375;
1441975795554527;-0.4923095703125;0.4434814453125;0.58154296875;0.471923828125;17.240539214178888;10.138334327706936;15.09374204400387;-0.96044921875;0.09619140625;0.1220703125;-5.25;-0.1875;-3.75;
1441975795575528;-0.49163818359375;0.44384765625;0.58343505859375;0.469970703125;17.226055285698493;10.223986280378568;15.18751373862525;-0.95703125;0.1083984375;0.125;-6.5;-0.6875;3.4375;
1441975795599529;-0.490478515625;0.44451904296875;0.58587646484375;0.46746826171875;17.204291264300856;10.33740594564514;15.309970940327107;-0.95654296875;0.11083984375;0.1240234375;-7.75;-1.4375;10.3125;
1441975795614530;-0.4888916015625;0.445556640625;0.58880615234375;0.4644775390625;17.175294020701934;10.47276958777983;15.454913545685683;-0.96533203125;0.099609375;0.12158203125;-8.4375;-2.5;16.6875;
1441975795638532;-0.486572265625;0.44708251953125;0.5921630859375;0.461181640625;17.13599362334229;10.624546251909042;15.614904756930196;-0.9697265625;0.09619140625;0.123046875;-8.1875;-3.3125;23.0;
1441975795657533;-0.48388671875;0.4490966796875;0.595703125;0.45745849609375;17.090468185354794;10.787210045375161;15.785118644022191;-0.96826171875;0.1005859375;0.13427734375;-6.9375;-3.8125;28.75;
1441975795674534;-0.48077392578125;0.45135498046875;0.59967041015625;0.45330810546875;17.03531057717195;10.949926931506875;15.95596115621978;-0.96875;0.10400390625;0.12890625;-5.6875;-4.125;33.6875;
1441975795695535;-0.4774169921875;0.45367431640625;0.60400390625;0.44866943359375;16.972040570805806;11.105297186054301;16.12111593518864;-0.962890625;0.10791015625;0.1328125;-5.8125;-4.625;38.3125;
1441975795717536;-0.47393798828125;0.45623779296875;0.60858154296875;0.443603515625;16.902493481486935;11.254780509080511;16.281284736665505;-0.96875;0.1103515625;0.138671875;-7.0625;-4.9375;42.8125;
1441975795734537;-0.470458984375;0.45880126953125;0.61328125;0.43817138671875;16.82864777064322;11.391626948974704;16.430293975915205;-0.9912109375;0.1220703125;0.13232421875;-7.6875;-4.9375;46.25;
1441975795755538;-0.467041015625;0.46099853515625;0.61822509765625;0.4324951171875;16.750862855234868;11.50706723321306;16.56062326254579;-0.99951171875;0.13037109375;0.12255859375;-9.4375;-5.375;48.5625;
1441975795777540;-0.4635009765625;0.46319580078125;0.62322998046875;0.42669677734375;16.669304892561623;11.609224515663005;16.67791894986087;-0.98876953125;0.11767578125;0.12939453125;-11.6875;-5.6875;50.6875;
1441975795794541;-0.45977783203125;0.4656982421875;0.62799072265625;0.42108154296875;16.586249381723476;11.702147125064691;16.78335757623607;-0.97119140625;0.11474609375;0.1416015625;-11.5;-5.1875;52.5625;
1441975795816542;-0.4559326171875;0.46844482421875;0.63250732421875;0.41546630859375;16.501962211226953;11.789038265987847;16.881067852659484;-0.96484375;0.119140625;0.14501953125;-8.5625;-4.75;53.5625;
1441975795837543;-0.4522705078125;0.47100830078125;0.636962890625;0.40972900390625;16.418222106211715;11.8656928002385;16.969845918617793;-0.958984375;0.13916015625;0.138671875;-7.3125;-4.625;53.4375;
1441975795854544;-0.448974609375;0.47320556640625;0.64129638671875;0.40399169921875;16.337956232087578;11.93060637140376;17.04870174480995;-0.95458984375;0.16259765625;0.1279296875;-8.375;-4.5625;52.4375;
1441975795876545;-0.446044921875;0.47491455078125;0.6453857421875;0.39862060546875;16.263808141901755;11.98078580408521;17.113554815087905;-0.962890625;0.16845703125;0.1259765625;-10.4375;-4.375;50.5625;
1441975795899547;-0.44329833984375;0.47650146484375;0.64910888671875;0.39373779296875;16.195049903994555;12.022425589333189;17.16825411740705;-0.95751953125;0.1708984375;0.1318359375;-11.4375;-4.0625;47.4375;
1441975795914547;-0.44085693359375;0.47802734375;0.6522216796875;0.38946533203125;16.134801647063785;12.058503092430875;17.214869531107798;-0.94873046875;0.1845703125;0.13671875;-9.875;-3.875;43.625;
1441975795936549;-0.438720703125;0.47930908203125;0.65478515625;0.38592529296875;16.08372190486613;12.08634511961628;17.25107131688854;-0.9345703125;0.19921875;0.13330078125;-7.75;-3.25;38.8125;
1441975795957550;-0.4371337890625;0.4803466796875;0.65673828125;0.38323974609375;16.04489885540916;12.107240347556566;17.278213662801992;-0.93017578125;0.19677734375;0.13525390625;-5.9375;-2.9375;33.625;
1441975795974551;-0.435791015625;0.48126220703125;0.6580810546875;0.3812255859375;16.014846309250125;12.124192651989777;17.298712705528608;-0.93505859375;0.19677734375;0.1318359375;-4.125;-2.8125;27.875;
1441975795996552;-0.43499755859375;0.48199462890625;0.6588134765625;0.3800048828125;15.996831766174912;12.136933107698342;17.312875179579986;-0.921875;0.20458984375;0.134765625;-1.5;-2.125;22.3125;
1441975796017553;-0.434814453125;0.48236083984375;0.65899658203125;0.37945556640625;15.99097623928591;12.14454916107349;17.321082957357596;-0.91845703125;0.2138671875;0.13623046875;-0.0625;-1.0;15.8125;
1441975796034554;-0.435302734375;0.4822998046875;0.65863037109375;0.37957763671875;15.997970197782927;12.146707357622397;17.323354724856145;-0.9189453125;0.22265625;0.138671875;0.375;0.1875;8.9375;
1441975796056556;-0.4365234375;0.481689453125;0.65777587890625;0.38031005859375;16.0180022441614;12.142286316763332;17.319471465562167;-0.92431640625;0.2255859375;0.13427734375;0.375;1.1875;2.125;
1441975796077557;-0.4383544921875;0.480712890625;0.656494140625;0.3817138671875;16.049463762035497;12.131904923866353;17.309107706587685;-0.92578125;0.21875;0.1376953125;-0.375;2.3125;-4.4375;
1441975796094558;-0.4407958984375;0.4794921875;0.65460205078125;0.3836669921875;16.092646586560285;12.118948012077121;17.295183499788646;-0.9267578125;0.21337890625;0.14208984375;0.0;3.625;-10.4375;
1441975796116559;-0.4437255859375;0.47796630859375;0.65234375;0.38604736328125;16.144627078745653;12.10134193271604;17.276528019508067;-0.93505859375;0.21630859375;0.13330078125;0.6875;4.625;-16.4375;
1441975796145561;-0.4471435546875;0.47601318359375;0.6497802734375;0.38885498046875;16.205250625588267;12.076374856565922;17.250978188717877;-0.935546875;0.21435546875;0.1298828125;0.375;5.4375;-21.9375;
1441975796154561;-0.45086669921875;0.4737548828125;0.64691162109375;0.39208984375;16.272589768162703;12.043925526047213;17.21755430757839;-0.9384765625;0.21533203125;0.126953125;-0.5;6.0625;-26.8125;
1441975796176562;-0.454833984375;0.4713134765625;0.64361572265625;0.39581298828125;16.346736390946447;12.004305388412266;17.175516167952143;-0.94287109375;0.205078125;0.13134765625;-0.5;6.6875;-31.25;
1441975796197564;-0.458984375;0.46875;0.64007568359375;0.39984130859375;16.425019231098975;11.957611179879772;17.125666124417304;-0.95263671875;0.19921875;0.1318359375;0.75;6.9375;-35.0625;
1441975796214565;-0.46307373046875;0.466064453125;0.63629150390625;0.4041748046875;16.505217861901873;11.901302468473538;17.064847257261757;-0.95068359375;0.19140625;0.1259765625;1.625;7.125;-38.3125;
1441975796236566;-0.46722412109375;0.46343994140625;0.63226318359375;0.40869140625;16.587379260501017;11.838714920653361;16.99651217812585;-0.9443359375;0.1826171875;0.13232421875;2.5625;7.0625;-40.5;
1441975796257567;-0.47137451171875;0.4608154296875;0.62823486328125;0.4132080078125;16.668718999153715;11.768127228865252;16.920187360183714;-0.96337890625;0.18017578125;0.126953125;3.6875;7.125;-42.3125;
1441975796281568;-0.4754638671875;0.4578857421875;0.62432861328125;0.417724609375;16.74816126220999;11.681167851006974;16.82862914504512;-0.9736328125;0.18310546875;0.11962890625;3.375;7.0;-43.75;
1441975796297569;-0.47943115234375;0.4549560546875;0.62042236328125;0.42218017578125;16.825048732562625;11.582971282563925;16.725725510007962;-0.96923828125;0.17041015625;0.13134765625;2.3125;6.5625;-44.0;
1441975796317571;-0.48297119140625;0.4522705078125;0.6165771484375;0.42657470703125;16.895832073633514;11.476054318144142;16.6125954675493;-0.97412109375;0.146484375;0.1318359375;2.5625;6.4375;-42.6875;
1441975796340572;-0.4862060546875;0.4498291015625;0.6129150390625;0.43072509765625;16.960230920148398;11.363684931755422;16.493709829378993;-0.96923828125;0.130859375;0.134765625;4.1875;6.0;-40.9375;
1441975796356573;-0.4891357421875;0.4476318359375;0.609619140625;0.43438720703125;17.016632209659974;11.251441700464529;16.375886650443864;-0.96875;0.1298828125;0.12548828125;4.5625;5.3125;-38.5625;
1441975796377574;-0.49176025390625;0.445556640625;0.60675048828125;0.43756103515625;17.064943554633164;11.13870651132942;16.259047509906;-0.9755859375;0.12841796875;0.12353515625;3.5625;4.625;-35.375;
1441975796400575;-0.4940185546875;0.4437255859375;0.60430908203125;0.44024658203125;17.104957555713682;11.031752775818145;16.148921096678194;-0.9814453125;0.126953125;0.12353515625;2.3125;4.25;-31.8125;
1441975796416576;-0.49591064453125;0.442138671875;0.602294921875;0.4425048828125;17.13715725997192;10.932772307408197;16.047504610594594;-0.982421875;0.123046875;0.1220703125;1.625;3.75;-28.25;
1441975796437577;-0.49737548828125;0.44097900390625;0.60064697265625;0.44415283203125;17.162020591799482;10.85562410444225;15.968344982499831;-0.9814453125;0.12109375;0.12451171875;1.0;3.1875;-24.1875;
1441975796460579;-0.49847412109375;0.440185546875;0.5994873046875;0.44537353515625;17.179719264482188;10.797387890998294;15.908602086623366;-0.97607421875;0.1279296875;0.1181640625;0.9375;2.6875;-19.9375;
1441975796476580;-0.499267578125;0.43963623046875;0.59881591796875;0.4459228515625;17.191086779165264;10.763561649273697;15.875087106764424;-0.96630859375;0.13525390625;0.1181640625;0.3125;2.3125;-15.75;
1441975796497581;-0.499755859375;0.43927001953125;0.5986328125;0.4459228515625;17.196313876709887;10.75080508960288;15.864266444607031;-0.96044921875;0.1396484375;0.11328125;-0.875;2.0;-11.4375;
1441975796520582;-0.50006103515625;0.43914794921875;0.598876953125;0.44537353515625;17.19703448956983;10.761258948011655;15.878243486704145;-0.95751953125;0.1376953125;0.11669921875;-2.6875;1.625;-7.25;
1441975796536583;-0.5001220703125;0.43914794921875;0.599609375;0.4443359375;17.192080418354685;10.789600233438044;15.911888482335414;-0.9619140625;0.14306640625;0.11279296875;-4.0625;1.375;-3.125;
1441975796557584;-0.5;0.4393310546875;0.60064697265625;0.44293212890625;17.183250600338248;10.833302373012904;15.961784977059468;-0.96435546875;0.1435546875;0.1103515625;-5.3125;0.875;0.8125;
1441975796574585;-0.49951171875;0.43963623046875;0.60205078125;0.44122314453125;17.168285120274582;10.888038384231972;16.02329665438135;-0.958984375;0.1396484375;0.11083984375;-6.5625;0.3125;4.5;
1441975796596586;-0.498779296875;0.4403076171875;0.6036376953125;0.439208984375;17.149493379126596;10.959170649638036;16.100857656314748;-0.95849609375;0.13232421875;0.11767578125;-6.3125;-0.0625;8.0625;
1441975796617588;-0.49786376953125;0.44110107421875;0.60552978515625;0.43682861328125;17.12603195049902;11.039021301857272;16.188223671421024;-0.9609375;0.13916015625;0.1083984375;-5.9375;-0.375;11.3125;
1441975796634589;-0.496826171875;0.44183349609375;0.60784912109375;0.43402099609375;17.097198313372072;11.121735872541306;16.280781476812823;-0.966796875;0.13720703125;0.11328125;-7.125;-0.75;14.75;
1441975796656590;-0.49566650390625;0.44256591796875;0.61041259765625;0.43096923828125;17.06440224592902;11.203557207401444;16.373536414755986;-0.96826171875;0.13623046875;0.11279296875;-8.875;-1.3125;18.0625;
1441975796677591;-0.49432373046875;0.44342041015625;0.6131591796875;0.42779541015625;17.027616323699995;11.284067435762921;16.464985457517546;-0.9755859375;0.12744140625;0.11865234375;-9.875;-1.6875;20.875;
1441975796700592;-0.49273681640625;0.44451904296875;0.615966796875;0.4244384765625;16.986971918329324;11.367152068905384;16.55835927399316;-0.97900390625;0.1162109375;0.1171875;-9.5625;-2.25;23.875;
1441975796716593;-0.490966796875;0.44573974609375;0.61895751953125;0.42083740234375;16.94193166357037;11.449559036287681;16.65145321758762;-0.97900390625;0.115234375;0.115234375;-9.0625;-2.4375;26.625;
1441975796737595;-0.489013671875;0.44708251953125;0.6221923828125;0.4168701171875;16.891682978572376;11.532315366738215;16.745841156131313;-0.97412109375;0.12255859375;0.123046875;-9.0625;-2.5625;29.125;
1441975796760596;-0.48712158203125;0.4482421875;0.6256103515625;0.41278076171875;16.839652050649267;11.604748661781677;16.83150728697126;-0.96826171875;0.13232421875;0.1162109375;-9.875;-3.0;31.3125;
1441975796776597;-0.48529052734375;0.44927978515625;0.629150390625;0.40838623046875;16.785855632101367;11.672497178846806;16.91433403141104;-0.98193359375;0.1357421875;0.119140625;-11.5625;-3.4375;32.5625;
1441975796798598;-0.4835205078125;0.45025634765625;0.63250732421875;0.40411376953125;16.733568211646777;11.732196579439114;16.98862649655089;-0.98095703125;0.1435546875;0.11279296875;-12.9375;-3.4375;33.375;
1441975796820599;-0.48162841796875;0.45123291015625;0.63580322265625;0.400146484375;16.680999536422906;11.781842999262073;17.0514387424189;-0.9873046875;0.13671875;0.11181640625;-13.0;-3.6875;33.5;
1441975796836600;-0.47955322265625;0.45257568359375;0.63873291015625;0.396484375;16.629172350282968;11.83094643933282;17.110183634522432;-0.978515625;0.12939453125;0.119140625;-11.125;-4.125;33.5625;
1441975796859602;-0.477294921875;0.4541015625;0.6414794921875;0.39300537109375;16.57683500057315;11.877162393582509;17.163956417977428;-0.96533203125;0.13427734375;0.11767578125;-7.75;-4.125;33.625;
1441975796880603;-0.47515869140625;0.4556884765625;0.64398193359375;0.3896484375;16.527035361837697;11.921487734960182;17.214949640245187;-0.953125;0.1396484375;0.11328125;-5.4375;-4.3125;33.1875;
1441975796896604;-0.47314453125;0.45703125;0.6463623046875;0.3865966796875;16.480383323380234;11.956423934566333;17.256361849776145;-0.95458984375;0.15234375;0.103515625;-4.875;-4.375;31.9375;
1441975796919605;-0.47119140625;0.45819091796875;0.6485595703125;0.38385009765625;16.436782756675434;11.984147024581397;17.289868740761715;-0.95458984375;0.15283203125;0.107421875;-4.9375;-4.75;30.4375;
1441975796940606;-0.46929931640625;0.45947265625;0.650390625;0.3814697265625;16.39699446198825;12.010587175812312;17.319751521136094;-0.9521484375;0.158203125;0.1123046875;-4.1875;-4.875;28.25;
1441975796957607;-0.46759033203125;0.46075439453125;0.6517333984375;0.3797607421875;16.364343062652473;12.032261597031468;17.341924095229054;-0.9462890625;0.173828125;0.10888671875;-2.1875;-4.625;25.3125;
1441975796978608;-0.4661865234375;0.4620361328125;0.652587890625;0.3785400390625;16.339180717486915;12.052412908937203;17.36052504513054;-0.9462890625;0.17919921875;0.11328125;0.5;-4.1875;21.375;
1441975797000610;-0.4649658203125;0.4630126953125;0.65313720703125;0.3778076171875;16.32015645771712;12.06523393513916;17.37089497247322;-0.94677734375;0.189453125;0.107421875;2.1875;-3.625;17.375;
1441975797016610;-0.4642333984375;0.4638671875;0.65313720703125;0.377685546875;16.31140077367238;12.075440170441139;17.376900465948463;-0.9462890625;0.19970703125;0.12109375;3.4375;-3.0;13.0;
1441975797039612;-0.46380615234375;0.464599609375;0.6527099609375;0.3780517578125;16.31015540454197;12.082883848341687;17.37864390118805;-0.9375;0.19873046875;0.11669921875;4.6875;-2.125;8.25;
1441975797059613;-0.46392822265625;0.46490478515625;0.65185546875;0.37896728515625;16.319489149614412;12.083729132679107;17.37369159241181;-0.939453125;0.20751953125;0.11669921875;5.5625;-1.0625;3.4375;
1441975797076614;-0.46453857421875;0.46490478515625;0.6507568359375;0.38018798828125;16.336425284861928;12.080732309331118;17.365502247024875;-0.9443359375;0.203125;0.1162109375;5.5625;-0.25;-1.3125;
1441975797099615;-0.4654541015625;0.46466064453125;0.64923095703125;0.38189697265625;16.361184180844926;12.072976998237335;17.351458876947092;-0.939453125;0.1953125;0.1171875;5.1875;0.5625;-5.375;
1441975797115616;-0.46673583984375;0.46441650390625;0.64727783203125;0.384033203125;16.39337092600452;12.064683373438326;17.335338528710167;-0.9287109375;0.1923828125;0.1181640625;6.0;1.75;-9.5;
1441975797136617;-0.46820068359375;0.4639892578125;0.64508056640625;0.3863525390625;16.42979647389205;12.05354783862256;17.31623158962216;-0.93896484375;0.193359375;0.115234375;7.125;2.5;-13.3125;
1441975797159619;-0.4700927734375;0.46331787109375;0.6427001953125;0.388916015625;16.472445945564182;12.038252040630427;17.29357771431664;-0.93701171875;0.201171875;0.11376953125;7.25;3.3125;-16.6875;
1441975797179620;-0.47222900390625;0.46240234375;0.64007568359375;0.39166259765625;16.519934797453487;12.018573888063584;17.266747271288985;-0.94189453125;0.203125;0.111328125;6.5;4.125;-20.1875;
1441975797196621;-0.47454833984375;0.4613037109375;0.6373291015625;0.3946533203125;16.570985364551895;11.992837885675181;17.233820941656056;-0.94482421875;0.2060546875;0.11376953125;6.1875;4.75;-23.1875;
1441975797219622;-0.47705078125;0.4600830078125;0.63433837890625;0.39788818359375;16.6261823962219;11.962116945339755;17.195371497914753;-0.9482421875;0.20263671875;0.1171875;6.125;5.25;-25.9375;
1441975797240623;-0.4798583984375;0.45867919921875;0.63116455078125;0.40118408203125;16.68555712271604;11.92720247917044;17.15343622972327;-0.9541015625;0.19970703125;0.11376953125;6.3125;5.75;-28.5;
1441975797256624;-0.4825439453125;0.4571533203125;0.62799072265625;0.40460205078125;16.74433468204293;11.883804588758188;17.102721197728727;-0.9599609375;0.18994140625;0.10888671875;6.125;6.25;-30.5;
1441975797278625;-0.48529052734375;0.45562744140625;0.62469482421875;0.4080810546875;16.80429319320881;11.836014800227577;17.047273392088574;-0.95068359375;0.1865234375;0.1181640625;5.9375;6.4375;-31.5625;
1441975797300627;-0.4881591796875;0.45404052734375;0.62152099609375;0.411376953125;16.863562615381237;11.78449367193046;16.989497746355315;-0.9609375;0.18359375;0.11474609375;6.125;6.5625;-32.375;
1441975797316628;-0.49102783203125;0.45220947265625;0.61846923828125;0.41461181640625;16.921775236196765;11.721832885731105;16.921874010913427;-0.970703125;0.18310546875;0.11328125;5.125;6.8125;-32.75;
1441975797338629;-0.49383544921875;0.45037841796875;0.615478515625;0.41766357421875;16.977951783185507;11.654816229579385;16.850486002472373;-0.9716796875;0.17138671875;0.11572265625;3.4375;6.5625;-32.8125;
1441975797360630;-0.49627685546875;0.44879150390625;0.612548828125;0.42071533203125;17.0295910537355;11.583889019265047;16.773644419929912;-0.96484375;0.15478515625;0.11279296875;3.0625;6.4375;-31.4375;
1441975797375631;-0.4984130859375;0.44769287109375;0.60968017578125;0.423583984375;17.07648906666678;11.520152692503515;16.702409608497568;-0.96875;0.14453125;0.11572265625;4.875;6.3125;-29.625;
1441975797399632;-0.50018310546875;0.44677734375;0.60711669921875;0.42608642578125;17.116558186483307;11.459953254258016;16.63514795322174;-0.9677734375;0.140625;0.109375;6.375;6.0;-27.125;
1441975797422634;-0.50189208984375;0.44586181640625;0.60504150390625;0.42803955078125;17.151027814077818;11.404660474229177;16.575623668593934;-0.970703125;0.14306640625;0.107421875;6.0;5.5;-24.1875;
1441975797435634;-0.50335693359375;0.4449462890625;0.6033935546875;0.42950439453125;17.17907656376208;11.35437730050393;16.523128273944035;-0.9736328125;0.1396484375;0.10302734375;3.4375;5.125;-21.125;
1441975797458636;-0.5045166015625;0.44439697265625;0.60211181640625;0.4305419921875;17.20059599611504;11.320552761088813;16.487440332044056;-0.97509765625;0.13818359375;0.1103515625;1.4375;4.75;-17.75;
1441975797480637;-0.50518798828125;0.44415283203125;0.6011962890625;0.43121337890625;17.21435902024721;11.301331649405762;16.466243163336202;-0.97265625;0.1396484375;0.1044921875;1.3125;4.375;-14.25;
1441975797495638;-0.5057373046875;0.444091796875;0.60064697265625;0.4315185546875;17.223638240717907;11.295251379527993;16.459385408276543;-0.97119140625;0.14990234375;0.111328125;1.3125;4.0;-10.875;
1441975797518639;-0.50592041015625;0.4442138671875;0.6004638671875;0.431396484375;17.226310452785917;11.30396271426568;16.468096743014232;-0.9755859375;0.15185546875;0.10498046875;0.625;3.5;-7.6875;
1441975797540640;-0.505859375;0.44439697265625;0.6007080078125;0.430908203125;17.22309488323327;11.32191469972056;16.487481963270362;-0.96875;0.1513671875;0.10595703125;-0.5625;2.75;-4.375;
1441975797555641;-0.50567626953125;0.44482421875;0.60113525390625;0.43017578125;17.216843800049155;11.35262975118649;16.51978406197308;-0.96728515625;0.15673828125;0.111328125;-1.375;2.25;-1.25;
1441975797578643;-0.50518798828125;0.44525146484375;0.60186767578125;0.42919921875;17.205226056218763;11.386596554406875;16.556115909726966;-0.966796875;0.15234375;0.10302734375;-1.625;1.6875;1.4375;
1441975797600644;-0.50457763671875;0.44586181640625;0.6029052734375;0.4278564453125;17.189321103511627;11.432375987310714;16.60530543874648;-0.962890625;0.1513671875;0.10888671875;-2.1875;1.125;4.125;
1441975797615645;-0.50384521484375;0.446533203125;0.60418701171875;0.42620849609375;17.169686146737455;11.48381746644373;16.661243464250383;-0.96435546875;0.15478515625;0.10546875;-3.0625;0.8125;6.75;
1441975797638646;-0.5030517578125;0.44708251953125;0.605712890625;0.42431640625;17.147104058234827;11.533401344784714;16.71695442971501;-0.96435546875;0.15380859375;0.10400390625;-4.125;0.4375;9.0625;
1441975797660647;-0.50225830078125;0.44757080078125;0.60760498046875;0.422119140625;17.120949451583726;11.583230788811113;16.775002413482024;-0.96533203125;0.15087890625;0.1103515625;-5.875;0.1875;11.25;
1441975797678648;-0.50152587890625;0.44805908203125;0.60955810546875;0.41961669921875;17.093823333935998;11.636859204381988;16.83813440717695;-0.96142578125;0.1484375;0.11474609375;-7.6875;0.3125;13.3125;
1441975797698649;-0.500732421875;0.4486083984375;0.6116943359375;0.41693115234375;17.063924205248256;11.690905941726381;16.902384830174842;-0.96337890625;0.146484375;0.107421875;-8.6875;0.1875;15.25;
1441975797720651;-0.499755859375;0.44915771484375;0.61395263671875;0.41400146484375;17.030588110153914;11.744407421431415;16.966726192476596;-0.96484375;0.14501953125;0.10009765625;-9.3125;-0.1875;16.9375;
1441975797735652;-0.4989013671875;0.4495849609375;0.616455078125;0.41094970703125;16.99603356549249;11.792251581675126;17.027113260050214;-0.9638671875;0.15380859375;0.1044921875;-10.125;-0.4375;18.1875;
1441975797758653;-0.49798583984375;0.4498291015625;0.619140625;0.40777587890625;16.95939048544587;11.832754244817831;17.081451284517257;-0.9677734375;0.1591796875;0.10546875;-11.75;-0.625;19.0;
1441975797780654;-0.4970703125;0.45001220703125;0.621826171875;0.40460205078125;16.922631149638622;11.868686868622373;17.131424122220487;-0.9619140625;0.15966796875;0.1123046875;-13.0;-1.0;19.4375;
1441975797795655;-0.49615478515625;0.45037841796875;0.62432861328125;0.40142822265625;16.886481127302314;11.907234156889647;17.182975330228107;-0.955078125;0.15771484375;0.1162109375;-13.0;-1.25;19.875;
1441975797818656;-0.49542236328125;0.45068359375;0.6268310546875;0.3980712890625;16.85108490472751;11.945990107303723;17.235985921083365;-0.95703125;0.17822265625;0.10595703125;-12.25;-0.9375;19.5;
1441975797840658;-0.49505615234375;0.4508056640625;0.62921142578125;0.3946533203125;16.819471680304932;11.982791639341938;17.288443262253164;-0.95556640625;0.19970703125;0.1015625;-13.3125;-0.25;18.125;
1441975797857659;-0.4947509765625;0.450927734375;0.6314697265625;0.3912353515625;16.788909480317805;12.018737878776943;17.339904657909234;-0.9365234375;0.2041015625;0.0947265625;-15.0;0.5625;16.6875;
1441975797885660;-0.4945068359375;0.4515380859375;0.63311767578125;0.38824462890625;16.762900781137006;12.060955393987134;17.393316692102122;-0.9091796875;0.19140625;0.10693359375;-14.5;2.3125;16.6875;
1441975797900661;-0.494384765625;0.45269775390625;0.63421630859375;0.38519287109375;16.739275121292078;12.11800414832154;17.45892861411233;-0.9013671875;0.2119140625;0.1044921875;-10.1875;4.4375;14.3125;
1441975797917662;-0.49481201171875;0.4534912109375;0.6353759765625;0.3817138671875;16.71839684594185;12.17574359983446;17.529316100874148;-0.9111328125;0.2373046875;0.091796875;-7.5625;6.375;13.25;
1441975797938663;-0.49603271484375;0.45343017578125;0.63702392578125;0.37750244140625;16.699624050439958;12.227917721574556;17.60245366678437;-0.9326171875;0.251953125;0.0654296875;-11.625;7.3125;12.0;
1441975797960664;-0.4979248046875;0.4520263671875;0.63916015625;0.37310791015625;16.686170137102035;12.25810323685057;17.66142338358462;-0.9453125;0.2548828125;0.03515625;-20.4375;6.4375;11.25;
1441975797977665;-0.50006103515625;0.4503173828125;0.641357421875;0.3685302734375;16.67417430864071;12.285958226329079;17.72041222461515;-0.9716796875;0.22314453125;0.048828125;-28.0625;5.9375;10.875;
1441975797998667;-0.5020751953125;0.4488525390625;0.643310546875;0.364013671875;16.661890601889308;12.317786626280851;17.781501137451503;-0.9755859375;0.20166015625;0.0576171875;-30.0625;7.25;11.4375;
1441975798020668;-0.50384521484375;0.44805908203125;0.64501953125;0.35955810546875;16.64671650283963;12.359465399149558;17.848859483157543;-0.951171875;0.1953125;0.07275390625;-27.8125;9.125;12.3125;
1441975798037669;-0.50555419921875;0.44781494140625;0.646484375;0.35479736328125;16.628447008341695;12.414517033511194;17.928067792523027;-0.93212890625;0.2080078125;0.07421875;-23.9375;10.4375;13.0;
1441975798058670;-0.50750732421875;0.44775390625;0.64788818359375;0.3494873046875;16.60806638185141;12.479915544531629;0.019286475324238366;-0.9140625;0.23095703125;0.06591796875;-22.25;12.6875;13.625;
1441975798080671;-0.50994873046875;0.44757080078125;0.64923095703125;0.34368896484375;16.588512404294296;12.55172538958447;0.11996836229060062;-0.896484375;0.2509765625;0.05908203125;-24.0625;15.1875;14.375;
1441975798096672;-0.51287841796875;0.4468994140625;0.650634765625;0.33740234375;16.57036329063077;12.623147398667918;0.2248325368763591;-0.8984375;0.24951171875;0.048828125;-26.625;18.1875;14.9375;
1441975798118674;-0.5159912109375;0.44622802734375;0.6519775390625;0.330810546875;16.55080023954032;12.697907760587002;0.3343630150004562;-0.87939453125;0.232421875;0.04052734375;-30.4375;19.5;15.5;
1441975798140675;-0.51910400390625;0.44561767578125;0.653564453125;0.32373046875;16.525398231431016;12.7729777676447;0.4462250997424384;-0.8681640625;0.2158203125;0.03271484375;-32.125;21.375;17.125;
1441975798163676;-0.522216796875;0.44537353515625;0.65484619140625;0.31634521484375;16.496332648289847;12.85599184775973;0.5651595964205864;-0.84326171875;0.21435546875;0.04052734375;-33.5625;22.875;19.6875;
1441975798179677;-0.5252685546875;0.4453125;0.65625;0.3084716796875;16.460519875591118;12.939516709047611;0.6858141367830929;-0.84033203125;0.22802734375;0.03271484375;-32.0;24.9375;20.75;
1441975798200678;-0.5281982421875;0.445068359375;0.65789794921875;0.30010986328125;16.4188656777132;13.015969142053336;0.8020138699330831;-0.82861328125;0.24853515625;0.021484375;-33.6875;25.625;22.5;
1441975798216679;-0.5311279296875;0.444580078125;0.65966796875;0.29168701171875;16.37604402705508;13.08370212429623;0.9108589529175102;-0.81005859375;0.27197265625;0.01708984375;-35.875;25.625;22.9375;
1441975798238680;-0.533935546875;0.4439697265625;0.6614990234375;0.2830810546875;16.330322937794232;13.144887812467942;1.0141349326200673;-0.79150390625;0.26953125;0.01220703125;-37.5;24.9375;23.1875;
1441975798260682;-0.53680419921875;0.443115234375;0.6632080078125;0.27490234375;16.288640621584133;13.198538454621827;1.1091533831090339;-0.77294921875;0.27099609375;0.0078125;-38.625;24.3125;23.5625;
1441975798284683;-0.53900146484375;0.44256591796875;0.6649169921875;0.267333984375;16.244685456717676;13.241317920426805;1.1887120647322833;-0.75732421875;0.22412109375;0.00341796875;-37.5625;23.4375;24.3125;
1441975798298684;-0.54034423828125;0.44268798828125;0.6666259765625;0.25994873046875;16.192565584596608;13.277971267577314;1.2573923263780955;-0.712890625;0.18115234375;0.021484375;-32.875;21.6875;27.25;
1441975798322685;-0.54095458984375;0.4432373046875;0.6685791015625;0.25262451171875;16.13292666733495;13.305409915510705;1.3141673183151485;-0.666015625;0.1572265625;0.029296875;-28.5;19.5;31.5;
1441975798343686;-0.54058837890625;0.44378662109375;0.67138671875;0.244873046875;16.061676621428493;13.313916129164218;1.3533372071160177;-0.66162109375;0.1376953125;0.025390625;-26.25;16.4375;36.5;
1441975798358687;-0.53973388671875;0.44500732421875;0.67425537109375;0.23663330078125;15.979813194803912;13.323416883930596;1.3920472966369273;-0.70166015625;0.17724609375;0.06005859375;-27.1875;13.3125;40.9375;
1441975798380689;-0.539306640625;0.4462890625;0.67669677734375;0.22808837890625;15.898879297739825;13.34077578742429;1.4395658054841276;-0.7353515625;0.22412109375;0.05859375;-26.0625;13.3125;44.75;
1441975798397689;-0.5382080078125;0.447265625;0.67962646484375;0.21990966796875;15.817253574065477;13.34167051060104;1.4701128226090885;-0.77783203125;0.22021484375;0.0478515625;-26.25;16.0;46.375;
1441975798418691;-0.53485107421875;0.44879150390625;0.6837158203125;0.21221923828125;15.720124707870657;13.314857258825718;1.4670986467810418;-0.822265625;0.12646484375;0.03955078125;-26.875;10.5;54.625;
1441975798440692;-0.528564453125;0.45184326171875;0.68878173828125;0.204833984375;15.596683919581668;13.268765585914192;1.4343748210257181;-0.81689453125;0.087890625;0.041015625;-23.0;-2.875;64.75;
1441975798463693;-0.52020263671875;0.45587158203125;0.6947021484375;0.1971435546875;15.450203916473576;13.213020685085395;1.3872037657633332;-0.78369140625;0.1435546875;0.07763671875;-14.125;-13.9375;73.625;
1441975798478694;-0.51007080078125;0.45941162109375;0.7021484375;0.1888427734375;15.285920784534412;13.138266391766079;1.3246279426394267;-0.73828125;0.20361328125;0.0947265625;-10.9375;-22.625;80.4375;
1441975798500695;-0.49932861328125;0.46075439453125;0.71124267578125;0.18011474609375;15.120221479653802;13.041981127707414;1.2523336614431266;-0.69873046875;0.2822265625;0.115234375;-16.4375;-32.5625;82.9375;
1441975798531697;-0.48870849609375;0.45953369140625;0.72119140625;0.17254638671875;14.97204833016921;12.928667681671456;1.1703054742453698;-0.6708984375;0.33642578125;0.142578125;-29.625;-40.25;78.6875;
1441975798538698;-0.4781494140625;0.45709228515625;0.7308349609375;0.16802978515625;14.849342538225372;12.809167137942316;1.074982262105213;-0.68408203125;0.341796875;0.1640625;-38.5;-47.875;68.6875;
1441975798560699;-0.46728515625;0.45465087890625;0.73968505859375;0.16644287109375;14.742833294211403;12.692253243283456;0.9692674491782578;-0.70263671875;0.29541015625;0.17822265625;-34.125;-56.5625;56.6875;
1441975798583700;-0.4566650390625;0.453125;0.74700927734375;0.16748046875;14.652193926740166;12.590390290508966;0.8628609850951026;-0.7001953125;0.294921875;0.21630859375;-22.625;-62.5;44.6875;
1441975798598701;-0.44744873046875;0.4521484375;0.7523193359375;0.17132568359375;14.591325318185943;12.505401049470514;0.759481564260211;-0.6669921875;0.34619140625;0.23486328125;-8.625;-62.9375;30.375;
1441975798620702;-0.43951416015625;0.4512939453125;0.75579833984375;0.17840576171875;14.563705140733985;12.428401968539296;0.6503417486969107;-0.6748046875;0.36767578125;0.2626953125;5.875;-58.25;13.625;
1441975798643704;-0.43194580078125;0.44989013671875;0.75885009765625;0.1875;14.551585495043206;12.345542585406019;0.5296887330237203;-0.7421875;0.34912109375;0.25244140625;17.375;-58.25;-1.5;
1441975798657704;-0.4256591796875;0.4471435546875;0.76153564453125;0.19732666015625;14.556599766241089;12.25681841833011;0.4072805584976623;-0.81298828125;0.4130859375;0.26220703125;19.75;-63.0625;-14.4375;
1441975798680706;-0.4212646484375;0.4422607421875;0.763916015625;0.20806884765625;14.586627656136194;12.155289313206737;0.27985378074360256;-0.85546875;0.47900390625;0.2470703125;13.0;-62.3125;-27.625;
1441975798703707;-0.41802978515625;0.43524169921875;0.7667236328125;0.21868896484375;14.625275458051135;12.03693243749701;0.14725995941559414;-0.8935546875;0.451171875;0.23876953125;4.0;-60.0625;-39.375;
1441975798718708;-0.41485595703125;0.4283447265625;0.76953125;0.2283935546875;14.65339584868385;11.921034969487069;0.020214502188198313;-0.9345703125;0.3798828125;0.27197265625;-6.5625;-58.25;-42.3125;
1441975798741709;-0.4114990234375;0.42230224609375;0.7718505859375;0.23779296875;14.673035065319166;11.813361766248972;17.89799974745744;-0.93896484375;0.40087890625;0.302734375;-8.1875;-54.9375;-40.3125;
1441975798763710;-0.4080810546875;0.41583251953125;0.77447509765625;0.246337890625;14.682648527512335;11.703596604570782;17.77893909778809;-0.98828125;0.4453125;0.2763671875;-6.5;-56.125;-39.125;
1441975798779711;-0.40521240234375;0.40850830078125;0.777587890625;0.25341796875;14.685333639315543;11.592186193488194;17.668933365636082;-1.01513671875;0.4873046875;0.2568359375;-13.5625;-58.5625;-38.1875;
1441975798800713;-0.4031982421875;0.40093994140625;0.7806396484375;0.25921630859375;14.68705863122535;11.486311428758782;17.57172956973209;-0.99169921875;0.48388671875;0.29052734375;-21.8125;-53.875;-35.6875;
1441975798816713;-0.4017333984375;0.3934326171875;0.78350830078125;0.2642822265625;14.68826558869185;11.38584605772645;17.483167105597772;-0.970703125;0.46435546875;0.298828125;-27.5625;-47.1875;-33.375;
1441975798839715;-0.4002685546875;0.38629150390625;0.78631591796875;0.2686767578125;14.683729090392017;11.292090735655972;17.40231855985314;-0.94384765625;0.45166015625;0.30810546875;-29.1875;-42.1875;-32.0;
1441975798860716;-0.39935302734375;0.37939453125;0.78887939453125;0.2724609375;14.680714331149368;11.204981816691243;17.33009731157124;-0.91748046875;0.45703125;0.32958984375;-29.4375;-38.9375;-30.5625;
1441975798876717;-0.3997802734375;0.37152099609375;0.791259765625;0.27569580078125;14.68826795024962;11.113705784747891;17.261719148021847;-0.92724609375;0.498046875;0.32763671875;-31.5;-35.5;-31.25;
1441975798899718;-0.40118408203125;0.36260986328125;0.7938232421875;0.27813720703125;14.700213175880352;11.01706015454956;17.197098269138884;-0.95263671875;0.4716796875;0.32275390625;-39.4375;-30.875;-33.125;
1441975798920719;-0.403076171875;0.3544921875;0.79559326171875;0.28082275390625;14.719270157345642;10.927710838157447;17.135276704534725;-0.93896484375;0.42724609375;0.36669921875;-45.875;-24.875;-32.25;
1441975798952721;-0.4049072265625;0.34765625;0.796630859375;0.28369140625;14.73995220311915;10.84968414052347;17.077718005144877;-0.94775390625;0.3837890625;0.39306640625;-39.4375;-18.625;-32.25;
1441975798959722;-0.40618896484375;0.34210205078125;0.7974853515625;0.28619384765625;14.753802350788488;10.784754297976846;17.028381056517006;-0.98583984375;0.3662109375;0.40234375;-31.5;-17.125;-30.25;
1441975798980723;-0.4078369140625;0.33575439453125;0.798583984375;0.288330078125;14.76780664438915;10.713634138467658;16.978370565051794;-1.009765625;0.41259765625;0.400390625;-27.5625;-17.5;-27.8125;
1441975799003724;-0.4090576171875;0.3289794921875;0.800048828125;0.29022216796875;14.773655064278625;10.63893344165071;16.92716634995476;-1.05078125;0.3837890625;0.40576171875;-32.0;-18.1875;-26.5;
1441975799019725;-0.409423828125;0.32366943359375;0.80126953125;0.29241943359375;14.772231005252086;10.576501789105023;16.879471457254994;-1.05859375;0.3447265625;0.453125;-33.3125;-19.125;-23.3125;
1441975799040726;-0.4090576171875;0.31964111328125;0.802001953125;0.29534912109375;14.767138447151233;10.52297710624804;16.830777732376117;-1.0458984375;0.34375;0.50390625;-23.3125;-17.75;-21.1875;
1441975799063728;-0.408203125;0.316162109375;0.802734375;0.29827880859375;14.756666936691518;10.4749492344867;16.784583254683675;-1.04736328125;0.34423828125;0.5400390625;-13.4375;-17.625;-21.4375;
1441975799079728;-0.406982421875;0.31329345703125;0.80328369140625;0.30145263671875;14.743628673052182;10.431968130801536;16.739171178838156;-1.03857421875;0.34716796875;0.57666015625;-9.5625;-16.625;-20.25;
1441975799100730;-0.40570068359375;0.31085205078125;0.8035888671875;0.30499267578125;14.731479841011083;10.391584207816793;16.692784518656797;-1.02197265625;0.35205078125;0.59375;-5.75;-16.625;-20.5625;
1441975799123731;-0.40460205078125;0.30828857421875;0.80377197265625;0.30853271484375;14.721000251097117;10.35036251695342;16.646133154461342;-1.01953125;0.35595703125;0.5986328125;-2.5;-15.875;-22.1875;
1441975799139732;-0.40362548828125;0.3055419921875;0.80389404296875;0.31201171875;14.711075528387088;10.308012314675855;16.59938591941785;-0.99560546875;0.34765625;0.60546875;-3.3125;-14.0625;-23.3125;
1441975799160733;-0.40264892578125;0.3033447265625;0.8037109375;0.31585693359375;14.703154852664344;10.269182706821745;16.55212567294529;-0.96630859375;0.33056640625;0.62060546875;-4.125;-12.3125;-23.875;
1441975799182734;-0.40179443359375;0.30084228515625;0.803466796875;0.320068359375;14.6959059056013;10.22578242270118;16.500180101414273;-0.97021484375;0.35888671875;0.6240234375;-1.5;-11.5;-26.8125;
1441975799199735;-0.4010009765625;0.29742431640625;0.80322265625;0.3248291015625;14.687260680838351;10.17144126156581;16.438784723494805;-0.97216796875;0.37109375;0.6181640625;-3.0;-12.9375;-30.5625;
1441975799220737;-0.4005126953125;0.29327392578125;0.802978515625;0.32977294921875;14.679118438842828;10.109434467478591;16.372376172975823;-0.9365234375;0.31396484375;0.6220703125;-4.5;-13.625;-33.1875;
1441975799243738;-0.39984130859375;0.29034423828125;0.802490234375;0.3343505859375;14.67127687387294;10.06088962951435;16.315388292984778;-0.890625;0.22509765625;0.65673828125;-4.625;-11.0625;-32.125;
1441975799259739;-0.3994140625;0.2882080078125;0.80181884765625;0.33831787109375;14.667358017768844;10.022343752270144;16.267828736584324;-0.8544921875;0.23388671875;0.66162109375;0.0;-7.0;-29.625;
1441975799280740;-0.400390625;0.2852783203125;0.80096435546875;0.3416748046875;14.675742141159938;9.977241093875728;16.221363077191747;-0.8525390625;0.3046875;0.64599609375;-1.25;-4.0;-30.25;
1441975799303741;-0.40277099609375;0.27978515625;0.80047607421875;0.344482421875;14.689114069798366;9.909070466922373;16.16695574598231;-0.900390625;0.3466796875;0.5986328125;-11.3125;-2.375;-34.0;
1441975799319742;-0.40557861328125;0.2730712890625;0.80010986328125;0.34735107421875;14.70146664919484;9.828347533951684;16.105406143188205;-0.92919921875;0.27392578125;0.5927734375;-25.375;-2.5;-35.4375;
1441975799348744;-0.40814208984375;0.267578125;0.79925537109375;0.35052490234375;14.71535362766906;9.756773572758279;16.045846538335912;-0.908203125;0.15576171875;0.6005859375;-28.5625;-2.0;-33.3125;
1441975799363745;-0.410400390625;0.263671875;0.79803466796875;0.35369873046875;14.731170457009622;9.699340300768638;15.993162336362111;-0.89453125;0.111328125;0.5927734375;-19.6875;0.0;-30.8125;
1441975799379746;-0.41290283203125;0.26019287109375;0.79693603515625;0.3558349609375;14.749640365986375;9.649977675121068;15.951541416795589;-0.85791015625;0.10498046875;0.5546875;-11.9375;1.75;-27.8125;
1441975799400747;-0.41632080078125;0.25579833984375;0.796142578125;0.35687255859375;14.772691450002412;9.595317545086003;15.914521041260503;-0.8193359375;0.12841796875;0.52099609375;-14.6875;4.375;-24.875;
1441975799423748;-0.4205322265625;0.2503662109375;0.79559326171875;0.35711669921875;14.798813639676828;9.532784620800365;15.878465354864417;-0.81201171875;0.1279296875;0.4951171875;-24.3125;6.6875;-23.0625;
1441975799439749;-0.424560546875;0.2454833984375;0.79486083984375;0.3572998046875;14.825214133915111;9.475088634373236;15.844682268511857;-0.81787109375;0.06884765625;0.4833984375;-31.1875;7.6875;-19.9375;
1441975799460750;-0.4276123046875;0.24261474609375;0.7938232421875;0.35791015625;14.849471664555372;9.435276496160801;15.817149542934931;-0.818359375;0.02734375;0.4619140625;-27.125;7.75;-16.5625;
1441975799482752;-0.43017578125;0.2418212890625;0.7921142578125;0.35906982421875;14.87862092956717;9.411485421143079;15.793561963534058;-0.84814453125;0.0361328125;0.4580078125;-15.1875;6.25;-13.6875;
1441975799499753;-0.43280029296875;0.241943359375;0.7901611328125;0.36016845703125;14.912690293425932;9.395357514811607;15.774074533574991;-0.8447265625;0.0439453125;0.447265625;-3.125;8.8125;-12.6875;
1441975799520754;-0.43450927734375;0.24310302734375;0.78887939453125;0.36016845703125;14.939644697003382;9.398386996108375;15.773526548120785;-0.85498046875;-0.005859375;0.41943359375;2.875;10.3125;-7.75;
1441975799543755;-0.43603515625;0.2447509765625;0.78765869140625;0.35986328125;14.966662214100028;9.408320310615315;15.778971016572914;-0.84619140625;0.0634765625;0.451171875;3.5;10.375;-1.75;
1441975799559756;-0.43701171875;0.2467041015625;0.78668212890625;0.35955810546875;14.988197760577677;9.42341546544285;15.78786751607284;-0.85107421875;0.08642578125;0.447265625;4.3125;11.0;-0.1875;
1441975799580757;-0.4361572265625;0.25067138671875;0.78546142578125;0.36041259765625;14.998932171170502;9.456707754621032;15.799172178478202;-0.826171875;0.09375;0.45458984375;6.75;10.125;1.5625;
1441975799603758;-0.43328857421875;0.25848388671875;0.7830810546875;0.36358642578125;15.006520521134128;9.518095101702237;15.809504346544243;-0.8125;0.0859375;0.5185546875;23.125;9.375;3.9375;
1441975799618759;-0.428955078125;0.27069091796875;0.7789306640625;0.36859130859375;15.021727358591823;9.613109601666633;15.824074258077465;-0.83984375;0.1201171875;0.5283203125;51.625;8.0;2.125;
1441975799641761;-0.422119140625;0.28515625;0.7755126953125;0.37286376953125;15.01594169443128;9.742374698827204;15.86378434422768;-0.97509765625;0.18017578125;0.51025390625;80.0;6.75;1.9375;
1441975799662762;-0.412841796875;0.30059814453125;0.77392578125;0.37432861328125;14.978760461457465;9.904331819721722;15.941598934939519;-1.12353515625;0.25927734375;0.55517578125;90.75;-2.25;14.125;
1441975799678763;-0.4024658203125;0.31591796875;0.77362060546875;0.37371826171875;14.919266891389315;10.076748837725539;16.03808845312809;-1.15673828125;0.396484375;0.56591796875;87.375;-11.375;30.6875;
1441975799700764;-0.3916015625;0.33197021484375;0.77349853515625;0.37158203125;14.84928734181458;10.260207662107991;16.147616182401176;-1.15087890625;0.49658203125;0.615234375;80.9375;-12.8125;41.3125;
1441975799723765;-0.38116455078125;0.34820556640625;0.7734375;0.36773681640625;14.775085161046556;10.447585342644814;16.267374651602783;-1.1767578125;0.5751953125;0.6845703125;81.1875;-7.5;49.8125;
1441975799745767;-0.371826171875;0.364501953125;0.773193359375;0.36187744140625;14.702217775416237;10.63824701815036;16.399217753834655;-1.17578125;0.5908203125;0.71630859375;78.9375;-0.0625;59.0625;
1441975799762768;-0.36260986328125;0.382080078125;0.7728271484375;0.3538818359375;14.619343915201942;10.844130622609828;16.549100671674054;-1.1708984375;0.5791015625;0.732421875;76.25;10.625;69.6875;
1441975799782769;-0.35400390625;0.39971923828125;0.77239990234375;0.3438720703125;14.526698543167258;11.051675262901973;16.708610283346893;-1.14453125;0.61962890625;0.6318359375;75.875;14.4375;81.625;
1441975799798770;-0.3465576171875;0.41583251953125;0.7728271484375;0.3310546875;14.420197031567337;11.248040063433233;16.87679896726861;-1.06640625;0.640625;0.53564453125;70.5625;19.125;90.25;
1441975799821771;-0.34149169921875;0.42962646484375;0.77410888671875;0.3155517578125;14.311405532511923;11.425660347670119;17.05152060252039;-1.0263671875;0.65625;0.5078125;54.25;26.3125;99.3125;
1441975799843772;-0.33819580078125;0.4432373046875;0.77520751953125;0.2969970703125;14.196479881579213;11.60598328804594;17.244230814764432;-0.97705078125;0.6484375;0.498046875;36.375;38.3125;109.375;
1441975799865773;-0.33587646484375;0.45745849609375;0.775390625;0.27691650390625;14.073533566048269;11.789510376490638;17.443659191903162;-0.8857421875;0.6123046875;0.43994140625;27.0;53.6875;117.875;
1441975799881774;-0.333740234375;0.4730224609375;0.7740478515625;0.25634765625;13.939200630928962;11.978136695744164;17.642037176434467;-0.80224609375;0.60888671875;0.37548828125;27.25;64.6875;122.3125;
1441975799903776;-0.33221435546875;0.48931884765625;0.77093505859375;0.236083984375;13.801880334413912;12.166097765947962;17.833308116500106;-0.75244140625;0.64111328125;0.2734375;35.5625;71.0;123.75;
1441975799918776;-0.3319091796875;0.506591796875;0.76568603515625;0.216552734375;13.669447154557565;12.35734015872942;0.019473313253424874;-0.7158203125;0.6416015625;0.14208984375;42.3125;76.0625;119.5625;
1441975799942778;-0.33282470703125;0.5213623046875;0.760498046875;0.1973876953125;13.540685852427421;12.523293019412526;0.1912024709752974;-0.7041015625;0.69287109375;0.1259765625;52.4375;85.125;112.0625;
1441975799962779;-0.334228515625;0.535400390625;0.75494384765625;0.17779541015625;13.403446707803553;12.679064286569268;0.3573652424427893;-0.7861328125;0.71044921875;0.16943359375;41.5625;86.8125;103.1875;
1441975799986780;-0.33673095703125;0.550537109375;0.747314453125;0.15814208984375;13.264365218574119;12.843823944827962;0.5264160744650154;-0.80517578125;0.60205078125;0.1728515625;38.5625;90.0;104.1875;
1441975800001781;-0.341796875;0.5697021484375;0.7344970703125;0.1380615234375;13.125793747284275;13.05165969768262;0.7187945717577895;-0.70947265625;0.5673828125;0.185546875;49.4375;101.5;100.5;
1441975800023782;-0.352294921875;0.58111572265625;0.7244873046875;0.11517333984375;13.011726895149817;13.213529605162432;0.924702358953583;-0.60498046875;0.6259765625;-0.00439453125;77.75;126.0;96.25;
1441975800047784;-0.3641357421875;0.58837890625;0.71600341796875;0.09210205078125;12.904066981243595;13.343673228760103;1.122605951190224;-0.68896484375;0.720703125;-0.04248046875;26.0625;146.0;77.4375;
1441975800061785;-0.373291015625;0.59814453125;0.705322265625;0.07330322265625;12.790017158552299;13.479197095897016;1.288928654959836;-0.80810546875;0.68310546875;-0.04296875;3.25;146.875;68.8125;
1441975800082786;-0.3795166015625;0.61077880859375;0.6923828125;0.05877685546875;12.66825773367647;13.62234104674484;1.4232692463224152;-0.8701171875;0.58251953125;-0.08203125;31.0;127.3125;66.8125;
1441975800105787;-0.38336181640625;0.621826171875;0.68121337890625;0.0478515625;12.557917184698638;13.737306815787017;1.5200864029773988;-0.85498046875;0.5888671875;-0.078125;60.875;107.4375;64.75;
1441975800121788;-0.383056640625;0.6331787109375;0.67144775390625;0.03826904296875;12.425610962967552;13.831208857383032;1.5825448860269609;-0.79052734375;0.6728515625;0.01416015625;62.3125;85.8125;67.75;
1441975800143789;-0.3812255859375;0.6484375;0.65802001953125;0.0333251953125;12.302319382610596;13.951913987530375;1.625358759295776;-0.720703125;0.76708984375;0.068359375;67.3125;65.0625;72.0;
1441975800165791;-0.37506103515625;0.64605712890625;0.6639404296875;0.033203125;12.27482957580285;13.896874743523584;1.579359122699635;-0.7548828125;0.666015625;-0.16357421875;93.6875;44.0;74.625;
1441975800182792;-0.35699462890625;0.65399169921875;0.66546630859375;0.04400634765625;12.219019418463157;13.874704805920675;1.4427072006262327;-1.02197265625;0.640625;0.40087890625;-1.6875;-12.1875;54.625;
1441975800204793;-0.33306884765625;0.66741943359375;0.66424560546875;0.0477294921875;12.041429894332275;13.876113095444895;1.311778246064754;-0.662109375;0.6396484375;0.53955078125;87.5625;-85.125;59.125;
1441975800218794;-0.31103515625;0.68505859375;0.6568603515625;0.0496826171875;11.84696318193789;13.932190667660583;1.2119332796662985;-0.09716796875;0.77294921875;0.3291015625;95.0625;-86.1875;81.875;
1441975800242795;-0.2880859375;0.70220947265625;0.6488037109375;0.05389404296875;11.671405443827283;13.990677146658394;1.1001998505544959;-0.07373046875;0.91015625;0.306640625;111.875;-69.6875;102.125;
1441975800262796;-0.26300048828125;0.71527099609375;0.64569091796875;0.0472412109375;11.403175878648314;14.009711921796459;1.0096024626069122;-0.10986328125;1.12744140625;0.16259765625;116.0;-81.9375;95.5;
1441975800278797;-0.23675537109375;0.72076416015625;0.65087890625;0.02813720703125;11.041164426466167;13.963958581206505;0.9485096495567931;-0.00732421875;1.17431640625;-0.06689453125;59.8125;-57.5;138.125;
1441975800317799;-0.20831298828125;0.72528076171875;0.65606689453125;0.008544921875;10.660376687865975;13.916822596769284;0.8838233870102075;0.13916015625;0.9404296875;0.06103515625;-19.0;-25.25;180.0;
1441975800323800;-0.17645263671875;0.730224609375;0.6597900390625;-0.0147705078125;10.219807571581217;13.878711721745496;0.8238210736834375;0.19970703125;0.86962890625;0.0751953125;-23.3125;-31.5625;190.25;
1441975800338801;-0.143798828125;0.73309326171875;0.6632080078125;-0.0439453125;9.725700301093545;13.836761037204827;0.7871756998880541;0.232421875;0.91357421875;0.03173828125;-20.625;-27.375;219.0625;
1441975800362802;-0.1121826171875;0.734619140625;0.664794921875;-0.07574462890625;9.217043865868526;13.800327210878397;0.7705432257672492;0.27099609375;0.84912109375;-0.099609375;-35.625;-5.875;243.25;
1441975800382803;-0.08013916015625;0.73388671875;0.6661376953125;-0.105712890625;8.722587544791327;13.758783506022924;0.7499051008373909;0.24365234375;0.81298828125;-0.10107421875;-35.1875;11.25;250.0;
1441975800398804;-0.04766845703125;0.73260498046875;0.665771484375;-0.133056640625;8.244421349505874;13.725735068610692;0.7214908354894511;0.119140625;0.802734375;-0.09814453125;-42.25;3.25;246.6875;
1441975800421805;-0.01678466796875;0.729736328125;0.6644287109375;-0.16015625;7.779220519574806;13.692678508459785;0.7026919543036292;0.13623046875;0.73291015625;-0.1923828125;-37.75;-8.0625;240.0625;
1441975800442806;0.0113525390625;0.7255859375;0.66278076171875;-0.18450927734375;7.357116947665908;13.65923229474779;0.6879281156709299;0.19970703125;0.73583984375;-0.1875;-38.8125;-0.8125;232.8125;
1441975800458807;0.036865234375;0.721435546875;0.66046142578125;-0.20452880859375;6.988840904635808;13.633651747857161;0.6680754107370217;0.11328125;0.6826171875;-0.17431640625;-39.5;-1.0;213.0625;
1441975800481809;0.0584716796875;0.7197265625;0.6561279296875;-0.21917724609375;6.690618560866877;13.633605092997346;0.6389189169487607;0.1015625;0.55810546875;-0.17626953125;-34.1875;-8.375;186.375;
1441975800504810;0.0771484375;0.719482421875;0.65167236328125;-0.22723388671875;6.468673014292878;13.6499610266413;0.5909846872543935;0.07763671875;0.53515625;-0.16015625;-13.0625;-19.1875;152.625;
1441975800518811;0.09149169921875;0.72149658203125;0.6484375;-0.2247314453125;6.370570011466344;13.68532996777486;0.512208634125576;0.03125;0.5751953125;-0.14794921875;-5.375;-37.0625;116.875;
1441975800541812;0.101806640625;0.72406005859375;0.6483154296875;-0.21209716796875;6.394839743938384;13.721312311794001;0.40824521380426776;0.05322265625;0.587890625;-0.146484375;-5.6875;-63.75;67.8125;
1441975800572814;0.1070556640625;0.72674560546875;0.65087890625;-0.19146728515625;6.531125145466897;13.750424935978753;0.29579394888271077;0.0712890625;0.5390625;-0.0791015625;-12.625;-91.875;6.5625;
1441975800578814;0.104248046875;0.72979736328125;0.65484619140625;-0.166259765625;6.771410510127766;13.769790737725739;0.20325102492335084;0.0419921875;0.51904296875;-0.02734375;-18.9375;-106.875;-56.5625;
1441975800601816;0.095947265625;0.73284912109375;0.6591796875;-0.1380615234375;7.079809757984895;13.781690582820273;0.12560251221884433;-0.07666015625;0.53515625;-0.02294921875;-16.9375;-95.25;-107.25;
1441975800624817;0.0836181640625;0.73687744140625;0.662109375;-0.10736083984375;7.439639618151635;13.798204106713055;0.05633458612930865;-0.21240234375;0.53173828125;-0.0087890625;-15.0;-86.5625;-140.0625;
1441975800638818;0.0672607421875;0.7418212890625;0.66314697265625;-0.07293701171875;7.861279523068062;13.82139588658348;17.991071529280177;-0.248046875;0.48876953125;-0.0126953125;-3.8125;-83.75;-166.0625;
1441975800661819;0.0465087890625;0.746826171875;0.66253662109375;-0.03314208984375;8.361930220656124;13.846366834230002;17.92633121538577;-0.22021484375;0.52783203125;0.02587890625;9.375;-85.5625;-197.375;
1441975800691821;0.0206298828125;0.75054931640625;0.66033935546875;0.0103759765625;8.933127519567034;13.866589355613469;17.87196410622323;-0.24560546875;0.56640625;0.072265625;17.0625;-92.5;-236.125;
1441975800698821;-0.0096435546875;0.75347900390625;0.65509033203125;0.05450439453125;9.54384584198173;13.891781578393466;17.83621983956779;-0.2880859375;0.55322265625;0.0634765625;19.0;-88.75;-271.75;
1441975800721822;-0.04266357421875;0.7537841796875;0.64813232421875;0.09918212890625;10.182029795461936;13.911491702957735;17.811805697859377;-0.4482421875;0.49365234375;0.0400390625;28.5;-74.75;-291.5;
1441975800751824;-0.077880859375;0.74908447265625;0.64166259765625;0.14483642578125;10.8479609154357;13.9076297351583;17.790791723167207;-0.57568359375;0.52734375;-0.02734375;24.3125;-67.75;-305.0;
1441975800758825;-0.114013671875;0.74090576171875;0.634521484375;0.18798828125;11.504277788481449;13.893315782596405;17.779623428706653;-0.658203125;0.51611328125;0.03369140625;3.5;-65.875;-319.1875;
1441975800781826;-0.1495361328125;0.7315673828125;0.6243896484375;0.22918701171875;12.147321501373577;13.888033304869552;17.77331555223718;-0.7939453125;0.4716796875;0.017578125;-9.0625;-54.25;-315.1875;
1441975800804827;-0.1844482421875;0.71728515625;0.61444091796875;0.27178955078125;12.806912489415188;13.854309458767267;17.74713788623901;-0.93115234375;0.498046875;-0.22021484375;-4.5625;-49.3125;-308.875;
1441975800818828;-0.21832275390625;0.6968994140625;0.6072998046875;0.312744140625;13.451599080526915;13.768427179093415;17.695839751538763;-1.056640625;0.44970703125;-0.31494140625;-22.5625;-65.4375;-315.1875;
1441975800841829;-0.2523193359375;0.67608642578125;0.5997314453125;0.345703125;14.036640589593993;13.686836641905323;17.669244759533562;-1.02490234375;0.28466796875;-0.15576171875;-53.6875;-73.9375;-307.4375;
1441975800864831;-0.28314208984375;0.6580810546875;0.58941650390625;0.37322998046875;14.55933122109987;13.634547349198987;17.65789435796928;-1.107421875;0.1259765625;-0.0791015625;-62.9375;-41.25;-279.9375;
1441975800885832;-0.3109130859375;0.6387939453125;0.57928466796875;0.39947509765625;15.053858496173047;13.555773325986285;17.616707089689957;-1.33935546875;0.05517578125;-0.212890625;-45.4375;-23.9375;-248.5625;
1441975800901833;-0.3382568359375;0.61932373046875;0.56829833984375;0.423095703125;15.530863302501801;13.472611542632594;17.573844136238876;-1.373046875;0.21240234375;-0.12890625;-45.0;-31.625;-237.6875;
1441975800924834;-0.36370849609375;0.60345458984375;0.552001953125;0.44580078125;15.999854966411636;13.441334060175805;17.552532784551076;-1.421875;0.2763671875;-0.1142578125;-46.0625;-22.5;-232.625;
1441975800945835;-0.38616943359375;0.58868408203125;0.53057861328125;0.47198486328125;16.491171461817203;13.40524864670329;17.488970962443027;-1.57470703125;0.40478515625;-0.2548828125;-13.375;-8.75;-231.9375;
1441975800961836;-0.40667724609375;0.57257080078125;0.5064697265625;0.50018310546875;16.99975221939908;13.277572647023504;17.31807389139623;-1.61767578125;0.47412109375;-0.32080078125;22.9375;-18.4375;-247.25;
1441975800990838;-0.42803955078125;0.55487060546875;0.48199462890625;0.52587890625;17.50353001169805;12.907588540698706;16.917460074016603;-1.49560546875;0.59423828125;-0.2802734375;37.8125;-27.9375;-261.4375;
1441975801005839;-0.44830322265625;0.53680419921875;0.4560546875;0.55029296875;17.873934771560766;8.506358058334472;12.482070622807736;-1.4638671875;0.51513671875;-0.234375;27.0;-20.5625;-263.125;
1441975801027840;-0.46533203125;0.51910400390625;0.4276123046875;0.57537841796875;17.45082713898583;5.347856910272888;9.268819580440827;-1.49658203125;0.392578125;-0.1943359375;31.3125;-16.3125;-261.625;
1441975801044841;-0.47930908203125;0.50177001953125;0.39794921875;0.60009765625;16.964473132989305;5.0934577520998765;8.945982972061678;-1.5205078125;0.3154296875;-0.126953125;51.875;-18.375;-261.125;
1441975801065842;-0.4913330078125;0.4840087890625;0.36883544921875;0.62310791015625;16.493794615270815;5.039301440407539;8.823824560840578;-1.50390625;0.29443359375;-0.11572265625;65.6875;-20.3125;-256.375;
1441975801081843;-0.5013427734375;0.46630859375;0.34124755859375;0.64398193359375;16.052703595313307;5.039226595733038;8.758682901958144;-1.45654296875;0.23046875;-0.111328125;65.3125;-22.8125;-246.375;
1441975801106844;-0.507568359375;0.4503173828125;0.3143310546875;0.66387939453125;15.649805921685171;5.072275782350338;8.713750362900878;-1.380859375;0.1220703125;-0.099609375;62.3125;-25.375;-230.3125;
1441975801125846;-0.51043701171875;0.4359130859375;0.2882080078125;0.682861328125;15.28259197038061;5.1247252628226825;8.676866455296732;-1.30712890625;0.12060546875;-0.0888671875;75.625;-25.9375;-211.8125;
1441975801141846;-0.51104736328125;0.42218017578125;0.264404296875;0.700439453125;14.951131473093763;5.1906027780062765;8.654087920095407;-1.22802734375;0.134765625;-0.1015625;86.0;-26.375;-194.625;
1441975801164848;-0.50872802734375;0.40948486328125;0.24249267578125;0.7174072265625;14.65425599756579;5.273203351509422;8.642066873610554;-1.1435546875;0.12109375;-0.1220703125;86.6875;-30.875;-175.5;
1441975801185849;-0.503173828125;0.39825439453125;0.22216796875;0.7340087890625;14.39290942534537;5.371430258692192;8.635842947454865;-1.05029296875;0.0908203125;-0.099609375;93.375;-35.5;-156.5;
1441975801201850;-0.49859619140625;0.3875732421875;0.20489501953125;0.74774169921875;14.162819591940016;5.451006164464404;8.629424279984233;-0.90234375;0.20068359375;-0.13330078125;103.8125;-37.8125;-137.8125;
1441975801224851;-0.49444580078125;0.3775634765625;0.18988037109375;0.759521484375;13.958229716307768;5.519564191923957;8.623622299566355;-0.7841796875;0.23779296875;-0.1787109375;85.625;-37.5;-121.9375;
1441975801254853;-0.48760986328125;0.37335205078125;0.17938232421875;0.76849365234375;13.848979697753474;5.587676357251644;8.616746489948829;-0.71875;0.267578125;-0.171875;74.0;-35.9375;-108.75;
1441975801261853;-0.48211669921875;0.36968994140625;0.17156982421875;0.7755126953125;13.763430607641384;5.642893446289448;8.614684236105623;-0.611328125;0.3583984375;-0.18798828125;75.0;-34.875;-97.3125;
1441975801284855;-0.47943115234375;0.36700439453125;0.16693115234375;0.77947998046875;13.70718229744568;5.671917372396832;8.613250728472536;-0.5576171875;0.4072265625;-0.197265625;57.875;-34.8125;-84.875;
1441975801312856;-0.47662353515625;0.3662109375;0.16375732421875;0.7822265625;13.6805893891937;5.695517989450054;8.609967829174153;-0.5556640625;0.37890625;-0.171875;30.125;-29.125;-69.5625;
1441975801321857;-0.470703125;0.36724853515625;0.16046142578125;0.78594970703125;13.675340109639867;5.73851680109425;8.60777880869913;-0.60107421875;0.31640625;-0.13232421875;25.5;-21.125;-55.0;
1441975801344858;-0.46221923828125;0.37158203125;0.15924072265625;0.78924560546875;13.72023260557028;5.793979976267751;8.610258730069575;-0.5517578125;0.2578125;-0.1044921875;43.9375;-15.75;-39.875;
1441975801365859;-0.45379638671875;0.3780517578125;0.1605224609375;0.790771484375;13.80422277335036;5.843849021059013;8.616434323377353;-0.490234375;0.36083984375;-0.12939453125;51.9375;-7.9375;-18.125;
1441975801381860;-0.44293212890625;0.38690185546875;0.164306640625;0.7918701171875;13.931924179742788;5.910814041441562;8.636318460595259;-0.50537109375;0.31591796875;-0.1328125;43.9375;-2.375;2.1875;
1441975801404861;-0.42919921875;0.4012451171875;0.171630859375;0.790771484375;14.143714428919804;5.988788765051512;8.66380505089525;-0.54833984375;0.296875;-0.11474609375;50.5;0.4375;25.1875;
1441975801425863;-0.41925048828125;0.420166015625;0.1859130859375;0.78302001953125;14.447771566020876;6.027779003086646;8.697870374900837;-0.66943359375;0.37744140625;-0.177734375;55.25;12.3125;55.5;
1441975801441864;-0.41632080078125;0.43310546875;0.2015380859375;0.7735595703125;14.692381952158097;6.031957903215634;8.743377053422334;-0.74755859375;0.51904296875;-0.28271484375;11.125;27.625;86.4375;
1441975801464865;-0.40985107421875;0.4493408203125;0.2197265625;0.76275634765625;14.995338013121213;6.065510565313423;8.810300514749587;-0.84130859375;0.298828125;-0.27392578125;-32.25;32.125;107.375;
1441975801485866;-0.402587890625;0.47100830078125;0.2430419921875;0.74627685546875;15.399616127064869;6.098128461083829;8.892209646757667;-0.87744140625;0.31591796875;-0.15771484375;-23.8125;41.8125;136.5625;
1441975801507867;-0.395751953125;0.49456787109375;0.27252197265625;0.72418212890625;15.876244465365264;6.152057784711015;9.02577401293744;-1.19189453125;0.44384765625;-0.220703125;-40.0625;64.8125;177.8125;
1441975801523868;-0.3792724609375;0.52471923828125;0.30267333984375;0.69940185546875;16.449707537581073;6.360029098887715;9.272203977976977;-1.6357421875;0.08154296875;-0.10888671875;-68.25;75.25;220.0;
1441975801552870;-0.36297607421875;0.556396484375;0.33685302734375;0.66717529296875;17.076721738451614;6.848183910111208;9.824949186347315;-1.802734375;0.05810546875;-0.1220703125;-25.5625;94.0;271.5625;
1441975801561870;-0.3531494140625;0.5816650390625;0.381591796875;0.62548828125;17.576555835993457;9.082877150492003;12.215581008812432;-1.962890625;0.265625;-0.169921875;-52.6875;114.5625;302.6875;
1441975801583872;-0.3311767578125;0.60540771484375;0.4281005859375;0.58349609375;17.194131595148434;12.50874826678973;15.76512686634925;-2.38720703125;-0.1943359375;0.02880859375;-143.125;115.375;339.8125;
1441975801608873;-0.2933349609375;0.63800048828125;0.4644775390625;0.53948974609375;16.394592332468093;13.358018190609215;16.634481894471023;-2.59716796875;-0.6767578125;0.2705078125;-109.5625;83.0625;380.5625;
1441975801621874;-0.24798583984375;0.67236328125;0.493408203125;0.49285888671875;15.516753283761552;13.685740312917165;16.93247113553877;-2.48193359375;-0.310546875;0.2109375;-2.9375;99.875;424.0625;
1441975801650876;-0.21826171875;0.68963623046875;0.53326416015625;0.43853759765625;14.689911820974856;13.744508203414323;17.111440007170874;-2.51708984375;0.4072265625;-0.0732421875;47.4375;107.75;438.0625;
1441975801674877;-0.1885986328125;0.69683837890625;0.5770263671875;0.3818359375;13.857956559035348;13.683722441606808;17.220372008580163;-2.375;0.28857421875;0.05859375;-97.375;120.8125;424.625;
1441975801681877;-0.15142822265625;0.71319580078125;0.597900390625;0.33294677734375;13.099891982691538;13.740350658061633;17.30166878235157;-2.439453125;-0.05908203125;0.18310546875;-147.625;97.125;410.9375;
1441975801703879;-0.12506103515625;0.7225341796875;0.612548828125;0.29498291015625;12.541712806070084;13.765679966821434;17.359558859221366;-2.482421875;0.34716796875;-0.14306640625;-0.6875;85.625;374.0625;
1441975801726880;-0.11920166015625;0.718994140625;0.63409423828125;0.25811767578125;12.149421930143602;13.710068432365587;17.47307997711883;-2.17236328125;0.39111328125;0.12158203125;-10.875;70.125;274.3125;
1441975801741881;-0.12579345703125;0.7021484375;0.66290283203125;0.2271728515625;11.906831594530438;13.55831585601976;17.59037554871928;-1.73681640625;0.5693359375;0.08984375;-115.875;113.8125;208.125;
