1441975322186452;-0.9228515625;-0.23333740234375;-0.28961181640625;-0.100830078125;6.082932298130164;16.92079371447897;10.70290339070619;1.02978515625;0.23486328125;-0.11865234375;-204.0625;-51.625;-13.6875;
1441975322202453;-0.92022705078125;-0.2305908203125;-0.2913818359375;-0.1231689453125;6.135110109098988;16.785324795755383;10.721337769159408;0.8701171875;-0.31689453125;-0.228515625;-225.75;-38.5625;-8.875;
1441975322224454;-0.91748046875;-0.238525390625;-0.29534912109375;-0.1190185546875;6.09779308347612;16.78705863416935;10.775691900826274;0.84814453125;-0.4140625;-0.10693359375;-132.9375;-28.8125;-33.5625;
1441975322246455;-0.91461181640625;-0.25750732421875;-0.2935791015625;-0.1051025390625;6.112741083979503;16.845479875415243;10.873468809783642;0.83203125;-0.3466796875;-0.11572265625;5.25;-5.125;-68.125;
1441975322261456;-0.910888671875;-0.2791748046875;-0.291259765625;-0.08709716796875;6.118757676552118;16.92449685750914;10.983294124023544;0.7421875;-0.099609375;-0.212890625;103.125;18.9375;-86.875;
1441975322285457;-0.90618896484375;-0.29852294921875;-0.29046630859375;-0.0738525390625;6.11653294888403;16.973439670152164;11.089902061342798;0.669921875;0.251953125;-0.39892578125;133.1875;27.75;-91.8125;
1441975322306459;-0.89947509765625;-0.31396484375;-0.296630859375;-0.06695556640625;6.055877492906279;16.969027413064143;11.197792076026595;0.68603515625;0.41796875;-0.4296875;103.875;28.375;-87.3125;
1441975322321459;-0.892333984375;-0.325927734375;-0.305908203125;-0.06390380859375;5.972096236896233;16.93602985483012;11.297461084477678;0.6962890625;0.365234375;-0.490234375;58.1875;38.375;-80.1875;
1441975322345461;-0.88458251953125;-0.336181640625;-0.31768798828125;-0.05987548828125;5.854850584274149;16.900158167200605;11.394140295787793;0.68798828125;0.3349609375;-0.5205078125;23.875;49.3125;-69.3125;
1441975322366462;-0.87591552734375;-0.34710693359375;-0.33123779296875;-0.05120849609375;5.699619914219509;16.879766724673978;11.497516489346236;0.73388671875;0.27783203125;-0.5234375;16.875;63.5;-62.0625;
1441975322381463;-0.86578369140625;-0.36016845703125;-0.345458984375;-0.0380859375;5.520119147006027;16.873034117336633;11.616063611854852;0.8095703125;0.22314453125;-0.521484375;34.875;80.5;-61.5625;
1441975322405464;-0.85498046875;-0.37591552734375;-0.35675048828125;-0.02252197265625;5.3626403131468106;16.880472526172667;11.74542603921628;0.83056640625;0.22998046875;-0.49169921875;60.25;96.25;-66.0;
1441975322436466;-0.84271240234375;-0.3919677734375;-0.369140625;-0.006591796875;5.190824465530336;16.877843814997142;11.886251413314099;0.80859375;0.25634765625;-0.4921875;83.3125;107.625;-69.0625;
1441975322442466;-0.8294677734375;-0.4063720703125;-0.38336181640625;0.0054931640625;5.0182817849222605;16.84067761816077;12.035021571933786;0.7939453125;0.27294921875;-0.576171875;83.0;118.5;-72.125;
1441975322464468;-0.81658935546875;-0.41778564453125;-0.398193359375;0.01416015625;4.854188909354805;16.78017503817162;12.177234091614572;0.71044921875;0.28515625;-0.5966796875;56.75;122.0625;-73.625;
1441975322486469;-0.80364990234375;-0.42669677734375;-0.4144287109375;0.02130126953125;4.682713182797434;16.701348419820214;12.31795710837539;0.7470703125;0.27490234375;-0.54248046875;32.375;116.125;-66.9375;
1441975322501470;-0.789794921875;-0.43450927734375;-0.43206787109375;0.02850341796875;4.499156076962224;16.606830263083246;12.468539987075953;0.90087890625;0.26318359375;-0.57666015625;15.75;118.5625;-59.4375;
1441975322524471;-0.7757568359375;-0.440673828125;-0.45037841796875;0.03594970703125;4.308333118720086;16.501984525859623;12.62222640525434;1.02294921875;0.21533203125;-0.6240234375;8.8125;127.125;-58.0625;
1441975322546472;-0.7628173828125;-0.44329833984375;-0.468994140625;0.041748046875;4.119689886133866;16.384331512031665;12.76495544448673;1.0068359375;0.171875;-0.712890625;3.375;134.0;-51.25;
1441975322561473;-0.752197265625;-0.44097900390625;-0.4876708984375;0.04486083984375;3.9363427465032474;16.25662471309762;12.883138228846944;0.89794921875;0.1650390625;-0.6865234375;-14.6875;130.3125;-36.375;
1441975322584475;-0.7427978515625;-0.4345703125;-0.50738525390625;0.04486083984375;3.7559730830565194;16.10581286271028;12.99231280919419;0.99755859375;0.10009765625;-0.69677734375;-41.3125;119.125;-17.875;
1441975322607476;-0.734375;-0.42742919921875;-0.525390625;0.04571533203125;3.584107978249048;15.964274551684827;13.094249872149065;1.0654296875;4.8828125E-4;-0.68212890625;-69.8125;113.25;-7.9375;
1441975322621477;-0.72650146484375;-0.418701171875;-0.5423583984375;0.05316162109375;3.3644841146038176;15.856806208584931;13.183106677152285;1.05810546875;-0.03369140625;-0.4326171875;-62.875;103.0;-0.0625;
1441975322644478;-0.71807861328125;-0.4110107421875;-0.558837890625;0.05694580078125;3.1864722900917277;15.717120018314988;13.295536573022138;1.25927734375;0.041015625;-0.32666015625;-42.5625;98.625;4.4375;
1441975322667479;-0.70989990234375;-0.3990478515625;-0.57720947265625;0.06085205078125;2.976992551768353;15.554244377568564;13.411998565550222;1.4736328125;0.1708984375;-0.359375;-46.6875;101.8125;11.25;
1441975322681480;-0.70343017578125;-0.380859375;-0.596923828125;0.062255859375;2.748208554511884;15.365082252192751;13.51664949871458;1.42919921875;0.328125;-0.40283203125;-63.4375;112.6875;32.375;
1441975322704481;-0.69915771484375;-0.35546875;-0.61761474609375;0.058837890625;2.5126927182685552;15.14181634781546;13.6047392561744;1.3251953125;0.443359375;-0.400390625;-97.875;110.75;55.125;
1441975322727483;-0.6966552734375;-0.32318115234375;-0.63861083984375;0.0498046875;2.279420851464006;14.8797070223553;13.680980979248035;1.26708984375;0.458984375;-0.36328125;-144.75;100.625;73.4375;
1441975322741484;-0.69488525390625;-0.28631591796875;-0.65869140625;0.03790283203125;2.0447842098629834;14.587990381865588;13.75902255562131;1.2509765625;0.369140625;-0.31689453125;-193.625;86.375;83.625;
1441975322764485;-0.69366455078125;-0.24713134765625;-0.6761474609375;0.02642822265625;1.8012499777551394;14.2915876304582;13.837785386197938;1.2197265625;0.296875;-0.2822265625;-220.1875;76.8125;92.5625;
1441975322787486;-0.69256591796875;-0.208251953125;-0.6904296875;0.01904296875;1.5377852475395668;13.998998504136555;13.934312469261371;1.23046875;0.24853515625;-0.24365234375;-223.0625;65.875;104.625;
1441975322808487;-0.69012451171875;-0.17376708984375;-0.70233154296875;0.01824951171875;1.2665443275997132;13.668166595405559;14.116977768633046;1.302734375;0.17724609375;-0.18505859375;-200.9375;58.5;119.3125;
1441975322824488;-0.68707275390625;-0.14630126953125;-0.71136474609375;0.02435302734375;1.0087909890070756;13.284585851263682;14.411166640584376;1.3271484375;0.197265625;-0.18359375;-154.375;62.375;127.6875;
1441975322847490;-0.68365478515625;-0.12542724609375;-0.71826171875;0.032958984375;0.8006211334616861;12.796355784230546;14.848229303057929;1.23046875;0.10302734375;-0.08837890625;-95.4375;59.0;127.25;
1441975322868491;-0.6790771484375;-0.11053466796875;-0.7242431640625;0.04766845703125;0.6274941072194165;12.036842363695081;15.606365129630746;1.1953125;-0.13916015625;-0.02294921875;-56.625;52.125;108.375;
1441975322884492;-0.67352294921875;-0.1019287109375;-0.7291259765625;0.066650390625;0.5337436310560771;10.962354832620772;16.72297441883945;1.1796875;-0.09521484375;0.00830078125;-7.0;59.4375;99.75;
1441975322907493;-0.6669921875;-0.09771728515625;-0.733642578125;0.08648681640625;0.5478415194234942;9.852831687491545;17.896392390875256;1.11767578125;-0.0703125;0.01025390625;36.8125;61.4375;97.875;
1441975322928494;-0.659423828125;-0.09759521484375;-0.73785400390625;0.10626220703125;0.6396812594174863;9.099736751016948;0.7303300230812916;1.08251953125;0.01171875;0.04345703125;58.6875;61.75;92.375;
1441975322944495;-0.6517333984375;-0.100341796875;-0.741455078125;0.12451171875;0.753429423124122;8.704565617910976;1.2122530723131233;1.0615234375;0.1201171875;0.1103515625;75.75;59.6875;85.125;
1441975322967496;-0.6439208984375;-0.103515625;-0.74517822265625;0.13946533203125;0.8714482763166366;8.518761915861564;1.473416837369083;1.05419921875;0.173828125;0.12255859375;81.5625;55.5;73.8125;
1441975322988498;-0.6368408203125;-0.1051025390625;-0.748779296875;0.15087890625;0.9811068538272392;8.411258419516923;1.635430871706333;0.98095703125;0.28662109375;0.14697265625;69.6875;53.25;66.25;
1441975323004499;-0.63177490234375;-0.1025390625;-0.75201416015625;0.1578369140625;1.0738974585883867;8.297932088697694;1.767694998020781;0.8994140625;0.3759765625;0.14306640625;47.875;49.25;64.125;
1441975323027500;-0.62969970703125;-0.09375;-0.75445556640625;0.15997314453125;1.1463194169594968;8.121348370706434;1.9173826021954483;0.81396484375;0.412109375;0.15625;11.125;39.25;64.25;
1441975323048501;-0.63079833984375;-0.079833984375;-0.755615234375;0.15765380859375;1.1939458096053555;7.888892399774688;2.083130329509858;0.73828125;0.35693359375;0.17236328125;-34.6875;25.0625;65.1875;
1441975323064502;-0.63446044921875;-0.060791015625;-0.755126953125;0.15374755859375;1.2365666698272175;7.5583709914225405;2.3192896537073318;0.72021484375;0.27587890625;0.1611328125;-74.875;9.5;62.4375;
1441975323087503;-0.63970947265625;-0.0406494140625;-0.75323486328125;0.14776611328125;1.2672512424861748;7.218351995424363;2.5519794949952033;0.68896484375;0.203125;0.1484375;-100.5625;-2.4375;58.6875;
1441975323108504;-0.64605712890625;-0.02081298828125;-0.75006103515625;0.140380859375;1.286696317347052;6.8801951440913;2.778417644971481;0.68408203125;0.125;0.14208984375;-113.4375;-13.875;54.6875;
1441975323124505;-0.653564453125;-0.00213623046875;-0.74542236328125;0.131591796875;1.2888379396863903;6.540933610387189;3.0050931129598806;0.67822265625;0.06494140625;0.1064453125;-118.1875;-24.0;47.6875;
1441975323147507;-0.662109375;0.01397705078125;-0.7393798828125;0.12176513671875;1.2681465882678746;6.2024202153291785;3.2373739949991887;0.68798828125;0.00537109375;0.056640625;-118.4375;-34.5625;38.375;
1441975323168508;-0.6712646484375;0.02728271484375;-0.73236083984375;0.111328125;1.2297119031266042;5.86066574526426;3.4819972183737833;0.70849609375;-0.0732421875;0.04345703125;-112.25;-46.375;23.75;
1441975323184509;-0.68121337890625;0.037841796875;-0.7242431640625;0.1004638671875;1.1756551746596646;5.491660820144325;3.7634597528307645;0.67431640625;-0.07568359375;0.013671875;-102.75;-54.375;11.375;
1441975323207510;-0.69140625;0.04669189453125;-0.71527099609375;0.09063720703125;1.131241668464187;5.082382573114824;4.0965541586096;0.63623046875;-0.01806640625;-0.015625;-93.375;-60.3125;5.6875;
1441975323228511;-0.70111083984375;0.05328369140625;-0.70623779296875;0.0828857421875;1.1058367914881064;4.6680608805067765;4.452436803785354;0.63720703125;-0.03955078125;-0.08740234375;-82.0;-62.25;2.5625;
1441975323244512;-0.709716796875;0.0548095703125;-0.69805908203125;0.07769775390625;1.0794156322294841;4.295181955969682;4.797963608537125;0.68017578125;-0.18359375;-0.10302734375;-63.5;-62.5625;-7.3125;
1441975323267514;-0.7174072265625;0.05120849609375;-0.6907958984375;0.07501220703125;1.046621657235212;3.953150011784188;5.143691294191667;0.748046875;-0.1943359375;-0.1064453125;-32.375;-58.875;-17.25;
1441975323288515;-0.72479248046875;0.0447998046875;-0.68365478515625;0.0731201171875;1.0132501795292213;3.5960007956027686;5.519191003957435;0.7412109375;-0.12890625;-0.1171875;-1.1875;-54.6875;-24.125;
1441975323312516;-0.73236083984375;0.03802490234375;-0.67626953125;0.07049560546875;0.9910207031692292;3.199364463239142;5.932686134961114;0.7353515625;-0.03125;-0.15087890625;13.9375;-53.3125;-26.4375;
1441975323327517;-0.73980712890625;0.032470703125;-0.6688232421875;0.06610107421875;0.9854409392107562;2.780454467332231;6.356310463318451;0.802734375;0.0224609375;-0.20068359375;12.875;-52.875;-26.625;
1441975323348518;-0.746337890625;0.028076171875;-0.66229248046875;0.06048583984375;0.990490446433191;2.390846786630176;6.740955683799831;0.90966796875;0.02197265625;-0.22021484375;0.625;-52.3125;-28.5;
1441975323364519;-0.75164794921875;0.02386474609375;-0.6568603515625;0.0546875;0.998774828256959;2.045139653802371;7.080222184010205;0.99072265625;-0.04736328125;-0.2119140625;-9.125;-46.875;-33.1875;
1441975323387520;-0.75628662109375;0.019775390625;-0.652099609375;0.04937744140625;1.0145547191690203;1.738890628372138;7.381518308039721;1.001953125;-0.06494140625;-0.18994140625;-10.625;-40.0;-35.5;
1441975323409522;-0.7606201171875;0.0164794921875;-0.6475830078125;0.04400634765625;1.0401748168634235;1.463547868200129;7.648436814824511;0.99658203125;-0.04443359375;-0.201171875;-8.8125;-34.6875;-33.0;
1441975323424523;-0.76434326171875;0.01409912109375;-0.6435546875;0.03851318359375;1.0690613802465285;1.22650603485594;7.872839415432151;1.0205078125;-0.017578125;-0.2177734375;-11.625;-32.5;-28.3125;
1441975323446524;-0.7674560546875;0.01220703125;-0.64019775390625;0.03338623046875;1.096953245382584;1.0286621469133235;8.057537113649213;1.095703125;-0.0048828125;-0.2236328125;-15.375;-29.0625;-24.4375;
1441975323468525;-0.76983642578125;0.01043701171875;-0.6375732421875;0.028564453125;1.1190686103846148;0.8583771172858465;8.215415786173473;1.169921875;-0.02294921875;-0.22314453125;-15.625;-25.3125;-22.75;
1441975323492526;-0.7716064453125;0.009033203125;-0.6356201171875;0.02392578125;1.1356116483440564;0.7115192615115711;8.349114188859158;1.197265625;-0.017578125;-0.20751953125;-14.6875;-21.5625;-21.625;
1441975323506527;-0.77294921875;0.0086669921875;-0.6341552734375;0.0191650390625;1.148912240895244;0.5883231549549156;8.454422968202469;1.1669921875;0.0048828125;-0.19091796875;-14.875;-17.625;-18.625;
1441975323528529;-0.7738037109375;0.01007080078125;-0.63323974609375;0.01373291015625;1.1571180092974436;0.48803264556894743;8.526879682580713;1.14794921875;0.03076171875;-0.1962890625;-19.25;-13.4375;-13.1875;
1441975323552530;-0.7740478515625;0.01275634765625;-0.63299560546875;0.00811767578125;1.1573026946868088;0.4114547165214856;8.569656360269184;1.15771484375;0.02001953125;-0.20556640625;-28.5;-8.6875;-9.1875;
1441975323580531;-0.7738037109375;0.01556396484375;-0.63323974609375;0.0029296875;1.1507077596221897;0.3490375710085886;8.59951616334592;1.119140625;-0.0166015625;-0.19970703125;-34.5625;-3.25;-7.5625;
1441975323605533;-0.77301025390625;0.0181884765625;-0.63421630859375;-0.0015869140625;1.1344333391827992;0.3007902445844128;8.618698779033407;1.05908203125;-0.0498046875;-0.19677734375;-33.5;1.3125;-7.75;
1441975323612533;-0.771728515625;0.02069091796875;-0.6356201171875;-0.0057373046875;1.1112207733535888;0.259693347095304;8.632725089387137;1.0048828125;-0.04052734375;-0.18505859375;-29.6875;6.4375;-6.25;
1441975323634535;-0.7701416015625;0.02337646484375;-0.637451171875;-0.0096435546875;1.0824674449707337;0.228250592742255;8.637366731457934;0.95751953125;-0.033203125;-0.1708984375;-27.625;10.25;-5.0;
1441975323649535;-0.76824951171875;0.02587890625;-0.63958740234375;-0.0130615234375;1.049091945578246;0.20523400035177983;8.636327651442263;0.9208984375;-0.0380859375;-0.1591796875;-27.1875;13.0625;-3.5;
1441975323664536;-0.76605224609375;0.02783203125;-0.64202880859375;-0.01605224609375;1.0107407438762157;0.18202956631698336;8.639460094836418;0.90234375;-0.0361328125;-0.1533203125;-24.3125;15.5;-2.875;
1441975323686538;-0.7637939453125;0.02947998046875;-0.64459228515625;-0.01861572265625;0.9709911495128091;0.16258957994308953;8.64182413299733;0.89013671875;-0.02734375;-0.13818359375;-20.6875;17.875;-3.0625;
1441975323718539;-0.7615966796875;0.0313720703125;-0.64703369140625;-0.02130126953125;0.9328401463243392;0.1441130893725308;8.64173885044016;0.85546875;-0.02099609375;-0.14306640625;-17.1875;19.25;-2.3125;
1441975323731540;-0.759521484375;0.0340576171875;-0.64923095703125;-0.0245361328125;0.8978488702405988;0.12762268518077174;8.634206251124766;0.83056640625;0.009765625;-0.14306640625;-18.5625;19.8125;0.0625;
1441975323746541;-0.75762939453125;0.03765869140625;-0.65106201171875;-0.0283203125;0.8675916234936458;0.1163182074690674;8.61552101826504;0.8427734375;0.04296875;-0.14794921875;-23.1875;18.4375;3.5;
1441975323770542;-0.75579833984375;0.04180908203125;-0.65277099609375;-0.031982421875;0.8393066931182442;0.12247482627011924;8.577640731652377;0.8603515625;0.0361328125;-0.142578125;-29.375;16.0625;5.1875;
1441975323790544;-0.75396728515625;0.046142578125;-0.6544189453125;-0.0355224609375;0.8118317129848348;0.13854420943653858;8.529598770077694;0.875;0.0048828125;-0.15380859375;-31.25;16.125;5.9375;
1441975323815545;-0.75238037109375;0.05047607421875;-0.65570068359375;-0.03875732421875;0.7897120821704104;0.16425541263565646;8.47313270073319;0.89208984375;-0.0048828125;-0.14453125;-31.375;15.0;6.375;
1441975323829546;-0.75140380859375;0.05499267578125;-0.65631103515625;-0.04180908203125;0.778442315516978;0.19796848785429172;8.40865534675161;0.9013671875;-0.00244140625;-0.14794921875;-30.375;12.9375;7.4375;
1441975323858547;-0.7506103515625;0.0595703125;-0.6566162109375;-0.044921875;0.7713468149254705;0.23056559572302876;8.344769719360194;0.9140625;-0.013671875;-0.1748046875;-30.125;9.875;8.0625;
1441975323866548;-0.7501220703125;0.063720703125;-0.656494140625;-0.04791259765625;0.7699603221576101;0.25228807455310476;8.293946439357102;0.92041015625;-0.03564453125;-0.1669921875;-30.75;6.9375;6.5;
1441975323889549;-0.75006103515625;0.0677490234375;-0.656005859375;-0.0506591796875;0.7751486905359214;0.2742323807963692;8.244402131490025;0.91748046875;-0.03955078125;-0.16552734375;-29.125;4.25;4.8125;
1441975323910550;-0.7503662109375;0.071533203125;-0.655029296875;-0.05328369140625;0.7871177918120101;0.28806337414551014;8.204409254567725;0.91552734375;-0.046875;-0.17529296875;-27.375;1.6875;4.1875;
1441975323934552;-0.7510986328125;0.0750732421875;-0.65362548828125;-0.0555419921875;0.8061354826861312;0.30091898027517633;8.167856047971734;0.9033203125;-0.05712890625;-0.1796875;-26.3125;-1.6875;3.0;
1441975323949553;-0.752197265625;0.07830810546875;-0.65179443359375;-0.0572509765625;0.8319596315772362;0.31649020203190886;8.132013533070294;0.87890625;-0.06884765625;-0.1865234375;-23.625;-4.4375;2.25;
1441975323978554;-0.75384521484375;0.08135986328125;-0.6494140625;-0.05853271484375;0.8669670458225618;0.33185125071165605;8.098841358527263;0.84521484375;-0.08642578125;-0.1884765625;-20.75;-7.9375;1.4375;
1441975323994555;-0.75604248046875;0.0845947265625;-0.64642333984375;-0.05877685546875;0.9134633606046759;0.37079988604275654;8.045503261795997;0.83984375;-0.0634765625;-0.1982421875;-17.6875;-12.0625;3.375;
1441975324000556;-0.75848388671875;0.08795166015625;-0.64312744140625;-0.05865478515625;0.9654892791281335;0.4139346991011699;7.988931429320812;0.861328125;-0.06494140625;-0.2236328125;-14.125;-16.0;7.8125;
1441975324031557;-0.76129150390625;0.09124755859375;-0.63934326171875;-0.05853271484375;1.0243915496042497;0.4456594631628843;7.943953893544306;0.90673828125;-0.06982421875;-0.22412109375;-13.25;-19.875;9.1875;
1441975324046558;-0.764404296875;0.0950927734375;-0.635009765625;-0.05877685546875;1.0905944456626893;0.4701347320820447;7.902402079657106;1.02880859375;-0.02783203125;-0.2265625;-12.5625;-24.6875;12.3125;
1441975324069559;-0.76800537109375;0.09918212890625;-0.62982177734375;-0.06060791015625;1.1644808093870833;0.4537912487171717;7.894073349275542;1.16845703125;-0.03564453125;-0.248046875;-16.1875;-29.875;12.75;
1441975324082560;-0.771728515625;0.1036376953125;-0.624267578125;-0.0638427734375;1.2399601351776146;0.41306543759527725;7.90281526974446;1.2109375;-0.05712890625;-0.25146484375;-25.0;-35.8125;6.4375;
1441975324106562;-0.7752685546875;0.10821533203125;-0.61865234375;-0.06787109375;1.313280552312745;0.362278863361547;7.91774838504221;1.16650390625;-0.10009765625;-0.265625;-32.875;-36.75;-0.375;
1441975324121562;-0.77880859375;0.11248779296875;-0.61297607421875;-0.07196044921875;1.3865623261533548;0.3091979684697382;7.935880679893762;1.15087890625;-0.123046875;-0.3046875;-37.75;-34.4375;-4.8125;
1441975324142564;-0.78216552734375;0.1158447265625;-0.607666015625;-0.07489013671875;1.456228801166724;0.26969470379395893;7.948882475624225;1.17236328125;-0.099609375;-0.37255859375;-36.25;-30.8125;-4.5;
1441975324165565;-0.7855224609375;0.1177978515625;-0.60272216796875;-0.0767822265625;1.522435029215758;0.23337430850802185;7.968750541166629;1.23974609375;-0.0478515625;-0.431640625;-27.1875;-27.5625;-1.0625;
1441975324180566;-0.788818359375;0.118408203125;-0.5980224609375;-0.07867431640625;1.5841398765946484;0.18379045782826836;8.007400730528175;1.26806640625;0.005859375;-0.4873046875;-16.3125;-23.6875;0.125;
1441975324211568;-0.79205322265625;0.1182861328125;-0.59344482421875;-0.0809326171875;1.6430782701809883;0.12345758110068122;8.058303049388885;1.130859375;0.01318359375;-0.4619140625;-11.5625;-21.5625;-5.6875;
1441975324225568;-0.79534912109375;0.11785888671875;-0.58880615234375;-0.08343505859375;1.7028250122848005;0.05939794295304845;8.113165722150487;0.919921875;-0.041015625;-0.376953125;-11.8125;-23.3125;-14.5;
1441975324249570;-0.7987060546875;0.11773681640625;-0.5838623046875;-0.08624267578125;1.7663260906662694;17.997348032905375;8.163383797590571;0.763671875;-0.08837890625;-0.31005859375;-13.5;-25.375;-20.375;
1441975324262571;-0.80194091796875;0.1181640625;-0.57904052734375;-0.0875244140625;1.8308723085109349;17.967760026217206;8.185083342939823;0.662109375;-0.0517578125;-0.2841796875;-14.875;-26.875;-18.1875;
1441975324285572;-0.8050537109375;0.11834716796875;-0.57476806640625;-0.08721923828125;1.8914375440712559;17.96122214955525;8.19141544595568;0.673828125;-0.02197265625;-0.31005859375;-9.625;-26.5;-8.625;
1441975324309573;-0.80804443359375;0.11767578125;-0.5709228515625;-0.0860595703125;1.947588077309295;17.959514259353423;8.200049922494276;0.748046875;0.01171875;-0.32958984375;-0.4375;-25.3125;-2.0;
1441975324322574;-0.81085205078125;0.11688232421875;-0.567138671875;-0.08526611328125;2.00142088528906;17.95229419334441;8.213141088095952;0.8046875;0.07275390625;-0.3505859375;7.9375;-23.8125;1.5;
1441975324345575;-0.8133544921875;0.11700439453125;-0.56341552734375;-0.08624267578125;2.0513240987661994;17.930940426056655;8.229290251584361;0.8603515625;0.1201171875;-0.3857421875;7.875;-22.25;2.75;
1441975324361576;-0.81549072265625;0.118896484375;-0.5594482421875;-0.08917236328125;2.100245474686169;17.90083042874367;8.238644527059707;0.91259765625;0.13623046875;-0.3984375;-3.125;-21.125;2.625;
1441975324382577;-0.8170166015625;0.12249755859375;-0.5557861328125;-0.093017578125;2.1425306207751014;17.87583099171217;8.231969462811506;0.9365234375;0.109375;-0.4248046875;-19.125;-19.9375;2.1875;
1441975324405579;-0.8179931640625;0.12646484375;-0.5528564453125;-0.09637451171875;2.1751437062284817;17.86208971045247;8.214610994844895;0.93603515625;0.02783203125;-0.4267578125;-31.0;-17.125;2.25;
1441975324420580;-0.81884765625;0.129150390625;-0.55072021484375;-0.0980224609375;2.200587111031506;17.860201423753974;8.197997422535359;0.9501953125;-0.0576171875;-0.42333984375;-31.875;-13.75;0.625;
1441975324442581;-0.81988525390625;0.129638671875;-0.54913330078125;-0.097412109375;2.223208071235052;17.86855054600612;8.18977438027549;0.94482421875;-0.11962890625;-0.4091796875;-20.9375;-11.1875;-3.375;
1441975324468582;-0.8214111328125;0.1279296875;-0.547607421875;-0.0958251953125;2.2480254087543954;17.870257603846948;8.201497159870703;0.9404296875;-0.15673828125;-0.39892578125;-3.875;-10.6875;-9.0;
1441975324521585;-0.82318115234375;0.12481689453125;-0.5460205078125;-0.09356689453125;2.2748193469706073;17.86853877598809;8.22524284667171;0.9169921875;-0.138671875;-0.3818359375;8.375;-12.0;-14.9375;
1441975324527586;-0.82513427734375;0.12060546875;-0.54437255859375;-0.09112548828125;2.3029027080983706;17.86027647268644;8.260867177775594;0.89453125;-0.10595703125;-0.3779296875;16.75;-12.9375;-17.875;
1441975324530586;-0.8272705078125;0.1153564453125;-0.542724609375;-0.08856201171875;2.3318015352882075;17.8456665725726;8.307723726409712;0.89306640625;-0.0966796875;-0.36962890625;21.4375;-13.8125;-21.875;
1441975324540586;-0.82958984375;0.10931396484375;-0.54083251953125;-0.0859375;2.3640819613661064;17.82598217060365;8.363151228457514;0.89306640625;-0.07177734375;-0.36328125;25.75;-14.75;-25.25;
1441975324564588;-0.83203125;0.1029052734375;-0.53875732421875;-0.08349609375;2.398921150137033;17.802136270664086;8.423498878440979;0.8779296875;-0.05810546875;-0.3720703125;29.125;-15.6875;-28.0625;
1441975324585589;-0.83441162109375;0.09637451171875;-0.53656005859375;-0.08148193359375;2.4346555850847627;17.773534724825126;8.487294202213949;0.85009765625;-0.04443359375;-0.369140625;29.1875;-16.375;-30.3125;
1441975324600590;-0.836669921875;0.08984375;-0.534423828125;-0.07958984375;2.469494140253703;17.744920669149476;8.550615325795535;0.8134765625;-0.03369140625;-0.359375;27.875;-16.3125;-31.375;
1441975324631592;-0.8387451171875;0.0831298828125;-0.53253173828125;-0.07781982421875;2.5013274023306535;17.71495844317045;8.615611557542191;0.7998046875;-0.04150390625;-0.36083984375;27.0;-15.5625;-32.375;
1441975324645592;-0.84033203125;0.07623291015625;-0.53131103515625;-0.07598876953125;2.524272308612233;17.68563149818808;8.681104872267298;0.783203125;-0.041015625;-0.369140625;26.6875;-13.0625;-33.375;
1441975324660593;-0.84130859375;0.06915283203125;-0.5311279296875;-0.07373046875;2.534078712085297;17.66054424553613;8.745095043097683;0.7646484375;-0.025390625;-0.3544921875;27.8125;-8.75;-33.1875;
1441975324691595;-0.8414306640625;0.06182861328125;-0.53216552734375;-0.07110595703125;2.52739042324217;17.637698536436663;8.809523039135644;0.80224609375;0.00634765625;-0.36962890625;31.875;-2.0625;-30.3125;
1441975324714596;-0.8408203125;0.05450439453125;-0.53424072265625;-0.0687255859375;2.5066752307127667;17.611155167781163;8.876740552632624;0.8564453125;0.0556640625;-0.39453125;35.4375;6.125;-26.5625;
1441975324720597;-0.8394775390625;0.0474853515625;-0.53729248046875;-0.06646728515625;2.4724272456441554;17.58370881143214;8.943143391236555;0.8701171875;0.11474609375;-0.40283203125;36.125;13.8125;-23.1875;
1441975324744598;-0.83740234375;0.041259765625;-0.54132080078125;-0.0640869140625;2.4241672280079647;17.561097191041547;9.001961237533623;0.85693359375;0.1484375;-0.392578125;35.375;21.0625;-19.25;
1441975324765599;-0.83453369140625;0.0362548828125;-0.54632568359375;-0.0616455078125;2.360980457063709;17.545498000313394;9.04896403534891;0.84814453125;0.17138671875;-0.38671875;34.1875;28.0;-13.25;
1441975324781600;-0.8311767578125;0.032470703125;-0.552001953125;-0.05926513671875;2.2875232633300757;17.536162965569318;9.08439292476477;0.8701171875;0.185546875;-0.36328125;30.9375;33.1875;-6.125;
1441975324802601;-0.8272705078125;0.0299072265625;-0.55828857421875;-0.0565185546875;2.203549331289481;17.539032497133256;9.104041164597188;0.88818359375;0.203125;-0.32568359375;27.4375;35.5;1.3125;
1441975324826603;-0.82281494140625;0.02886962890625;-0.56512451171875;-0.0538330078125;2.1095688637966123;17.55283956355191;9.106157389760883;0.95068359375;0.22216796875;-0.2822265625;25.3125;36.3125;9.75;
1441975324840604;-0.81793212890625;0.029541015625;-0.572265625;-0.05157470703125;2.0088280584620595;17.57677797929119;9.08928931126845;1.0751953125;0.255859375;-0.26513671875;21.5;37.0;19.1875;
1441975324879606;-0.81304931640625;0.03216552734375;-0.57916259765625;-0.05023193359375;1.9095850200146642;17.609796304079183;9.051496206678546;1.22119140625;0.291015625;-0.271484375;14.4375;37.375;28.5;
1441975324885606;-0.80841064453125;0.0367431640625;-0.5853271484375;-0.050537109375;1.8186528137708322;17.64391825030544;8.997745373165639;1.3427734375;0.2958984375;-0.29052734375;3.375;36.0;35.0625;
1441975324901607;-0.80419921875;0.042724609375;-0.590576171875;-0.05230712890625;1.7392984543295003;17.67669127944223;8.933531600233525;1.32568359375;0.23193359375;-0.26611328125;-12.4375;31.6875;35.0625;
1441975324931609;-0.80035400390625;0.048583984375;-0.59515380859375;-0.054443359375;1.6691977355544052;17.707101598953187;8.870661998664499;1.22509765625;0.1044921875;-0.19482421875;-26.4375;24.5;28.4375;
1441975324945610;-0.79669189453125;0.05303955078125;-0.5994873046875;-0.05645751953125;1.6033016989534135;17.726136518588053;8.825432167762322;1.12353515625;-0.021484375;-0.17236328125;-30.5625;21.75;18.1875;
1441975324961610;-0.79315185546875;0.05517578125;-0.60382080078125;-0.057861328125;1.5388330694600991;17.728064761385678;8.80932992081105;1.0419921875;-0.1083984375;-0.20263671875;-26.8125;25.0625;6.8125;
1441975324982612;-0.7901611328125;0.05450439453125;-0.6077880859375;-0.05792236328125;1.4820647030013274;17.716416381751692;8.823785460192932;0.96875;-0.13232421875;-0.23486328125;-16.75;29.25;-3.25;
1441975325008613;-0.7880859375;0.05126953125;-0.61090087890625;-0.05645751953125;1.4400374551127506;17.695978128429985;8.86369256917892;0.92333984375;-0.11181640625;-0.25830078125;-0.125;29.6875;-10.1875;
1441975325020614;-0.78680419921875;0.0462646484375;-0.61309814453125;-0.05487060546875;1.4127445156069767;17.65157876758297;8.935208592582384;0.9130859375;-0.05419921875;-0.2802734375;16.625;25.375;-13.375;
1441975325042615;-0.7861328125;0.04052734375;-0.61444091796875;-0.05340576171875;1.3985447875124972;17.593669824354233;9.02263579290599;0.9296875;0.0263671875;-0.28466796875;24.625;18.75;-15.875;
1441975325065616;-0.786376953125;0.03460693359375;-0.6146240234375;-0.05230712890625;1.4024977581978382;17.528308678007495;9.116699761046098;0.9560546875;0.08251953125;-0.26123046875;27.75;11.625;-16.8125;
1441975325081617;-0.78729248046875;0.02923583984375;-0.61376953125;-0.05224609375;1.4218941294518872;17.455893324497207;9.211265012072218;0.97509765625;0.12109375;-0.267578125;27.0625;3.25;-17.375;
1441975325111619;-0.78863525390625;0.0245361328125;-0.6121826171875;-0.05303955078125;1.4520927920532434;17.38271042545722;9.300315902056486;0.99267578125;0.142578125;-0.25537109375;21.0;-4.9375;-17.8125;
1441975325125620;-0.79022216796875;0.020751953125;-0.610107421875;-0.05462646484375;1.4891448085067869;17.313374639083094;9.37850496670172;1.00146484375;0.15869140625;-0.248046875;14.8125;-10.625;-17.625;
1441975325141621;-0.7919921875;0.0181884765625;-0.607666015625;-0.05694580078125;1.5307105773101033;17.252648558485845;9.44008005558158;1.01025390625;0.15771484375;-0.2529296875;8.125;-14.3125;-17.125;
1441975325162622;-0.79412841796875;0.0169677734375;-0.6046142578125;-0.0599365234375;1.5795149854129666;17.20391177323663;9.481387045149564;0.99462890625;0.142578125;-0.25537109375;-0.0625;-16.8125;-15.75;
1441975325185623;-0.79656982421875;0.01715087890625;-0.60101318359375;-0.06365966796875;1.6342253587776268;17.165637864026113;9.503436990951;0.9580078125;0.12109375;-0.271484375;-8.125;-19.8125;-14.0625;
1441975325200624;-0.7991943359375;0.01885986328125;-0.59698486328125;-0.0679931640625;1.6922221387595848;17.139158325171994;9.504876790531144;0.91357421875;0.11767578125;-0.28564453125;-16.5;-22.6875;-10.9375;
1441975325222625;-0.80181884765625;0.02166748046875;-0.5928955078125;-0.07232666015625;1.7485863077453385;17.125730992001873;9.488717917415098;0.892578125;0.10791015625;-0.3095703125;-25.0625;-24.25;-6.8125;
1441975325245627;-0.8043212890625;0.02423095703125;-0.5888671875;-0.07568359375;1.8022930612025467;17.123335711027796;9.466461516591119;0.87548828125;0.08203125;-0.3232421875;-29.25;-24.25;-4.125;
1441975325260628;-0.80682373046875;0.0257568359375;-0.585205078125;-0.0772705078125;1.8516036095311932;17.134074760761692;9.442637400594245;0.83935546875;0.0634765625;-0.33056640625;-24.4375;-22.875;-2.9375;
1441975325291629;-0.80926513671875;0.0260009765625;-0.5819091796875;-0.07696533203125;1.896472188302047;17.156620334689016;9.420082783212006;0.7958984375;0.05126953125;-0.3349609375;-13.0625;-20.5625;-2.125;
1441975325305630;-0.8115234375;0.02520751953125;-0.57904052734375;-0.0748291015625;1.9353027982270004;17.19183655413073;9.396688735393424;0.76123046875;0.0634765625;-0.337890625;0.5;-17.875;-0.3125;
1441975325320631;-0.81341552734375;0.02386474609375;-0.57684326171875;-0.071533203125;1.9649735356608682;17.234111767352037;9.373346552673388;0.7392578125;0.0888671875;-0.3427734375;12.5625;-14.375;2.875;
1441975325350633;-0.81494140625;0.02252197265625;-0.57525634765625;-0.06744384765625;1.9857667407083988;17.284102512949193;9.34562757485591;0.75048828125;0.12548828125;-0.34716796875;21.125;-10.6875;7.25;
1441975325382635;-0.8157958984375;0.021240234375;-0.5745849609375;-0.06256103515625;1.992962237770078;17.341504705859677;9.31357846592666;0.79248046875;0.15625;-0.35205078125;25.5;-7.4375;11.875;
1441975325384635;-0.81597900390625;0.02032470703125;-0.574951171875;-0.05694580078125;1.9852963239792625;17.409051176995607;9.272979735741037;0.87158203125;0.19287109375;-0.35400390625;29.75;-3.3125;17.6875;
1441975325404636;-0.8154296875;0.0205078125;-0.57635498046875;-0.051025390625;1.9623499355221568;17.489168990505394;9.216608239810364;0.99755859375;0.24072265625;-0.38427734375;33.125;2.875;25.6875;
1441975325425637;-0.81427001953125;0.0218505859375;-0.57843017578125;-0.04541015625;1.929438908043956;17.576515817274135;9.146987873510522;1.17041015625;0.2861328125;-0.41796875;32.0625;7.9375;35.0;
1441975325440638;-0.8128662109375;0.02423095703125;-0.58062744140625;-0.04022216796875;1.8947936424277139;17.67064032779922;9.064538804989143;1.29345703125;0.2978515625;-0.400390625;27.125;9.1875;40.8125;
1441975325479640;-0.81170654296875;0.027587890625;-0.5823974609375;-0.03594970703125;1.867445991867048;17.76510582221061;8.97394386735581;1.35107421875;0.263671875;-0.35791015625;21.375;6.5625;43.5625;
1441975325485640;-0.8109130859375;0.0308837890625;-0.58349609375;-0.03314208984375;1.8507596023474404;17.84010524002057;8.896999339968716;1.29150390625;0.146484375;-0.30029296875;11.4375;1.875;37.6875;
1441975325503641;-0.81060791015625;0.03326416015625;-0.5838623046875;-0.03179931640625;1.8451967442043682;17.884938087337364;8.847923832191118;1.07470703125;-0.00830078125;-0.20361328125;1.625;-3.75;23.0625;
1441975325530643;-0.8111572265625;0.0347900390625;-0.5830078125;-0.031982421875;1.8568153126577744;17.89815035043528;8.827645459440427;0.853515625;-0.14453125;-0.14892578125;-5.0;-7.375;5.4375;
1441975325545644;-0.81256103515625;0.03570556640625;-0.5809326171875;-0.0325927734375;1.8854440334908156;17.898199173283942;8.821205527299476;0.73779296875;-0.18896484375;-0.17236328125;-10.3125;-10.875;-7.0;
1441975325560645;-0.81463623046875;0.03497314453125;-0.578125;-0.03192138671875;1.9255238115542692;17.8994723831558;8.825546447615015;0.74169921875;-0.19775390625;-0.22509765625;-10.5;-16.4375;-12.25;
1441975325582646;-0.81671142578125;0.031494140625;-0.575439453125;-0.029541015625;1.9646523745053512;17.89767161726384;8.851291022868713;0.8212890625;-0.18798828125;-0.26171875;0.8125;-21.5;-15.125;
1441975325613648;-0.81915283203125;0.025390625;-0.572509765625;-0.0262451171875;2.0086817213458596;17.88382966042708;8.903679640727127;0.90234375;-0.12255859375;-0.271484375;19.375;-22.5625;-18.25;
1441975325628649;-0.8218994140625;0.01806640625;-0.56890869140625;-0.0242919921875;2.061574017293717;17.842294666337427;8.98325945016613;0.96875;-0.0244140625;-0.3349609375;34.3125;-22.625;-21.375;
1441975325642649;-0.8248291015625;0.0118408203125;-0.56475830078125;-0.02459716796875;2.1219102956012184;17.78449224940893;9.06530024120525;1.015625;0.11572265625;-0.404296875;35.3125;-23.6875;-22.625;
1441975325665651;-0.82794189453125;0.00787353515625;-0.56011962890625;-0.02764892578125;2.1892718728882445;17.715555616424474;9.13784836368469;1.0185546875;0.18017578125;-0.45361328125;22.5;-24.375;-21.1875;
1441975325688652;-0.8309326171875;0.0062255859375;-0.555419921875;-0.03289794921875;2.257377174443435;17.642697309671668;9.195654148935446;0.97412109375;0.1552734375;-0.46875;1.4375;-26.1875;-21.875;
1441975325710653;-0.83367919921875;0.0062255859375;-0.55096435546875;-0.03887939453125;2.3217231040299358;17.57728615935126;9.236137918074949;0.92529296875;0.08349609375;-0.44970703125;-18.6875;-26.875;-23.25;
1441975325725654;-0.836181640625;0.00714111328125;-0.54669189453125;-0.04437255859375;2.3820203159144127;17.526901868708084;9.259763229579352;0.88232421875;-0.0078125;-0.41357421875;-30.125;-27.3125;-23.875;
1441975325748656;-0.83856201171875;0.0084228515625;-0.542724609375;-0.04852294921875;2.437183511332324;17.49599782123194;9.267924641985765;0.8330078125;-0.07763671875;-0.38671875;-32.625;-26.875;-23.1875;
1441975325762656;-0.8406982421875;0.0098876953125;-0.53912353515625;-0.05078125;2.4852866600869143;17.488009491523044;9.260230670278062;0.81982421875;-0.11669921875;-0.38330078125;-28.6875;-25.5;-19.375;
1441975325785658;-0.8426513671875;0.0108642578125;-0.5360107421875;-0.05157470703125;2.5267041173812608;17.492217672654675;9.248469609246648;0.84619140625;-0.13525390625;-0.40087890625;-21.0;-23.25;-14.5;
1441975325809659;-0.84454345703125;0.01153564453125;-0.532958984375;-0.051513671875;2.5667174003121387;17.503396817970575;9.234539019059;0.8828125;-0.119140625;-0.416015625;-12.0625;-21.0625;-10.625;
1441975325822660;-0.846435546875;0.01226806640625;-0.52996826171875;-0.05072021484375;2.6054819123532265;17.522603897006153;9.21537659531407;0.92626953125;-0.0771484375;-0.44677734375;-6.0625;-20.1875;-7.6875;
1441975325845661;-0.84832763671875;0.013427734375;-0.52703857421875;-0.0501708984375;2.6435442437539827;17.54141794828044;9.193827884767812;0.96240234375;-0.0869140625;-0.48095703125;-3.25;-19.5625;-5.5625;
1441975325868662;-0.84991455078125;0.01531982421875;-0.52447509765625;-0.04986572265625;2.675854283935072;17.56126126454815;9.167195654547337;0.96875;-0.08349609375;-0.51318359375;-5.5625;-17.875;-3.75;
1441975325890664;-0.85125732421875;0.0184326171875;-0.5220947265625;-0.04986572265625;2.7042537982957615;17.58490454478061;9.130391662785577;0.96044921875;-0.08251953125;-0.54150390625;-9.25;-14.0;-0.5;
1441975325905664;-0.85235595703125;0.022705078125;-0.52008056640625;-0.050537109375;2.72739640542277;17.60785957640166;9.08666245660386;0.91650390625;-0.095703125;-0.57373046875;-14.8125;-9.6875;4.125;
1441975325928666;-0.8531494140625;0.02789306640625;-0.51849365234375;-0.051025390625;2.7441782273265827;17.637646259647763;9.033061445926563;0.849609375;-0.09619140625;-0.564453125;-21.5;-6.25;8.375;
1441975325942667;-0.85333251953125;0.03350830078125;-0.517822265625;-0.051025390625;2.7485105455913;17.674169046773244;8.97304064150529;0.80517578125;-0.08984375;-0.5576171875;-23.1875;-2.6875;14.25;
1441975325965668;-0.85302734375;0.0391845703125;-0.51800537109375;-0.0504150390625;2.742168387370982;17.71705008066566;8.909042743466172;0.7998046875;-0.0634765625;-0.5703125;-20.8125;4.25;20.25;
1441975325988669;-0.85260009765625;0.04486083984375;-0.5184326171875;-0.04931640625;2.733607060571641;17.76532924453696;8.841719090629962;0.79052734375;-0.0458984375;-0.57763671875;-17.1875;10.4375;24.25;
1441975326002670;-0.85186767578125;0.05029296875;-0.5191650390625;-0.04779052734375;2.721391047104507;17.816949211222806;8.77385468431287;0.7666015625;-0.01318359375;-0.57763671875;-13.6875;13.0625;28.3125;
1441975326034672;-0.8507080078125;0.0562744140625;-0.5206298828125;-0.046630859375;2.700505992115228;17.86910202610157;8.701754415936763;0.76953125;0.029296875;-0.56396484375;-9.0625;14.375;31.75;
1441975326064674;-0.84893798828125;0.06292724609375;-0.52276611328125;-0.04644775390625;2.6702635883932344;17.916671274656945;8.627436292539846;0.80029296875;0.06494140625;-0.55810546875;-10.9375;18.0;36.375;
1441975326067674;-0.8468017578125;0.07025146484375;-0.5252685546875;-0.047119140625;2.6350521025127653;17.961282690103303;8.54978399597114;0.8154296875;0.07666015625;-0.54345703125;-16.625;22.4375;38.125;
1441975326085675;-0.84442138671875;0.07806396484375;-0.52789306640625;-0.04803466796875;2.5983509109209884;0.008472474170981473;8.466524839438165;0.81591796875;0.06494140625;-0.5048828125;-23.1875;23.0625;38.75;
1441975326108676;-0.84197998046875;0.0858154296875;-0.53045654296875;-0.0487060546875;2.5633324729468456;0.05975692663668685;8.38043780464019;0.8349609375;0.03857421875;-0.46630859375;-26.625;21.8125;39.3125;
1441975326122677;-0.83966064453125;0.09283447265625;-0.532958984375;-0.048828125;2.531039613911074;0.11364054215622835;8.29711875394516;0.85888671875;0.00537109375;-0.443359375;-25.625;19.9375;38.125;
1441975326145678;-0.83746337890625;0.09832763671875;-0.53546142578125;-0.048095703125;2.500433278836684;0.16779609942096865;8.223441751433507;0.8681640625;-0.033203125;-0.42529296875;-21.625;18.125;34.125;
1441975326169680;-0.83563232421875;0.10205078125;-0.53778076171875;-0.0469970703125;2.47334774012506;0.21392130375107743;8.166707708159285;0.875;-0.05908203125;-0.41259765625;-13.8125;17.1875;28.375;
1441975326182680;-0.834228515625;0.104248046875;-0.53961181640625;-0.046142578125;2.4517424152391145;0.24548855554154458;8.129797289645522;0.87841796875;-0.04736328125;-0.412109375;-5.6875;15.5625;21.6875;
1441975326205682;-0.83319091796875;0.10577392578125;-0.54083251953125;-0.04620361328125;2.43587832788487;0.2602555755787135;8.108574701813504;0.880859375;-0.03125;-0.4150390625;-2.0;13.0;14.75;
1441975326228683;-0.83251953125;0.1068115234375;-0.54156494140625;-0.04742431640625;2.4241629616068385;0.25659196803434325;8.102965065420534;0.86767578125;-0.03271484375;-0.41259765625;-4.3125;9.8125;8.125;
1441975326242684;-0.83203125;0.10736083984375;-0.5421142578125;-0.04925537109375;2.413535202709631;0.24154912514308474;8.108236398493103;0.86669921875;-0.0322265625;-0.3984375;-8.625;6.6875;2.125;
1441975326265685;-0.83172607421875;0.10699462890625;-0.54241943359375;-0.05157470703125;2.404319883387263;0.2130875298000691;8.12866004800329;0.88330078125;-0.0458984375;-0.38916015625;-10.6875;4.75;-3.4375;
1441975326281686;-0.83160400390625;0.1055908203125;-0.5426025390625;-0.05419921875;2.395804275009398;0.17253741784062404;8.164216959795121;0.88671875;-0.05126953125;-0.384765625;-10.5625;3.375;-10.0;
1441975326302687;-0.83160400390625;0.10369873046875;-0.54266357421875;-0.05718994140625;2.3885476782957316;0.12333639398286063;8.208928286288732;0.875;-0.02001953125;-0.388671875;-7.9375;3.1875;-14.5;
1441975326325689;-0.8316650390625;0.10174560546875;-0.5426025390625;-0.060791015625;2.3825944850927083;0.06594579571554263;8.259542113268935;0.87939453125;9.765625E-4;-0.4033203125;-7.875;3.5;-17.1875;
1441975326348690;-0.8316650390625;0.10015869140625;-0.5423583984375;-0.06500244140625;2.37840177215791;0.0037169945860652336;8.310861591135508;0.9150390625;0.033203125;-0.42236328125;-10.125;3.4375;-17.9375;
1441975326362691;-0.831787109375;0.09930419921875;-0.54168701171875;-0.07012939453125;2.379469042697392;17.935513165591846;8.361231501642436;0.96533203125;0.05322265625;-0.4501953125;-13.75;3.3125;-17.3125;
1441975326385692;-0.83197021484375;0.098876953125;-0.54071044921875;-0.07586669921875;2.3844687374271567;17.863116927426614;8.411404075370806;0.9765625;0.0380859375;-0.44580078125;-21.1875;0.9375;-18.5625;
1441975326407693;-0.8323974609375;0.09893798828125;-0.53912353515625;-0.08172607421875;2.397895249006838;17.79273347098326;8.4568563159959;0.9375;0.0185546875;-0.3974609375;-26.5625;-3.125;-20.4375;
1441975326422694;-0.83294677734375;0.099365234375;-0.537353515625;-0.08770751953125;2.4147015946988377;17.724227324585538;8.498379185097072;0.90185546875;-0.013671875;-0.3720703125;-30.0;-7.25;-21.625;
1441975326445695;-0.8333740234375;0.10009765625;-0.53564453125;-0.0931396484375;2.431165582674236;17.665226729852673;8.531349523706792;0.90283203125;-0.01806640625;-0.3701171875;-32.0625;-9.1875;-21.0;
1441975326467697;-0.833740234375;0.10064697265625;-0.53399658203125;-0.09814453125;2.447379639766665;17.610433642646896;8.562600769812668;0.9326171875;-0.025390625;-0.3828125;-31.0625;-9.0625;-19.3125;
1441975326490698;-0.8343505859375;0.10113525390625;-0.5321044921875;-0.10296630859375;2.468004276741302;17.557883812913044;8.592594078615178;0.96728515625;-0.00634765625;-0.40576171875;-28.0625;-8.5;-18.0625;
1441975326505699;-0.8349609375;0.102294921875;-0.52978515625;-0.1085205078125;2.492832090029669;17.502506238466456;8.619373418656636;1.0048828125;0.02978515625;-0.451171875;-26.5625;-8.5625;-16.375;
1441975326527700;-0.83544921875;0.10455322265625;-0.52728271484375;-0.1148681640625;2.518490093076434;17.446794803342733;8.638503517558219;1.03515625;0.0537109375;-0.47705078125;-31.875;-10.375;-15.0;
1441975326542701;-0.83563232421875;0.1077880859375;-0.52484130859375;-0.121337890625;2.5413636586754094;17.397188877672722;8.646827785503872;1.03759765625;0.04345703125;-0.4765625;-39.9375;-11.4375;-13.375;
1441975326565702;-0.83575439453125;0.11126708984375;-0.52264404296875;-0.1270751953125;2.561375310090473;17.357901053666716;8.646926737274992;1.017578125;0.00634765625;-0.4599609375;-44.9375;-11.5;-11.875;
1441975326587703;-0.8358154296875;0.1143798828125;-0.5206298828125;-0.131591796875;2.5793780303106466;17.329808799439718;8.642383883953459;0.9814453125;-0.01953125;-0.4375;-42.625;-11.0;-10.3125;
1441975326610705;-0.8360595703125;0.1171875;-0.51885986328125;-0.13494873046875;2.5962004896614763;17.312678671034924;8.633165095119505;0.93359375;-0.0224609375;-0.41845703125;-36.0;-10.625;-8.0;
1441975326625706;-0.8363037109375;0.11968994140625;-0.51715087890625;-0.13751220703125;2.612540202052469;17.302197366910676;8.621818892258124;0.8984375;0.001953125;-0.4072265625;-28.3125;-10.3125;-4.6875;
1441975326647707;-0.83660888671875;0.12200927734375;-0.5155029296875;-0.1395263671875;2.6287210163251746;17.296504347063554;8.60875687819636;0.8720703125;0.03857421875;-0.40576171875;-22.375;-9.9375;-1.25;
1441975326662708;-0.8369140625;0.12420654296875;-0.51416015625;-0.14105224609375;2.641987064319858;17.295226772106183;8.594003225567462;0.84375;0.05419921875;-0.39501953125;-18.9375;-9.75;0.8125;
1441975326688709;-0.8369140625;0.12615966796875;-0.513427734375;-0.141845703125;2.647642885050315;17.299906451243782;8.577519478449016;0.82275390625;0.0615234375;-0.38525390625;-15.5;-8.5;2.1875;
1441975326707710;-0.83673095703125;0.1279296875;-0.51336669921875;-0.141845703125;2.6458457833087614;17.311791037294128;8.55821199036794;0.828125;0.07275390625;-0.38818359375;-10.8125;-5.75;5.0;
1441975326722711;-0.836181640625;0.129150390625;-0.51409912109375;-0.1412353515625;2.634608319872581;17.326390776931362;8.541271296611944;0.84375;0.09033203125;-0.39306640625;-5.625;-2.0625;8.0;
1441975326745713;-0.83551025390625;0.12969970703125;-0.51531982421875;-0.1400146484375;2.6184516964879143;17.343167127608492;8.527681788867284;0.8564453125;0.11962890625;-0.38037109375;0.375;1.8125;10.0625;
1441975326767714;-0.83477783203125;0.1295166015625;-0.51708984375;-0.13836669921875;2.597153066823316;17.359793176783434;8.519365509030669;0.85302734375;0.14208984375;-0.37255859375;6.25;4.125;10.375;
1441975326782715;-0.83367919921875;0.129150390625;-0.51953125;-0.1358642578125;2.5674073344259196;17.3847517294341;8.507183756860076;0.8515625;0.17138671875;-0.357421875;11.875;6.5;11.1875;
1441975326805716;-0.832275390625;0.1282958984375;-0.52288818359375;-0.13262939453125;2.5274234860587823;17.41495398216035;8.495201256691578;0.90380859375;0.17529296875;-0.3642578125;16.9375;9.5625;13.5;
1441975326827717;-0.83062744140625;0.126953125;-0.5267333984375;-0.12890625;2.4816582809141106;17.447844924237536;8.484668376748633;0.966796875;0.19482421875;-0.37109375;22.6875;13.5625;15.625;
1441975326842718;-0.82904052734375;0.12542724609375;-0.530517578125;-0.125;2.4370805979356667;17.482262323548277;8.474062156246092;1.01416015625;0.22216796875;-0.37158203125;27.5625;15.75;17.4375;
1441975326865719;-0.82763671875;0.12384033203125;-0.5338134765625;-0.12176513671875;2.3982104949304084;17.50892464198934;8.468458831576067;1.021484375;0.20751953125;-0.353515625;28.875;14.5;16.375;
1441975326888721;-0.82635498046875;0.12225341796875;-0.5367431640625;-0.11944580078125;2.36331012282256;17.52502393271327;8.469480765252147;0.9921875;0.16845703125;-0.306640625;24.875;10.5;11.5;
1441975326905722;-0.8251953125;0.12060546875;-0.5391845703125;-0.117919921875;2.333561936404572;17.53107754814506;8.477280275133833;0.96630859375;0.12451171875;-0.26611328125;19.5;7.375;6.0625;
1441975326926723;-0.82427978515625;0.11865234375;-0.54107666015625;-0.1173095703125;2.3103507506380563;17.523330507496716;8.496164608709426;0.9677734375;0.087890625;-0.2666015625;14.3125;5.625;0.6875;
1441975326947724;-0.82373046875;0.1163330078125;-0.54248046875;-0.1170654296875;2.2941660948737095;17.507809124343986;8.52272986652966;0.95703125;0.07958984375;-0.26220703125;10.5625;3.75;-4.625;
1441975326962725;-0.8236083984375;0.1136474609375;-0.543212890625;-0.11737060546875;2.2872425940679757;17.48229405070055;8.558367998633116;0.9365234375;0.07763671875;-0.25830078125;9.625;0.9375;-8.3125;
1441975326985726;-0.82366943359375;0.11053466796875;-0.5435791015625;-0.11822509765625;2.285385809017911;17.44644119505275;8.603718485820561;0.92236328125;0.09130859375;-0.2666015625;8.5;-1.5;-11.5;
1441975327007728;-0.82403564453125;0.1070556640625;-0.54339599609375;-0.11981201171875;2.2914204890393135;17.398871070534405;8.659127290784385;0.9150390625;0.11279296875;-0.275390625;7.25;-2.6875;-14.875;
1441975327032729;-0.82464599609375;0.10345458984375;-0.5426025390625;-0.12188720703125;2.3057369946434036;17.345090262333024;8.719008320813966;0.896484375;0.12841796875;-0.28515625;5.4375;-4.3125;-18.3125;
1441975327046730;-0.8253173828125;0.0999755859375;-0.54168701171875;-0.1243896484375;2.3225324388017405;17.28797361339689;8.779946059267079;0.876953125;0.14599609375;-0.30322265625;3.375;-5.75;-20.6875;
1441975327076731;-0.825927734375;0.09674072265625;-0.54071044921875;-0.1273193359375;2.3404456474007524;17.22849010517098;8.840430090589612;0.89013671875;0.16015625;-0.31591796875;1.0625;-6.0;-21.0;
1441975327082732;-0.826416015625;0.09381103515625;-0.539794921875;-0.13018798828125;2.3575663532260913;17.172786189188134;8.896097202630475;0.90087890625;0.173828125;-0.3349609375;-1.6875;-5.375;-20.75;
1441975327105733;-0.826904296875;0.09112548828125;-0.538818359375;-0.1331787109375;2.375880495835971;17.118401361952316;8.948908252903033;0.92822265625;0.1826171875;-0.3486328125;-2.6875;-4.4375;-19.4375;
1441975327127734;-0.82745361328125;0.088623046875;-0.5374755859375;-0.13653564453125;2.3989226438341453;17.062536228034485;9.000748492448292;0.94775390625;0.18798828125;-0.37060546875;-3.9375;-4.5625;-18.9375;
1441975327150736;-0.82806396484375;0.0865478515625;-0.53607177734375;-0.13958740234375;2.4226458715786157;17.01461049677778;9.044146572941559;0.90478515625;0.1943359375;-0.36181640625;-6.75;-5.5625;-19.4375;
1441975327165737;-0.82855224609375;0.084716796875;-0.534912109375;-0.14227294921875;2.443002072625421;16.97290879568945;9.081898811658444;0.88134765625;0.15966796875;-0.36767578125;-7.5625;-5.875;-18.75;
1441975327187738;-0.8289794921875;0.0828857421875;-0.533935546875;-0.14447021484375;2.4610517351144794;16.936964822247393;9.11597080446306;0.908203125;0.1669921875;-0.38623046875;-6.5625;-4.25;-16.6875;
1441975327205739;-0.8294677734375;0.08087158203125;-0.53302001953125;-0.146240234375;2.479000957317287;16.90506668915515;9.148576225457695;0.93603515625;0.1826171875;-0.41259765625;-4.3125;-2.625;-14.6875;
1441975327225740;-0.830078125;0.07879638671875;-0.53204345703125;-0.14764404296875;2.4981336777775365;16.87769698382629;9.178444032621876;0.9365234375;0.1943359375;-0.41796875;-1.6875;-2.3125;-13.75;
1441975327247741;-0.83062744140625;0.07684326171875;-0.53106689453125;-0.14886474609375;2.5165920910631034;16.85349014421618;9.205359188411682;0.9267578125;0.21044921875;-0.41796875;0.9375;-2.6875;-12.5625;
1441975327273743;-0.83111572265625;0.07550048828125;-0.53009033203125;-0.15045166015625;2.5341305158440037;16.829680757844937;9.227836908214863;0.9140625;0.20654296875;-0.431640625;0.625;-2.1875;-11.4375;
1441975327286743;-0.83154296875;0.0745849609375;-0.52923583984375;-0.15155029296875;2.5485397168955233;16.81405522182674;9.242421577476774;0.8935546875;0.19384765625;-0.41357421875;-2.875;-2.8125;-10.8125;
1441975327319745;-0.8319091796875;0.0738525390625;-0.528564453125;-0.1522216796875;2.5597948211405646;16.80397784104511;9.252541255894247;0.888671875;0.17333984375;-0.41796875;-2.875;-2.1875;-8.3125;
1441975327330746;-0.832275390625;0.072998046875;-0.52813720703125;-0.15228271484375;2.568021117753627;16.79931269149066;9.260417098631423;0.89794921875;0.171875;-0.41552734375;-1.375;-2.125;-6.375;
1441975327356747;-0.8323974609375;0.07220458984375;-0.52825927734375;-0.1514892578125;2.5680525617952052;16.802648166188106;9.263752573328867;0.9169921875;0.185546875;-0.41259765625;2.5;-1.5;-4.3125;
1441975327384749;-0.83221435546875;0.07159423828125;-0.52880859375;-0.15081787109375;2.5620547944901024;16.804250557884835;9.26765163891426;0.97802734375;0.20751953125;-0.435546875;6.625;0.8125;-0.4375;
1441975327386749;-0.83184814453125;0.07147216796875;-0.52935791015625;-0.1507568359375;2.554907094477021;16.80202721587983;9.27074835478788;1.03564453125;0.236328125;-0.4521484375;6.3125;3.1875;1.8125;
1441975327413751;-0.83123779296875;0.0723876953125;-0.53009033203125;-0.15118408203125;2.543060451202779;16.80052977848194;9.266823568162835;1.0185546875;0.24560546875;-0.4482421875;1.625;4.0;3.4375;
1441975327427752;-0.83038330078125;0.0738525390625;-0.53094482421875;-0.1524658203125;2.5288292138922053;16.792539573095368;9.263561163868566;0.9853515625;0.19580078125;-0.4287109375;-4.8125;4.75;4.0625;
1441975327451753;-0.8294677734375;0.07513427734375;-0.53179931640625;-0.153564453125;2.514338089931921;16.785110730805837;9.26120170819269;0.9423828125;0.15234375;-0.404296875;-11.6875;5.8125;2.5625;
1441975327465754;-0.82879638671875;0.0758056640625;-0.53265380859375;-0.15411376953125;2.5017484982412563;16.780143974585226;9.26129883744073;0.853515625;0.1103515625;-0.37158203125;-11.3125;6.5625;0.125;
1441975327487755;-0.8282470703125;0.07550048828125;-0.53375244140625;-0.15350341796875;2.4878459857702415;16.781019060788744;9.264548270248351;0.775390625;0.08349609375;-0.33642578125;-6.6875;6.1875;-1.3125;
1441975327504756;-0.82794189453125;0.07379150390625;-0.53485107421875;-0.1517333984375;2.4766191756920595;16.785569374188142;9.27477441249719;0.76953125;0.095703125;-0.33203125;2.4375;7.25;-1.8125;
1441975327525757;-0.827880859375;0.07110595703125;-0.53607177734375;-0.149169921875;2.466550012797534;16.792456917010377;9.290147634337247;0.7802734375;0.1171875;-0.34228515625;12.75;7.75;-3.4375;
1441975327547758;-0.827880859375;0.068115234375;-0.5372314453125;-0.146240234375;2.4574382540781605;16.8015433807658;9.306061907254058;0.8095703125;0.16943359375;-0.3505859375;21.125;8.0;-2.8125;
1441975327564759;-0.82769775390625;0.06524658203125;-0.53851318359375;-0.1439208984375;2.4468771606062463;16.803814107286787;9.32574403238991;0.8515625;0.1943359375;-0.37451171875;24.25;7.875;-2.0;
1441975327586761;-0.82745361328125;0.0626220703125;-0.539794921875;-0.14190673828125;2.435930518161461;16.80414094983063;9.345071453399278;0.8671875;0.201171875;-0.3544921875;21.5;7.5625;-2.5625;
1441975327607762;-0.82696533203125;0.06085205078125;-0.54107666015625;-0.140625;2.4228795486003296;16.801554080487442;9.360650431048724;0.85888671875;0.18896484375;-0.3505859375;18.5;8.0625;-3.0625;
1441975327638764;-0.82623291015625;0.05938720703125;-0.54248046875;-0.1400146484375;2.4078062573573433;16.79243977922786;9.378674458964197;0.83837890625;0.15234375;-0.33349609375;11.8125;7.75;-3.4375;
1441975327645764;-0.82550048828125;0.0577392578125;-0.5438232421875;-0.1396484375;2.3942748881249023;16.779169010688925;9.40056400970445;0.81494140625;0.11962890625;-0.2998046875;6.9375;7.5625;-5.25;
1441975327667765;-0.8248291015625;0.0552978515625;-0.5452880859375;-0.13909912109375;2.381674229733591;16.76184052667952;9.430617175108493;0.8193359375;0.0986328125;-0.29638671875;5.9375;7.6875;-8.6875;
1441975327683766;-0.82403564453125;0.052001953125;-0.54705810546875;-0.13818359375;2.367111636036004;16.740965092555975;9.469319577620873;0.84521484375;0.09521484375;-0.30419921875;8.8125;8.75;-12.5625;
1441975327705767;-0.82330322265625;0.0477294921875;-0.54888916015625;-0.13671875;2.353959507479928;16.718849891455005;9.515576876938352;0.890625;0.09814453125;-0.30029296875;13.625;9.4375;-15.3125;
1441975327727769;-0.8226318359375;0.04241943359375;-0.5506591796875;-0.13525390625;2.344879356644164;16.68907251249133;9.573742375440803;0.9326171875;0.10107421875;-0.29248046875;19.1875;9.1875;-18.9375;
1441975327744770;-0.82171630859375;0.0372314453125;-0.55267333984375;-0.13446044921875;2.3339547142217003;16.650505044217354;9.637431752278868;0.958984375;0.130859375;-0.3037109375;22.875;9.75;-22.125;
1441975327773771;-0.82073974609375;0.0325927734375;-0.554443359375;-0.13427734375;2.3255148804693624;16.60910531416364;9.699027733841232;0.9970703125;0.15087890625;-0.29296875;20.125;10.25;-23.0625;
1441975327787772;-0.8197021484375;0.0281982421875;-0.55621337890625;-0.13427734375;2.317170015689908;16.566797536090572;9.759741478670177;1.00341796875;0.13330078125;-0.28857421875;14.3125;9.125;-24.1875;
1441975327805773;-0.81866455078125;0.02386474609375;-0.55792236328125;-0.13427734375;2.3098802018579994;16.52480620629028;9.81985362065577;0.98828125;0.10888671875;-0.27392578125;12.5625;8.5625;-25.4375;
1441975327824774;-0.8177490234375;0.01934814453125;-0.55950927734375;-0.1341552734375;2.305308774930048;16.483576497184487;9.880453596507135;0.9716796875;0.0849609375;-0.25927734375;11.9375;7.9375;-26.375;
1441975327848776;-0.81671142578125;0.01507568359375;-0.5611572265625;-0.134033203125;2.299342676847644;16.443111125274072;9.939254368071861;0.94287109375;0.0947265625;-0.2568359375;12.875;8.125;-26.5;
1441975327864777;-0.8157958984375;0.01116943359375;-0.5625;-0.1343994140625;2.297652655723917;16.401392537924522;9.99571260538457;0.931640625;0.10107421875;-0.26123046875;12.4375;9.4375;-24.9375;
1441975327885778;-0.8148193359375;0.00799560546875;-0.563720703125;-0.1353759765625;2.296669598108482;16.35820597370459;10.048038362374184;0.9033203125;0.1181640625;-0.28369140625;8.9375;9.625;-23.75;
1441975327907779;-0.8135986328125;0.005859375;-0.56512451171875;-0.13690185546875;2.29132816705879;16.314082805391127;10.094749248319555;0.87060546875;0.125;-0.27587890625;3.4375;9.125;-21.75;
1441975327931780;-0.81219482421875;0.0045166015625;-0.5667724609375;-0.138427734375;2.280320652563687;16.27316933593976;10.135013919546713;0.85009765625;0.12890625;-0.26806640625;-1.9375;9.9375;-18.5;
1441975327944781;-0.810546875;0.0035400390625;-0.56866455078125;-0.14031982421875;2.266264882724907;16.22789624875584;10.17662837806735;0.8603515625;0.1298828125;-0.2822265625;-5.4375;12.4375;-14.75;
1441975327975783;-0.8087158203125;0.00299072265625;-0.57061767578125;-0.142822265625;2.251805053318205;16.177021674728838;10.219530716856392;0.880859375;0.150390625;-0.2939453125;-8.25;14.5625;-13.1875;
1441975327983783;-0.80694580078125;0.00341796875;-0.57257080078125;-0.14532470703125;2.234060336981083;16.13262078887626;10.25198029912053;0.89599609375;0.18408203125;-0.30029296875;-12.125;15.5625;-11.375;
1441975328006785;-0.8048095703125;0.004638671875;-0.5748291015625;-0.14801025390625;2.2095356645096254;16.087325515782958;10.281298398856077;0.9208984375;0.16796875;-0.31494140625;-15.8125;15.375;-8.75;
1441975328035786;-0.8026123046875;0.00628662109375;-0.577392578125;-0.1497802734375;2.1768683839723333;16.052270907094883;10.302503654839912;0.93505859375;0.1689453125;-0.2998046875;-19.75;16.4375;-5.25;
1441975328043787;-0.800537109375;0.00732421875;-0.5802001953125;-0.1502685546875;2.1404482615205422;16.025749831715558;10.323112895349364;0.9658203125;0.146484375;-0.29150390625;-17.0625;17.375;-2.375;
1441975328076789;-0.79864501953125;0.00775146484375;-0.58270263671875;-0.15057373046875;2.1096109482261065;15.999060804728593;10.347088419666692;0.9833984375;0.1416015625;-0.28564453125;-9.5;17.9375;-1.3125;
1441975328087789;-0.79669189453125;0.00836181640625;-0.585205078125;-0.1512451171875;2.0793489082684276;15.968406861897487;10.372755127501517;0.97607421875;0.1533203125;-0.28369140625;-6.0;17.1875;-2.4375;
1441975328104790;-0.79461669921875;0.00958251953125;-0.587646484375;-0.152587890625;2.0492123629499868;15.933305470001198;10.397545779700515;0.95654296875;0.16552734375;-0.2744140625;-8.0625;17.4375;-2.1875;
1441975328125791;-0.79266357421875;0.010986328125;-0.58978271484375;-0.15423583984375;2.022816599041508;15.897981124203438;10.420484768116317;0.92138671875;0.1533203125;-0.251953125;-13.0625;16.5;-1.375;
1441975328147793;-0.7908935546875;0.01190185546875;-0.5916748046875;-0.1558837890625;2.001834034537076;15.861183184988406;10.446870748973142;0.8828125;0.13232421875;-0.2373046875;-15.25;14.9375;-2.75;
1441975328170794;-0.7891845703125;0.01251220703125;-0.59368896484375;-0.156982421875;1.9794295867106864;15.827403870785048;10.473824309304177;0.85595703125;0.1513671875;-0.22802734375;-13.0625;13.75;-3.6875;
1441975328186795;-0.78753662109375;0.0126953125;-0.59564208984375;-0.1578369140625;1.9590191216487551;15.793450788142776;10.50369594182121;0.890625;0.1728515625;-0.23583984375;-9.5625;14.5;-2.4375;
1441975328207796;-0.78582763671875;0.01287841796875;-0.59771728515625;-0.158447265625;1.9364593987333443;15.760325717632343;10.533768701743082;0.91796875;0.19580078125;-0.2529296875;-6.6875;15.6875;-2.1875;
1441975328230797;-0.7840576171875;0.01318359375;-0.59991455078125;-0.1590576171875;1.9122812614332834;15.7260147678356;10.564562644090426;0.91943359375;0.20751953125;-0.24853515625;-5.25;16.25;-0.625;
1441975328246798;-0.781982421875;0.01385498046875;-0.602294921875;-0.16009521484375;1.885661014464878;15.68484781212147;10.598919752310156;0.92626953125;0.228515625;-0.24658203125;-5.75;17.25;1.5;
1441975328275800;-0.7796630859375;0.015380859375;-0.6048583984375;-0.16162109375;1.85472629215085;15.639952102734027;10.63151099398406;0.93017578125;0.2509765625;-0.2421875;-8.75;18.6875;3.25;
1441975328298801;-0.7772216796875;0.01739501953125;-0.607421875;-0.1634521484375;1.8224565049027;15.592877676380123;10.66299900528224;0.88623046875;0.23291015625;-0.212890625;-14.0625;18.875;4.75;
1441975328321803;-0.77471923828125;0.02020263671875;-0.60986328125;-0.16607666015625;1.7908509655639873;15.541664436305062;10.692089274514988;0.85205078125;0.20654296875;-0.18798828125;-17.375;18.0625;5.3125;
1441975328327803;-0.77215576171875;0.023193359375;-0.6123046875;-0.16851806640625;1.7573200215480465;15.492069823334617;10.719547611949285;0.80322265625;0.19580078125;-0.158203125;-23.3125;16.625;5.75;
1441975328350804;-0.76983642578125;0.02587890625;-0.6146240234375;-0.17022705078125;1.7239297673696279;15.450743009433472;10.743037614389747;0.77392578125;0.16748046875;-0.14404296875;-23.4375;16.1875;6.1875;
1441975328366805;-0.76806640625;0.027587890625;-0.616455078125;-0.17144775390625;1.699649531602259;15.416105205589151;10.76582849919629;0.73583984375;0.11865234375;-0.125;-19.5;14.6875;4.3125;
1441975328387806;-0.76666259765625;0.028564453125;-0.617919921875;-0.17230224609375;1.6819838183089184;15.386290532276224;10.78825640400535;0.6865234375;0.1083984375;-0.0986328125;-12.9375;10.6875;1.625;
1441975328410808;-0.76568603515625;0.029052734375;-0.6190185546875;-0.17266845703125;1.669089930726107;15.365694614749497;10.80546157353683;0.66455078125;0.11279296875;-0.0751953125;-8.1875;7.1875;-0.0625;
1441975328426809;-0.76483154296875;0.0286865234375;-0.6202392578125;-0.17205810546875;1.6556051118940833;15.349808257316559;10.825520238529702;0.68896484375;0.12109375;-0.07373046875;-4.125;4.6875;-0.9375;
1441975328447810;-0.76409912109375;0.02825927734375;-0.621337890625;-0.17144775390625;1.6439231199048736;15.335593012319745;10.844153741415557;0.75146484375;0.16943359375;-0.1064453125;3.8125;6.625;1.25;
1441975328463811;-0.76318359375;0.02880859375;-0.62249755859375;-0.17108154296875;1.6266772259595719;15.323507427956168;10.85564018570651;0.81640625;0.23876953125;-0.140625;4.25;7.4375;4.8125;
1441975328486812;-0.76214599609375;0.0311279296875;-0.6236572265625;-0.171142578125;1.6008745386221048;15.31909453782891;10.850485731246271;0.9013671875;0.3056640625;-0.14306640625;0.25;6.8125;11.0625;
1441975328507813;-0.7603759765625;0.035400390625;-0.6253662109375;-0.172119140625;1.5616465515607696;15.306135500073752;10.842170106412478;0.9619140625;0.2880859375;-0.1396484375;-8.3125;4.9375;15.6875;
1441975328530815;-0.7579345703125;0.04107666015625;-0.62786865234375;-0.1724853515625;1.5023675735701443;15.29725018244709;10.826673526720645;0.95263671875;0.26318359375;-0.09033203125;-19.4375;5.125;20.8125;
1441975328546816;-0.7552490234375;0.04766845703125;-0.630615234375;-0.172607421875;1.4335824696531145;15.294931143921316;10.801937227432745;0.9580078125;0.2236328125;-0.07568359375;-22.625;8.9375;27.4375;
1441975328579817;-0.75262451171875;0.05560302734375;-0.6329345703125;-0.17303466796875;1.3618154023169016;15.30877246953946;10.754206710197888;1.01123046875;0.25244140625;-0.0947265625;-24.875;11.4375;34.3125;
1441975328598819;-0.75018310546875;0.06549072265625;-0.63458251953125;-0.174072265625;1.2877687834142935;15.348917851969878;10.66958589267767;1.03955078125;0.271484375;-0.09033203125;-31.125;7.75;40.4375;
1441975328606819;-0.748046875;0.0760498046875;-0.63580322265625;-0.174560546875;1.212309463432871;15.423167566815206;10.550351139619925;0.9951171875;0.19921875;-0.03564453125;-40.75;-0.75;42.625;
1441975328631820;-0.745849609375;0.0859375;-0.63720703125;-0.174072265625;1.135408223126906;15.515133042459325;10.420153723972767;0.96044921875;0.091796875;0.001953125;-41.1875;-6.25;40.875;
1441975328667822;-0.74359130859375;0.09466552734375;-0.63885498046875;-0.173583984375;1.0640563044879916;15.601045363312284;10.300835057345635;0.9609375;0.03125;0.01416015625;-35.125;-5.625;38.625;
1441975328669823;-0.74151611328125;0.1024169921875;-0.64007568359375;-0.17327880859375;1.003899965853214;15.68892203844019;10.182567432130448;0.97802734375;0.04052734375;0.0048828125;-30.6875;-2.5625;35.125;
1441975328695824;-0.739501953125;0.1102294921875;-0.64080810546875;-0.1744384765625;0.955117060418856;15.764973490404696;10.069725987789132;0.99267578125;0.0322265625;-0.01123046875;-28.25;-2.75;30.0625;
1441975328710825;-0.737548828125;0.11767578125;-0.64105224609375;-0.17694091796875;0.9185353260896317;15.819001186548643;9.974693700938108;0.9892578125;0.03076171875;-0.02490234375;-35.125;-3.125;25.0;
1441975328726826;-0.73602294921875;0.12420654296875;-0.640625;-0.1802978515625;0.8975996950162998;15.85365447930771;9.899087440951218;0.9599609375;0.0400390625;-0.02294921875;-39.75;-4.1875;19.125;
1441975328750827;-0.7349853515625;0.1297607421875;-0.63970947265625;-0.183837890625;0.8885510152389103;15.878543192867433;9.836402091806276;0.94775390625;0.0517578125;-0.03271484375;-39.75;-5.875;12.5625;
1441975328771828;-0.73431396484375;0.1339111328125;-0.63909912109375;-0.18572998046875;0.8791889493807272;15.917105428299491;9.772744676945841;0.94775390625;0.0595703125;-0.05810546875;-36.8125;-6.75;7.25;
1441975328786829;-0.7335205078125;0.13592529296875;-0.63946533203125;-0.18603515625;0.8643247837504064;15.937769696526384;9.74250905788095;0.96142578125;0.01318359375;-0.056640625;-24.9375;-6.75;4.5;
1441975328807830;-0.7332763671875;0.136474609375;-0.63983154296875;-0.1854248046875;0.8555237741003248;15.957948005410692;9.72268537967659;0.96142578125;0.04638671875;-0.05224609375;-9.0;-1.6875;4.875;
1441975328831832;-0.732666015625;0.1378173828125;-0.6400146484375;-0.18634033203125;0.8481817673168854;15.953565575780578;9.717739984029421;0.9443359375;0.11767578125;-0.0859375;0.6875;-0.25;6.75;
1441975328847833;-0.73150634765625;0.14093017578125;-0.64007568359375;-0.18829345703125;0.8350423823426328;15.955864435308523;9.694388660960906;0.927734375;0.1953125;-0.05712890625;-8.1875;-1.0;10.25;
1441975328867834;-0.72991943359375;0.145751953125;-0.63995361328125;-0.19110107421875;0.8170117599263401;15.971684317241168;9.646817094979038;0.953125;0.19775390625;-0.05126953125;-19.8125;-1.1875;14.4375;
1441975328891835;-0.72833251953125;0.15057373046875;-0.63995361328125;-0.193359375;0.7962384474114409;16.00290229828889;9.586139075922542;0.98876953125;0.154296875;-0.06787109375;-30.25;-0.375;15.625;
1441975328906836;-0.72662353515625;0.15484619140625;-0.640380859375;-0.195068359375;0.7716203074889838;16.03193038965554;9.532287690538682;1.01904296875;0.123046875;-0.0859375;-28.4375;0.6875;15.375;
1441975328927837;-0.7247314453125;0.15887451171875;-0.64105224609375;-0.1966552734375;0.7444322785983658;16.055504711922616;9.485399748554684;1.0361328125;0.11181640625;-0.08984375;-24.125;3.5;15.125;
1441975328958839;-0.72283935546875;0.1630859375;-0.6414794921875;-0.19873046875;0.7201829528780563;16.074420985610114;9.440289373519652;1.05126953125;0.13623046875;-0.06884765625;-22.5;3.9375;16.8125;
1441975328973840;-0.7210693359375;0.16790771484375;-0.64154052734375;-0.2010498046875;0.6985138071842798;16.111309136110382;9.373607852479768;1.04931640625;0.1572265625;-0.0625;-24.9375;3.0;17.1875;
1441975328995841;-0.7193603515625;0.1728515625;-0.64141845703125;-0.2032470703125;0.678243415760178;16.16226963825398;9.292731166838207;1.03857421875;0.1015625;-0.0732421875;-29.125;1.5;15.0625;
1441975329009842;-0.71795654296875;0.17755126953125;-0.640869140625;-0.20599365234375;0.6661185579005028;16.19927283049619;9.224491247574631;1.02734375;0.0595703125;-0.08837890625;-29.1875;1.5625;12.75;
1441975329026843;-0.7166748046875;0.18310546875;-0.63934326171875;-0.2100830078125;0.663996785745794;16.229922169948654;9.153083164415355;1.02734375;0.095703125;-0.09521484375;-30.6875;-0.0625;12.0625;
1441975329048844;-0.715576171875;0.19110107421875;-0.63653564453125;-0.21539306640625;0.6703531791565415;16.309161601081893;9.017568894986482;1.07666015625;0.19873046875;-0.07080078125;-39.125;-6.0;15.9375;
1441975329072846;-0.714599609375;0.20111083984375;-0.63262939453125;-0.2208251953125;0.6835088538670075;16.454345315544707;8.806661380586307;1.0693359375;0.16650390625;-0.09716796875;-55.0;-12.1875;18.125;
1441975329087846;-0.7132568359375;0.21209716796875;-0.62774658203125;-0.2286376953125;0.7061450709572019;16.54293217087042;8.63770262080541;1.06201171875;0.09033203125;-0.150390625;-64.25;-15.8125;19.0;
1441975329107848;-0.7122802734375;0.2265625;-0.62030029296875;-0.2379150390625;0.7514748172204403;16.687382789540898;8.39099193189181;1.09912109375;0.22705078125;-0.12548828125;-77.9375;-19.5625;23.125;
1441975329130849;-0.70855712890625;0.24755859375;-0.6119384765625;-0.2496337890625;0.783628702143831;16.906862136792995;8.029904273970484;1.14794921875;0.24462890625;-0.23828125;-99.3125;-27.3125;29.625;
1441975329146850;-0.70263671875;0.27093505859375;-0.60321044921875;-0.26287841796875;0.8089189740694807;17.119925981677884;7.6566629588682815;1.1806640625;0.16796875;-0.21728515625;-138.375;-33.1875;39.4375;
1441975329177852;-0.69696044921875;0.29388427734375;-0.59356689453125;-0.27496337890625;0.8524601326830139;17.329152648828348;7.292121276072843;1.25634765625;0.0087890625;-0.2451171875;-157.0;-28.0625;43.4375;
1441975329190852;-0.69146728515625;0.31658935546875;-0.582275390625;-0.2874755859375;0.916632485649514;17.477852664405386;6.98491028479394;1.353515625;-0.07861328125;-0.26171875;-151.75;-34.0;42.8125;
1441975329206853;-0.6868896484375;0.33599853515625;-0.5712890625;-0.29833984375;0.9863162608742829;17.564393383790698;6.760010745500496;1.49365234375;-0.0927734375;-0.34619140625;-155.25;-39.375;37.125;
1441975329228855;-0.68231201171875;0.34906005859375;-0.56793212890625;-0.30023193359375;1.0089835865218992;17.78365291798589;6.471916732356292;1.484375;-0.23388671875;-0.232421875;-136.3125;-40.9375;26.3125;
1441975329252856;-0.6756591796875;0.36627197265625;-0.5628662109375;-0.30426025390625;1.0443751180429455;0.018517547418113036;6.138390404780867;1.5947265625;-0.12890625;-0.49072265625;-66.5625;-2.75;37.3125;
1441975329282858;-0.66290283203125;0.38623046875;-0.56829833984375;-0.29742431640625;1.0528511050187688;0.7073476158254703;5.388422051222392;1.603515625;-0.18994140625;-0.1796875;-95.5;-27.875;45.8125;
1441975329289858;-0.65966796875;0.3885498046875;-0.573974609375;-0.29058837890625;1.0560926901799592;0.9994117215022973;5.117245956188954;1.5556640625;-0.677734375;-0.24072265625;-56.75;9.75;92.875;
1441975329310859;-0.66558837890625;0.37542724609375;-0.57952880859375;-0.2833251953125;1.0226938968066948;0.9530285378282578;5.2587802070911644;1.4169921875;-0.21484375;-0.27587890625;24.0625;14.75;39.375;
1441975329326860;-0.673828125;0.35870361328125;-0.58447265625;-0.27520751953125;0.9921446780624386;0.8160151782556028;5.510163817347043;1.3466796875;0.05126953125;-0.2373046875;94.25;7.6875;-20.6875;
1441975329348861;-0.68072509765625;0.343017578125;-0.59014892578125;-0.26593017578125;0.9648646433377368;0.7399329704611894;5.699894897000789;1.33056640625;0.39599609375;-0.2548828125;111.9375;1.375;-38.4375;
1441975329370863;-0.6846923828125;0.332275390625;-0.59130859375;-0.2667236328125;0.9254974046113204;0.49601821417215136;5.989283227382303;1.33984375;0.5361328125;-0.55126953125;112.9375;10.0;-24.5625;
1441975329393864;-0.6796875;0.335205078125;-0.5960693359375;-0.26544189453125;0.8832205062463895;0.7313324341238829;5.747486008889125;1.12451171875;0.662109375;-0.2578125;49.4375;14.0;-2.375;
1441975329410865;-0.676025390625;0.3359375;-0.602294921875;-0.2598876953125;0.8590140913249911;1.044845993932483;5.456131013289777;0.9677734375;0.1376953125;-0.26416015625;-1.375;36.875;44.875;
1441975329431866;-0.67388916015625;0.329345703125;-0.61346435546875;-0.24725341796875;0.8266347410548749;1.475867767004006;5.11139564047669;0.9501953125;-0.00537109375;-0.41845703125;27.0625;44.6875;41.625;
1441975329446867;-0.674072265625;0.31292724609375;-0.62872314453125;-0.2291259765625;0.7726293998653893;1.949461644681542;4.791468646189842;0.94921875;-0.306640625;-0.3291015625;88.75;50.8125;22.375;
1441975329468868;-0.678466796875;0.29229736328125;-0.64166259765625;-0.20635986328125;0.7580362817779455;2.3061454621602917;4.624530983008615;0.82470703125;-0.3291015625;-0.16357421875;156.375;48.75;17.1875;
1441975329489869;-0.6854248046875;0.2783203125;-0.64508056640625;-0.19158935546875;0.7756309181830656;2.280075603136479;4.77469740020058;0.61669921875;0.14697265625;-0.34814453125;192.0625;25.125;15.1875;
1441975329506870;-0.6976318359375;0.27197265625;-0.6361083984375;-0.1866455078125;0.8531064150601566;1.7615643492657178;5.34083797271364;0.37109375;0.216796875;-0.53369140625;123.8125;-11.6875;-3.3125;
1441975329528872;-0.71282958984375;0.2681884765625;-0.62188720703125;-0.18255615234375;1.0134149080581287;1.2308623171872721;5.903113646850113;0.20654296875;0.13037109375;-0.525390625;46.4375;-47.5;-25.5;
1441975329549873;-0.73028564453125;0.2645263671875;-0.60400390625;-0.1788330078125;1.238946556663858;0.7889846463167889;6.372947472645845;0.17333984375;0.02099609375;-0.625;27.625;-73.9375;-36.5;
1441975329566874;-0.74664306640625;0.25665283203125;-0.58917236328125;-0.17205810546875;1.452253381093827;0.5225906233994833;6.698080057628193;0.166015625;0.04638671875;-0.6337890625;22.4375;-96.5625;-43.25;
1441975329588875;-0.76129150390625;0.251953125;-0.57427978515625;-0.1649169921875;1.6773508862843802;0.38114245315938505;6.8853934614700805;0.21923828125;0.1328125;-0.59326171875;50.8125;-112.25;-47.0;
1441975329612877;-0.77325439453125;0.24920654296875;-0.5604248046875;-0.16119384765625;1.874434055771308;0.2681326206275001;7.02144707839277;0.37890625;0.15576171875;-0.4658203125;40.1875;-113.0625;-29.4375;
1441975329626877;-0.78314208984375;0.2467041015625;-0.5491943359375;-0.1556396484375;2.045015421545666;0.22325410444232757;7.096400393477564;0.5244140625;0.376953125;-0.34912109375;25.1875;-91.5;-3.8125;
1441975329648879;-0.7901611328125;0.24420166015625;-0.542724609375;-0.1466064453125;2.1681386421670505;0.25920768705388914;7.106654828794741;0.66259765625;0.1982421875;-0.22802734375;30.8125;-88.4375;-3.375;
1441975329669880;-0.79522705078125;0.24066162109375;-0.53955078125;-0.136474609375;2.2515181835551714;0.3196629959414163;7.102593959840212;0.93359375;-0.0390625;-0.05224609375;44.5625;-82.4375;0.9375;
1441975329686881;-0.79541015625;0.23504638671875;-0.543701171875;-0.1285400390625;2.228586701369698;0.38722327529806566;7.093741298778332;1.169921875;-0.03076171875;-0.06884765625;56.0625;-68.25;6.875;
1441975329708882;-0.79876708984375;0.22686767578125;-0.54559326171875;-0.11370849609375;2.261558382726106;0.49333991483701445;7.08505518258837;1.3974609375;0.0244140625;0.28759765625;59.0;-44.1875;8.0;
1441975329747884;-0.79791259765625;0.22528076171875;-0.54876708984375;-0.107421875;2.2475445603863258;0.57196665543086;7.040306278071401;1.298828125;-0.04150390625;-0.15234375;97.5625;-40.8125;8.6875;
1441975329749884;-0.797607421875;0.21343994140625;-0.554931640625;-0.10186767578125;2.1772432549919243;0.5784216175822985;7.109320494698965;1.4296875;9.765625E-4;0.13916015625;36.9375;-37.125;23.0625;
1441975329768885;-0.7979736328125;0.20037841796875;-0.5609130859375;-0.0924072265625;2.1227571201359114;0.616410996480424;7.167682421083767;1.486328125;0.06884765625;0.15283203125;71.0;-19.4375;-20.625;
1441975329792887;-0.80023193359375;0.18328857421875;-0.5654296875;-0.08013916015625;2.089516008281954;0.6399067349694784;7.268302222546181;1.51123046875;-0.162109375;-0.01318359375;88.125;-15.0625;-29.5625;
1441975329815888;-0.7991943359375;0.16375732421875;-0.57464599609375;-0.06597900390625;1.994451371498998;0.7018585245865183;7.348813702848634;1.5537109375;-0.1064453125;-0.00634765625;116.625;-0.6875;-38.8125;
1441975329829889;-0.79302978515625;0.14776611328125;-0.58758544921875;-0.06402587890625;1.8050370644988307;0.672733055122579;7.4551252870184355;1.59130859375;-0.005859375;0.02001953125;137.3125;30.0625;-36.5625;
1441975329850890;-0.7874755859375;0.142333984375;-0.5953369140625;-0.0723876953125;1.662615990147675;0.5588611379411943;7.558504834218249;1.58154296875;0.35986328125;0.0341796875;78.875;46.75;-24.0;
1441975329873891;-0.7802734375;0.14739990234375;-0.6014404296875;-0.088623046875;1.5297501083144287;0.42502216035678175;7.605613334888964;1.62255859375;0.32080078125;-0.03564453125;-8.375;33.0;-17.0;
1441975329888892;-0.77301025390625;0.15966796875;-0.60418701171875;-0.109375;1.4310446390313938;0.2767565634245804;7.617860784348724;1.703125;0.1357421875;-0.0859375;-85.75;37.5625;-9.6875;
1441975329909894;-0.76214599609375;0.16656494140625;-0.6134033203125;-0.12353515625;1.257093672063118;0.21128024575059662;7.597816892370676;1.69970703125;-0.26220703125;-0.01220703125;-137.5625;41.375;-12.4375;
1441975329926894;-0.7530517578125;0.16607666015625;-0.62347412109375;-0.129150390625;1.0933698966510441;0.19005930315289912;7.599441394824171;1.71240234375;-0.384765625;0.0849609375;-91.625;54.25;-27.1875;
1441975329948896;-0.745361328125;0.1619873046875;-0.63250732421875;-0.13482666015625;0.941586188000893;0.06877192949720418;7.715565982689909;1.6611328125;-0.41162109375;-0.07958984375;-25.3125;64.625;-33.5625;
1441975329969897;-0.7386474609375;0.15673828125;-0.63970947265625;-0.1439208984375;0.809006784162874;17.753821367907136;8.015667673489324;1.5947265625;-0.1953125;-0.17431640625;-9.6875;68.4375;-37.0625;
1441975329986898;-0.73358154296875;0.15362548828125;-0.64361572265625;-0.15533447265625;0.7295624741944189;17.31336888586254;8.422194455893933;1.5302734375;0.06640625;-0.20166015625;-17.6875;66.4375;-40.25;
1441975330010899;-0.7281494140625;0.15887451171875;-0.64532470703125;-0.1680908203125;0.675601710244045;17.013005383967908;8.647951374783638;1.494140625;0.12841796875;-0.36181640625;-36.875;60.5;-41.5;
1441975330029900;-0.71875;0.17047119140625;-0.64886474609375;-0.18280029296875;0.5752260247368204;16.77556399552186;8.776076510171173;1.44970703125;-0.01904296875;-0.4755859375;-77.875;55.9375;-24.1875;
1441975330046901;-0.709228515625;0.1846923828125;-0.65130615234375;-0.19683837890625;0.4796691358943879;16.62460281752161;8.8089037066767;1.34326171875;-0.08984375;-0.44580078125;-110.5625;57.0;3.125;
1441975330068903;-0.6990966796875;0.20257568359375;-0.6522216796875;-0.21197509765625;0.38743624132506377;16.580333438564278;8.71419577834106;1.19677734375;-0.02587890625;-0.45556640625;-118.75;50.625;17.0;
1441975330091904;-0.68878173828125;0.22021484375;-0.6522216796875;-0.22760009765625;0.3022426781357686;16.50567527051706;8.647701067733111;1.14599609375;-0.04150390625;-0.4658203125;-139.0625;44.5;26.25;
1441975330107905;-0.68231201171875;0.232666015625;-0.6514892578125;-0.236572265625;0.25175891618838636;16.669755881435233;8.39203017879261;1.189453125;-0.08740234375;-0.36279296875;-141.625;40.25;21.875;
1441975330128906;-0.6793212890625;0.2392578125;-0.65106201171875;-0.23980712890625;0.2290263997201097;16.954134148464714;8.065494209408026;1.19775390625;-0.18212890625;-0.35107421875;-92.3125;37.8125;8.0625;
1441975330151907;-0.67864990234375;0.240966796875;-0.651123046875;-0.23968505859375;0.22329713179784283;17.139667633410394;7.8730727496029616;1.14306640625;-0.09033203125;-0.3974609375;-42.75;29.75;9.25;
1441975330173909;-0.67791748046875;0.24395751953125;-0.6510009765625;-0.2392578125;0.22139882877380476;17.496106657108015;7.505688335810626;1.0654296875;0.08203125;-0.41357421875;-6.8125;26.6875;13.0;
1441975330195910;-0.67657470703125;0.24847412109375;-0.64984130859375;-0.24139404296875;0.22409251677174363;17.72818092975186;7.244813859182003;0.98974609375;0.12939453125;-0.38671875;-10.625;21.8125;23.0;
1441975330210911;-0.67645263671875;0.25384521484375;-0.646240234375;-0.24578857421875;0.25337376072927964;17.711893441803685;7.218751723989915;0.9638671875;0.2275390625;-0.36474609375;-28.0;20.5;25.4375;
1441975330233912;-0.67626953125;0.26080322265625;-0.6424560546875;-0.2489013671875;0.2904848472642417;17.912958347582958;6.973825113078747;0.93603515625;0.22314453125;-0.3720703125;-42.0;8.5;14.8125;
1441975330248913;-0.67681884765625;0.26654052734375;-0.63958740234375;-0.248779296875;0.3342824610176176;0.20625515234212474;6.655911400151284;0.8740234375;0.0439453125;-0.33642578125;-43.5;1.5;13.1875;
1441975330286915;-0.67877197265625;0.2667236328125;-0.638671875;-0.24560546875;0.3672743923097952;0.3261397268918089;6.548848151178682;0.8603515625;-0.07666015625;-0.29443359375;-24.5;-4.75;12.5625;
1441975330293915;-0.68365478515625;0.2613525390625;-0.63726806640625;-0.24139404296875;0.40925179648159227;0.12217385508938028;6.794130996948832;0.845703125;-0.0185546875;-0.23828125;13.1875;-2.9375;7.1875;
1441975330315917;-0.68951416015625;0.255615234375;-0.63446044921875;-0.23822021484375;0.4679461333703894;17.85397208088837;7.1005032775935035;0.80859375;0.09375;-0.224609375;41.125;-10.5;-7.9375;
1441975330331918;-0.6951904296875;0.2509765625;-0.63177490234375;-0.2337646484375;0.5326111254950137;17.755891266993324;7.237380914120584;0.77099609375;0.11474609375;-0.21923828125;37.875;-18.5;-15.75;
1441975330353919;-0.6973876953125;0.24725341796875;-0.63275146484375;-0.228515625;0.5454857715612372;17.824268462622378;7.207601548067728;0.74072265625;0.01416015625;-0.17041015625;38.1875;-24.375;-13.5625;
1441975330377920;-0.70013427734375;0.2392578125;-0.6357421875;-0.22027587890625;0.5441285783634868;17.87209499625814;7.229613260097983;0.759765625;-0.11669921875;-0.04736328125;37.9375;-8.3125;-6.0;
1441975330390921;-0.7064208984375;0.23077392578125;-0.6346435546875;-0.21221923828125;0.6009654976647304;17.810697700571133;7.361310924743519;0.6943359375;0.0078125;-0.07421875;69.8125;1.5;-1.8125;
1441975330413922;-0.71258544921875;0.225830078125;-0.630615234375;-0.20867919921875;0.6789722964191798;17.694595768959005;7.512827145120442;0.65673828125;0.130859375;-0.224609375;70.25;-17.0;-5.625;
1441975330428923;-0.7181396484375;0.22283935546875;-0.626220703125;-0.20623779296875;0.757380982347091;17.626822033590443;7.603034727849769;0.66064453125;0.25;-0.13134765625;36.4375;-33.875;-3.5625;
1441975330452925;-0.72357177734375;0.2198486328125;-0.62188720703125;-0.20361328125;0.8350712125677486;17.580046374038577;7.672896616320863;0.72900390625;0.14794921875;-0.080078125;22.9375;-39.0;-6.4375;
1441975330481926;-0.7286376953125;0.21563720703125;-0.6185302734375;-0.20013427734375;0.9018938059179433;17.543142941870308;7.741696813305634;0.73388671875;0.05810546875;-0.08837890625;22.5625;-38.3125;-11.875;
1441975330488927;-0.7333984375;0.20941162109375;-0.61663818359375;-0.1953125;0.9540094176037832;17.5098606118732;7.821331966591108;0.712890625;0.0078125;-0.05712890625;31.25;-35.1875;-16.375;
1441975330510928;-0.738037109375;0.20367431640625;-0.61468505859375;-0.18988037109375;1.006990953558535;17.507952951796874;7.869889003869274;0.72314453125;0.04638671875;-0.03955078125;45.8125;-29.0625;-15.0;
1441975330541930;-0.74267578125;0.19952392578125;-0.61181640625;-0.185546875;1.0678433015598061;17.511331173498288;7.901668060646523;0.77001953125;0.048828125;-0.07177734375;46.375;-29.1875;-10.9375;
1441975330548930;-0.74676513671875;0.19635009765625;-0.6087646484375;-0.18231201171875;1.1257528919891002;17.510046141136698;7.92920340694322;0.81103515625;0.06201171875;-0.0927734375;35.125;-33.0;-8.25;
1441975330570931;-0.75042724609375;0.19427490234375;-0.6055908203125;-0.18023681640625;1.1811126911801941;17.504833960092327;7.95123115286439;0.830078125;0.064453125;-0.05322265625;26.1875;-35.25;-7.6875;
1441975330593933;-0.75390625;0.19232177734375;-0.6021728515625;-0.17938232421875;1.2362374653339359;17.477292040605082;7.989866923977275;0.85693359375;0.02880859375;-0.04736328125;16.8125;-35.375;-9.25;
1441975330608933;-0.75701904296875;0.19012451171875;-0.598876953125;-0.1793212890625;1.287069646940821;17.43332051114601;8.04252076655135;0.89013671875;0.03515625;-0.05615234375;10.4375;-35.25;-12.75;
1441975330630935;-0.760009765625;0.18731689453125;-0.595947265625;-0.1796875;1.333723831029805;17.375882458003115;8.109631845094029;0.90478515625;0.025390625;-0.02783203125;7.625;-34.625;-17.1875;
1441975330653936;-0.76318359375;0.18414306640625;-0.59246826171875;-0.18072509765625;1.3869146428545567;17.30415181845848;8.189452675479451;0.89892578125;0.03369140625;-0.01123046875;8.5;-33.3125;-20.8125;
1441975330668937;-0.76666259765625;0.18157958984375;-0.588134765625;-0.182861328125;1.4504303827503136;17.22662384646945;8.267758571160833;0.8857421875;0.07666015625;-0.03955078125;6.9375;-33.4375;-22.6875;
1441975330690938;-0.7696533203125;0.18109130859375;-0.583251953125;-0.18621826171875;1.5153502286720393;17.16174995292222;8.319301765566458;0.85302734375;0.11669921875;-0.068359375;-0.25;-35.5625;-22.8125;
1441975330713939;-0.7724609375;0.181884765625;-0.57806396484375;-0.19000244140625;1.581528648603119;17.110656471606454;8.34977464993881;0.8291015625;0.09765625;-0.08349609375;-13.5625;-36.5625;-19.25;
1441975330728940;-0.775146484375;0.18280029296875;-0.5728759765625;-0.19390869140625;1.6470564147830562;17.062168767170036;8.376512979596386;0.8291015625;0.08154296875;-0.1142578125;-21.375;-36.625;-16.9375;
1441975330752942;-0.7777099609375;0.1834716796875;-0.56781005859375;-0.1978759765625;1.7110890876849447;17.01252248621493;8.40509699923307;0.8359375;0.09423828125;-0.14794921875;-21.9375;-34.75;-16.4375;
1441975330773943;-0.7801513671875;0.1837158203125;-0.56304931640625;-0.20172119140625;1.7721481813800954;16.96239846094332;8.436496341361183;0.8271484375;0.10498046875;-0.166015625;-21.4375;-32.4375;-17.0;
1441975330788944;-0.78216552734375;0.18341064453125;-0.5589599609375;-0.2054443359375;1.8250368685103173;16.909648955992203;8.473416563091147;0.8046875;0.11328125;-0.18359375;-19.125;-29.0625;-17.8125;
1441975330810945;-0.78411865234375;0.18292236328125;-0.55517578125;-0.2088623046875;1.8751797486075874;16.86149807619299;8.507920366455194;0.794921875;0.11572265625;-0.189453125;-17.0;-24.125;-18.875;
1441975330841947;-0.78619384765625;0.18280029296875;-0.5509033203125;-0.2122802734375;1.9304764385359954;16.819867903596613;8.534015811198305;0.7880859375;0.12353515625;-0.21142578125;-14.875;-21.5;-18.375;
1441975330848947;-0.7879638671875;0.18316650390625;-0.5467529296875;-0.21612548828125;1.9824457764812404;16.778215107348494;8.556284370175915;0.80322265625;0.1630859375;-0.26416015625;-15.75;-21.5625;-15.4375;
1441975330870948;-0.7891845703125;0.1834716796875;-0.5430908203125;-0.22052001953125;2.027033480896595;16.728477740195235;8.584611521038607;0.83935546875;0.15576171875;-0.24951171875;-19.875;-22.4375;-15.1875;
1441975330893950;-0.7908935546875;0.1827392578125;-0.5390625;-0.22491455078125;2.0802907163758118;16.672573344189562;8.62330871017353;0.8544921875;0.12744140625;-0.18798828125;-22.3125;-22.6875;-18.875;
1441975330907951;-0.7935791015625;0.18157958984375;-0.53350830078125;-0.2294921875;2.1554250610655576;16.617543824310594;8.661394032057466;0.849609375;0.13916015625;-0.1982421875;-18.625;-23.75;-24.125;
1441975330930952;-0.79656982421875;0.18182373046875;-0.52691650390625;-0.23419189453125;2.239940982423985;16.577999417553166;8.677034395294772;0.8486328125;0.17138671875;-0.2705078125;-19.125;-29.125;-28.4375;
1441975330953953;-0.7994384765625;0.18170166015625;-0.520751953125;-0.23822021484375;2.3198824174380412;16.544552628655545;8.690981643936944;0.90087890625;0.15283203125;-0.3115234375;-25.375;-35.375;-26.3125;
1441975330968954;-0.80322265625;0.1790771484375;-0.51434326171875;-0.2415771484375;2.412512890295082;16.504275168883062;8.725072178654768;0.95263671875;0.11669921875;-0.3232421875;-22.125;-34.625;-29.4375;
1441975330990955;-0.8074951171875;0.17572021484375;-0.507080078125;-0.24493408203125;2.5181445372448334;16.4640751686238;8.761496278796965;0.8857421875;0.14990234375;-0.36962890625;-10.5;-32.0625;-37.875;
1441975331021957;-0.8118896484375;0.17156982421875;-0.49981689453125;-0.248291015625;2.6268315881081885;16.421943736379006;8.80313445485391;0.841796875;0.1748046875;-0.4208984375;-9.1875;-32.9375;-41.5625;
1441975331028958;-0.816162109375;0.16644287109375;-0.49346923828125;-0.25054931640625;2.727619394038881;16.38648914069314;8.847341231821968;0.8564453125;0.1767578125;-0.45849609375;-7.4375;-30.8125;-46.375;
1441975331051959;-0.82025146484375;0.16064453125;-0.48797607421875;-0.2518310546875;2.8200792452821144;16.35771816151574;8.892309615170356;0.876953125;0.21044921875;-0.49365234375;1.25;-25.125;-45.5625;
1441975331073960;-0.82403564453125;0.1544189453125;-0.4827880859375;-0.25323486328125;2.909706292282627;16.32627592874859;8.94123233556588;0.90380859375;0.27685546875;-0.55322265625;8.9375;-18.8125;-41.5625;
1441975331088961;-0.8271484375;0.149169921875;-0.4774169921875;-0.25634765625;2.9978856732142365;16.284717202444423;8.988523468492387;0.8994140625;0.37841796875;-0.56103515625;11.6875;-15.75;-37.9375;
1441975331110962;-0.82952880859375;0.14508056640625;-0.4720458984375;-0.2608642578125;3.0817182066059914;16.2365772216515;9.031218246830296;0.87255859375;0.41552734375;-0.54345703125;0.875;-15.875;-35.875;
1441975331132963;-0.8316650390625;0.14154052734375;-0.46673583984375;-0.26556396484375;3.1629741808467267;16.19104518415823;9.06810974693323;0.85205078125;0.38671875;-0.5244140625;-10.8125;-15.5625;-36.0625;
1441975331157965;-0.833984375;0.13818359375;-0.46124267578125;-0.2696533203125;3.245723965660432;16.154686999371886;9.097512596843972;0.84423828125;0.34912109375;-0.53076171875;-15.0;-15.3125;-36.6875;
1441975331171966;-0.8360595703125;0.13568115234375;-0.45562744140625;-0.27392578125;3.3262572052478854;16.121754854982125;9.11881068806419;0.82568359375;0.36962890625;-0.5498046875;-12.6875;-16.3125;-34.0625;
1441975331193967;-0.83807373046875;0.13360595703125;-0.4500732421875;-0.27801513671875;3.404330233136367;16.09321515176912;9.134682116626436;0.83447265625;0.369140625;-0.5478515625;-16.5625;-18.1875;-31.375;
1441975331209968;-0.84002685546875;0.1317138671875;-0.4447021484375;-0.2816162109375;3.4789013424700514;16.06997859156168;9.146590697393727;0.80810546875;0.34130859375;-0.54052734375;-17.9375;-19.1875;-30.75;
1441975331230969;-0.84197998046875;0.1297607421875;-0.43975830078125;-0.2845458984375;3.5483579551379165;16.051959694897235;9.156759423793988;0.77880859375;0.2978515625;-0.52392578125;-17.125;-19.0625;-30.6875;
1441975331253970;-0.84429931640625;0.12744140625;-0.4349365234375;-0.28607177734375;3.616938703667386;16.04524687749836;9.163409680265422;0.75390625;0.2685546875;-0.51953125;-14.5;-17.5;-30.375;
1441975331276972;-0.84674072265625;0.1253662109375;-0.4300537109375;-0.287109375;3.6848504393604022;16.044110370804276;9.165555528475087;0.72119140625;0.26513671875;-0.5341796875;-6.8125;-17.4375;-28.4375;
1441975331290973;-0.84893798828125;0.12359619140625;-0.42572021484375;-0.28790283203125;3.744756432151568;16.04452589440035;9.166305956300256;0.7158203125;0.2900390625;-0.53857421875;-4.1875;-18.625;-25.125;
1441975331320974;-0.850830078125;0.1217041015625;-0.4219970703125;-0.2886962890625;3.797793508371675;16.0426268099554;9.17027420257844;0.7177734375;0.3212890625;-0.55126953125;-3.1875;-15.75;-20.8125;
1441975331329975;-0.8525390625;0.11956787109375;-0.41912841796875;-0.2886962890625;3.8410493344566548;16.044195283455238;9.175901116504143;0.71142578125;0.33837890625;-0.54052734375;-2.25;-13.0625;-19.3125;
1441975331351976;-0.8541259765625;0.11761474609375;-0.41668701171875;-0.288330078125;3.8782312510951225;16.048291521832816;9.180167356509395;0.69189453125;0.33154296875;-0.53955078125;2.25;-8.3125;-17.25;
1441975331374977;-0.85540771484375;0.115966796875;-0.41485595703125;-0.28778076171875;3.906649264042085;16.053086556798018;9.183651138683585;0.689453125;0.3603515625;-0.5625;4.3125;-5.6875;-12.9375;
1441975331389978;-0.85662841796875;0.1143798828125;-0.41314697265625;-0.28717041015625;3.933262021969428;16.058203863525517;9.186906613095644;0.7099609375;0.4013671875;-0.57763671875;5.1875;-2.5;-8.5625;
1441975331410979;-0.8577880859375;0.1134033203125;-0.4114990234375;-0.28662109375;3.9569304035715716;16.06473600237724;9.186004204614171;0.70947265625;0.419921875;-0.587890625;5.625;-1.9375;-6.9375;
1441975331432981;-0.8583984375;0.1126708984375;-0.41094970703125;-0.28582763671875;3.9661021707929813;16.070754404001164;9.186332216118366;0.69287109375;0.3798828125;-0.58056640625;2.9375;-2.25;-5.6875;
1441975331449982;-0.85882568359375;0.11181640625;-0.4112548828125;-0.28436279296875;3.965276536289343;16.079654297493096;9.187906821529396;0.70556640625;0.35791015625;-0.55078125;3.5625;1.8125;-3.5625;
1441975331470983;-0.85931396484375;0.1112060546875;-0.41107177734375;-0.28350830078125;3.969779514858558;16.08566112095758;9.188314272688949;0.697265625;0.35107421875;-0.5390625;7.1875;5.4375;-0.9375;
1441975331494984;-0.859619140625;0.1109619140625;-0.410400390625;-0.28350830078125;3.9785556815415166;16.086658596520238;9.187853133010588;0.69189453125;0.39892578125;-0.54736328125;5.25;3.4375;0.75;
1441975331515985;-0.85980224609375;0.11102294921875;-0.40924072265625;-0.28460693359375;3.992563471062278;16.08075729280789;9.187732342090042;0.7060546875;0.43408203125;-0.54248046875;0.875;0.75;1.4375;
1441975331555988;-0.860107421875;0.11114501953125;-0.4075927734375;-0.2860107421875;4.012240912950196;16.07383752189216;9.186645642566244;0.7021484375;0.41796875;-0.52099609375;-5.625;-2.25;-1.5625;
1441975331557988;-0.86041259765625;0.11114501953125;-0.4058837890625;-0.2874755859375;4.033064824557461;16.066152575402985;9.18648632471464;0.6962890625;0.4013671875;-0.5205078125;-8.3125;-4.8125;-3.8125;
1441975331576989;-0.8609619140625;0.1109619140625;-0.404052734375;-0.28857421875;4.056115877881865;16.06148354056186;9.185721479495221;0.69873046875;0.38720703125;-0.51953125;-8.875;-5.4375;-5.375;
1441975331590990;-0.861572265625;0.11083984375;-0.401611328125;-0.290283203125;4.086334841601184;16.053533646529694;9.184745504593739;0.70947265625;0.4150390625;-0.541015625;-6.1875;-5.6875;-5.0;
1441975331613991;-0.86199951171875;0.11053466796875;-0.39886474609375;-0.2928466796875;4.1210290629712825;16.038613991710136;9.187311336395375;0.72216796875;0.45654296875;-0.5546875;-8.375;-8.5625;-5.5;
1441975331629992;-0.862548828125;0.1097412109375;-0.3958740234375;-0.29547119140625;4.160566937685088;16.022478721869987;9.192664416008308;0.7099609375;0.455078125;-0.529296875;-11.9375;-9.6875;-9.0625;
1441975331650993;-0.86346435546875;0.10882568359375;-0.3924560546875;-0.2977294921875;4.205632251827204;16.01043954299469;9.19582700487044;0.67431640625;0.43994140625;-0.5244140625;-11.9375;-9.8125;-12.1875;
1441975331673994;-0.86468505859375;0.1070556640625;-0.38934326171875;-0.2989501953125;4.250205655121288;16.003811091289037;9.202194200469128;0.63232421875;0.39990234375;-0.5234375;-11.125;-11.5625;-14.375;
1441975331689995;-0.86627197265625;0.1041259765625;-0.38641357421875;-0.2991943359375;4.296992125762459;16.001546705862474;9.213781580691759;0.61767578125;0.39111328125;-0.51904296875;-3.375;-10.125;-15.9375;
1441975331711997;-0.86798095703125;0.100341796875;-0.3834228515625;-0.29925537109375;4.347754907017616;15.998616139854313;9.23045615938206;0.63134765625;0.42822265625;-0.5458984375;5.0625;-8.0625;-18.4375;
1441975331732998;-0.86956787109375;0.0963134765625;-0.3807373046875;-0.29949951171875;4.396334601796439;15.993151975124945;9.25020938667471;0.63720703125;0.4775390625;-0.5625;9.375;-7.0;-20.625;
1441975331749999;-0.87115478515625;0.091796875;-0.37847900390625;-0.2991943359375;4.441530929422589;15.989834442648759;9.272755589033066;0.638671875;0.4765625;-0.53759765625;9.8125;-6.5625;-22.0;
1441975331771000;-0.8726806640625;0.0869140625;-0.37689208984375;-0.2982177734375;4.479961014108107;15.989328406230896;9.297685204940128;0.63330078125;0.4794921875;-0.51171875;14.4375;-5.125;-22.625;
1441975331794001;-0.873779296875;0.0821533203125;-0.37628173828125;-0.297119140625;4.506393109190169;15.987657169266766;9.324546547246225;0.6806640625;0.52490234375;-0.52978515625;20.125;-2.6875;-21.375;
1441975331817003;-0.87469482421875;0.0780029296875;-0.37548828125;-0.29656982421875;4.532720273183732;15.983792683733878;9.348310462351126;0.73974609375;0.56494140625;-0.53759765625;21.75;0.375;-18.9375;
1441975331831003;-0.8751220703125;0.07452392578125;-0.37481689453125;-0.2969970703125;4.555481008917284;15.97364445941803;9.370995784908512;0.7412109375;0.55322265625;-0.5400390625;16.5625;-0.5;-17.8125;
1441975331854005;-0.8756103515625;0.0714111328125;-0.3736572265625;-0.2977294921875;4.582598304698378;15.963445035814383;9.390389649687844;0.71728515625;0.50732421875;-0.498046875;8.875;-1.4375;-18.125;
1441975331886007;-0.87628173828125;0.0682373046875;-0.3720703125;-0.29852294921875;4.615074311810132;15.9540056211659;9.408739139624977;0.6767578125;0.4501953125;-0.4736328125;4.6875;-3.8125;-19.6875;
1441975331892007;-0.877197265625;0.0650634765625;-0.37005615234375;-0.2989501953125;4.65191996070383;15.948573829939212;9.42442598606716;0.64599609375;0.42529296875;-0.45703125;4.4375;-6.125;-21.3125;
1441975331915008;-0.87811279296875;0.062255859375;-0.3680419921875;-0.299560546875;4.687741740226727;15.942993435962169;9.437960706950737;0.6484375;0.4384765625;-0.47216796875;6.375;-8.625;-21.1875;
1441975331930009;-0.878662109375;0.05975341796875;-0.3663330078125;-0.30047607421875;4.7187247433950095;15.934784557701127;9.451477260634965;0.681640625;0.47509765625;-0.48388671875;5.9375;-10.125;-19.3125;
1441975331952010;-0.8787841796875;0.0574951171875;-0.3651123046875;-0.302001953125;4.743833324938564;15.921293984315678;9.466729923883772;0.70751953125;0.49609375;-0.47998046875;3.8125;-9.75;-18.1875;
1441975331975012;-0.87860107421875;0.05615234375;-0.36407470703125;-0.3040771484375;4.7636597794407916;15.905347707382196;9.47805940883116;0.72119140625;0.51513671875;-0.4638671875;0.875;-8.0625;-16.75;
1441975331989012;-0.87811279296875;0.05584716796875;-0.3631591796875;-0.30657958984375;4.777984348834485;15.888082901847815;9.484241536635057;0.7158203125;0.4951171875;-0.4619140625;-5.1875;-7.5;-14.125;
1441975332011014;-0.8778076171875;0.05584716796875;-0.36212158203125;-0.30877685546875;4.792206977129232;15.874319332329911;9.48698621938249;0.69189453125;0.46044921875;-0.45458984375;-11.25;-7.75;-10.6875;
1441975332035015;-0.87750244140625;0.05584716796875;-0.3609619140625;-0.31097412109375;4.80764407923204;15.86078861813107;9.489332879014153;0.67138671875;0.43603515625;-0.43701171875;-10.8125;-9.0625;-9.5;
1441975332066017;-0.87725830078125;0.05572509765625;-0.35986328125;-0.31280517578125;4.822368349192171;15.84949873322668;9.491656926775605;0.65380859375;0.43359375;-0.42578125;-10.5625;-9.5625;-9.4375;
1441975332071017;-0.87689208984375;0.05584716796875;-0.35888671875;-0.31494140625;4.835171433496674;15.836263370936882;9.493578551971861;0.65869140625;0.46630859375;-0.45654296875;-8.0;-8.0625;-7.9375;
1441975332094018;-0.87640380859375;0.05615234375;-0.35821533203125;-0.31707763671875;4.843800418368967;15.822647393085138;9.495326294088738;0.7041015625;0.5205078125;-0.49560546875;-9.6875;-7.5;-6.4375;
1441975332110019;-0.87591552734375;0.056640625;-0.357666015625;-0.31890869140625;4.849736721918216;15.811268131692113;9.495506785750678;0.7255859375;0.51220703125;-0.48095703125;-10.5625;-7.6875;-6.4375;
1441975332132021;-0.87530517578125;0.057373046875;-0.357421875;-0.3206787109375;4.85107755292187;15.800015789166931;9.495015424779108;0.7353515625;0.50927734375;-0.49365234375;-9.9375;-6.875;-5.25;
1441975332154022;-0.87457275390625;0.0584716796875;-0.357666015625;-0.32232666015625;4.845355074840856;15.789263291729487;9.493466630092623;0.75439453125;0.525390625;-0.4990234375;-9.875;-6.3125;-3.5;
1441975332169023;-0.8736572265625;0.0599365234375;-0.35797119140625;-0.3240966796875;4.837100407885294;15.777912131287831;9.490291414598355;0.7763671875;0.53662109375;-0.50439453125;-9.8125;-4.4375;-0.5;
1441975332192024;-0.87249755859375;0.0615234375;-0.3585205078125;-0.32635498046875;4.8262480514654875;15.762539754752632;9.488561386233453;0.77099609375;0.53271484375;-0.51708984375;-12.5625;-3.5;1.125;
1441975332213025;-0.87127685546875;0.06298828125;-0.35894775390625;-0.32879638671875;4.8173380407268915;15.745688599679777;9.487820725778713;0.755859375;0.51318359375;-0.51806640625;-16.875;-1.3125;0.875;
1441975332229026;-0.870361328125;0.06402587890625;-0.3592529296875;-0.330810546875;4.8115115608491745;15.731726739567318;9.488060036787568;0.7099609375;0.4814453125;-0.50439453125;-18.125;0.3125;-0.3125;
1441975332260028;-0.869873046875;0.064453125;-0.359130859375;-0.33209228515625;4.812230018212616;15.723097753821735;9.48864185003928;0.6728515625;0.45556640625;-0.5126953125;-15.9375;1.3125;-1.8125;
1441975332274029;-0.86981201171875;0.0643310546875;-0.35882568359375;-0.3326416015625;4.816854487570927;15.719556740270978;9.489879558727594;0.64208984375;0.4443359375;-0.51611328125;-11.4375;0.875;-3.5625;
1441975332289030;-0.86993408203125;0.0638427734375;-0.3582763671875;-0.33294677734375;4.825511530665282;15.717717413349522;9.491909231844824;0.6083984375;0.43505859375;-0.50537109375;-5.5;0.375;-4.8125;
1441975332312031;-0.8702392578125;0.06329345703125;-0.35760498046875;-0.3330078125;4.835654870222181;15.718075702932845;9.493114348875565;0.59375;0.44775390625;-0.4970703125;-3.0;-0.5625;-5.5;
1441975332335032;-0.87042236328125;0.0628662109375;-0.35711669921875;-0.3331298828125;4.843212362030953;15.717655621176094;9.494408130309095;0.60400390625;0.46630859375;-0.50341796875;-0.5625;-1.5;-4.875;
1441975332364034;-0.87066650390625;0.062744140625;-0.3564453125;-0.3331298828125;4.851095662043498;15.719192913519594;9.49280420316593;0.62255859375;0.49658203125;-0.4853515625;0.4375;-2.3125;-3.75;
1441975332372034;-0.8707275390625;0.0631103515625;-0.3558349609375;-0.3336181640625;4.856771106685916;15.718017782921702;9.489615349076542;0.63525390625;0.50830078125;-0.4951171875;0.5;-4.125;-2.25;
1441975332394036;-0.87060546875;0.0638427734375;-0.35577392578125;-0.333984375;4.854567088446348;15.717027452224327;9.485709913799411;0.6513671875;0.5205078125;-0.48828125;-2.1875;-4.8125;-0.8125;
1441975332409036;-0.870361328125;0.06488037109375;-0.3560791015625;-0.333984375;4.846155100651916;15.718151969750222;9.480284297195167;0.65966796875;0.50146484375;-0.4794921875;-3.5;-3.4375;1.125;
1441975332432038;-0.86981201171875;0.0660400390625;-0.357177734375;-0.3341064453125;4.828756123471125;15.71659256464362;9.477186631399388;0.67724609375;0.48828125;-0.48828125;-2.6875;-2.125;3.1875;
1441975332454039;-0.86907958984375;0.067138671875;-0.3587646484375;-0.333984375;4.805680924260552;15.715155749923273;9.47568036403648;0.68603515625;0.478515625;-0.46142578125;-3.5625;0.8125;4.4375;
1441975332469040;-0.8685302734375;0.068115234375;-0.36029052734375;-0.33367919921875;4.783926757120018;15.71528398542888;9.474067775113543;0.6728515625;0.45947265625;-0.4462890625;-2.1875;3.625;5.625;
1441975332499042;-0.86773681640625;0.06915283203125;-0.36224365234375;-0.33331298828125;4.756774743315682;15.71452972052804;9.473592434077988;0.673828125;0.46875;-0.4599609375;-1.3125;3.875;5.5625;
1441975332513042;-0.866943359375;0.0703125;-0.36468505859375;-0.33251953125;4.723321249330539;15.716070276953502;9.472778957661111;0.68994140625;0.4677734375;-0.44287109375;-0.4375;5.0;6.5625;
1441975332529043;-0.8662109375;0.071533203125;-0.367431640625;-0.3310546875;4.685233526328217;15.721891258342229;9.470747082315572;0.69482421875;0.45751953125;-0.4423828125;1.125;7.375;8.5625;
1441975332552045;-0.8653564453125;0.07293701171875;-0.37066650390625;-0.32940673828125;4.640747780606307;15.728244557104098;9.468671940774147;0.7021484375;0.46484375;-0.4560546875;4.375;8.875;11.1875;
1441975332581046;-0.8641357421875;0.07470703125;-0.37451171875;-0.327880859375;4.587751184920942;15.732609877215088;9.466859052462288;0.7080078125;0.46337890625;-0.447265625;5.0625;11.0625;13.6875;
1441975332589047;-0.862548828125;0.07684326171875;-0.37896728515625;-0.326416015625;4.52608843994352;15.735383471178668;9.465174904313905;0.712890625;0.46728515625;-0.44189453125;3.8125;13.75;16.9375;
1441975332612048;-0.86083984375;0.07916259765625;-0.38348388671875;-0.3250732421875;4.462887763310266;15.737378206127431;9.462911043621737;0.7216796875;0.45947265625;-0.43896484375;2.25;17.3125;19.9375;
1441975332641050;-0.8587646484375;0.0819091796875;-0.38824462890625;-0.32427978515625;4.395468324287143;15.73522208191994;9.460576929145425;0.71435546875;0.44287109375;-0.43115234375;0.75;17.8125;20.6875;
1441975332649050;-0.8564453125;0.08544921875;-0.39324951171875;-0.32342529296875;4.321156899140904;15.734511477314578;9.453785053687033;0.69921875;0.44287109375;-0.40869140625;-2.75;19.0;23.375;
1441975332672051;-0.85394287109375;0.08941650390625;-0.3985595703125;-0.32244873046875;4.241051139577724;15.73486508854962;9.444873247729083;0.7138671875;0.4248046875;-0.41259765625;-5.375;19.875;27.0;
1441975332695053;-0.8514404296875;0.0931396484375;-0.40386962890625;-0.321533203125;4.162165751531186;15.734238358628774;9.437741893665528;0.7470703125;0.4208984375;-0.42822265625;-6.6875;21.125;29.125;
1441975332709054;-0.8487548828125;0.0968017578125;-0.4093017578125;-0.320556640625;4.0814960871642025;15.733156812512213;9.43152459109825;0.76171875;0.4306640625;-0.43115234375;-6.0625;22.0;28.875;
1441975332732055;-0.84588623046875;0.10076904296875;-0.4149169921875;-0.31982421875;3.997643465757613;15.730409665747548;9.424764191677784;0.765625;0.42431640625;-0.42724609375;-6.0625;23.3125;28.9375;
1441975332754056;-0.8427734375;0.1048583984375;-0.4208984375;-0.31890869140625;3.908323224173546;15.72795404780426;9.418179678090157;0.75244140625;0.40283203125;-0.41552734375;-8.6875;25.0;30.4375;
1441975332769057;-0.839599609375;0.10858154296875;-0.42730712890625;-0.31744384765625;3.8148872315943625;15.727371530485142;9.413992862547689;0.73583984375;0.384765625;-0.40283203125;-8.25;27.5;32.625;
1441975332793058;-0.8365478515625;0.11181640625;-0.43359375;-0.31585693359375;3.7248990850442993;15.726751888832247;9.412342666398992;0.74853515625;0.3876953125;-0.4111328125;-4.6875;30.8125;33.3125;
1441975332821060;-0.8333740234375;0.11492919921875;-0.4398193359375;-0.31463623046875;3.6364378654130567;15.72253798856593;9.413062961509103;0.7568359375;0.400390625;-0.41259765625;-2.75;31.3125;32.375;
1441975332829060;-0.829833984375;0.11871337890625;-0.446044921875;-0.313720703125;3.5442732423268954;15.717065515265691;9.410626545891496;0.7763671875;0.4296875;-0.408203125;-3.0625;31.5625;32.25;
1441975332859062;-0.82623291015625;0.123046875;-0.4525146484375;-0.31231689453125;3.445899925430049;15.716915316427981;9.402913668010964;0.78759765625;0.39599609375;-0.40380859375;-7.875;31.625;33.8125;
1441975332874063;-0.82244873046875;0.127197265625;-0.45953369140625;-0.31036376953125;3.3409259458576135;15.718695885528849;9.39674500734022;0.806640625;0.32666015625;-0.36279296875;-7.6875;30.125;34.3125;
1441975332889064;-0.81884765625;0.13092041015625;-0.4669189453125;-0.30731201171875;3.232286201380075;15.72792480630045;9.389991847883035;0.84375;0.2998046875;-0.2998046875;-3.75;28.8125;34.125;
1441975332912065;-0.81488037109375;0.13494873046875;-0.47393798828125;-0.3052978515625;3.1267990719805763;15.729587177162307;9.3844509347628;0.93505859375;0.33203125;-0.3388671875;3.1875;30.875;35.875;
1441975332933066;-0.810302734375;0.14019775390625;-0.48150634765625;-0.30322265625;3.0080623718268567;15.734082821815008;9.371411290578441;0.8984375;0.36279296875;-0.35986328125;-3.0;33.3125;38.0625;
1441975332949067;-0.8052978515625;0.14617919921875;-0.490234375;-0.29986572265625;2.8701872286451513;15.749938788316815;9.35022963586556;0.876953125;0.30712890625;-0.337890625;-7.625;35.875;43.6875;
1441975332972069;-0.79974365234375;0.15283203125;-0.5;-0.29522705078125;2.7140681220263985;15.778455818375823;9.319489398356222;0.91064453125;0.26171875;-0.3154296875;-3.8125;38.875;50.6875;
1441975332994070;-0.79315185546875;0.16070556640625;-0.5107421875;-0.29046630859375;2.53885657320916;15.811786242696918;9.279555460526186;0.97705078125;0.2890625;-0.3076171875;0.8125;42.25;61.3125;
1441975333009071;-0.78521728515625;0.17010498046875;-0.522216796875;-0.28619384765625;2.345629561725771;15.84720488838371;9.22887945270093;1.015625;0.2939453125;-0.29345703125;-2.125;47.0625;71.0;
1441975333041073;-0.77630615234375;0.1807861328125;-0.53411865234375;-0.281982421875;2.1390924844706096;15.893618954013274;9.161344658525778;1.0185546875;0.27734375;-0.275390625;-10.375;52.75;80.0625;
1441975333056073;-0.76654052734375;0.19256591796875;-0.5457763671875;-0.27850341796875;1.9285657769810258;15.949213797801873;9.076175175914042;1.01513671875;0.2373046875;-0.2509765625;-15.6875;55.6875;86.875;
1441975333085075;-0.75604248046875;0.20599365234375;-0.55731201171875;-0.2747802734375;1.7102428916855559;16.040088774525287;8.949317096126808;1.013671875;0.23095703125;-0.22607421875;-23.4375;56.25;91.9375;
1441975333106076;-0.7449951171875;0.22064208984375;-0.5684814453125;-0.2706298828125;1.4906272261249036;16.18405653879824;8.765242324557363;1.04736328125;0.18212890625;-0.2177734375;-29.8125;55.625;99.125;
1441975333115077;-0.73321533203125;0.236083984375;-0.57977294921875;-0.2657470703125;1.268868442013364;16.4070786610508;8.501209323641472;1.0947265625;0.15576171875;-0.23583984375;-32.875;55.625;106.9375;
1441975333137078;-0.720458984375;0.252197265625;-0.5911865234375;-0.26068115234375;1.0511383615389667;16.744436669072044;8.119918676773718;1.158203125;0.16796875;-0.248046875;-33.75;57.0;114.75;
1441975333152079;-0.70684814453125;0.26861572265625;-0.6025390625;-0.25537109375;0.8527494993040816;17.2713120162457;7.5476721849545445;1.18359375;0.154296875;-0.23486328125;-35.8125;59.4375;120.125;
1441975333175080;-0.69219970703125;0.28570556640625;-0.61383056640625;-0.25006103515625;0.6980115338049766;0.10763621083802893;6.661896077117876;1.17529296875;0.1376953125;-0.21240234375;-37.6875;61.625;124.125;
1441975333196081;-0.67645263671875;0.303955078125;-0.62481689453125;-0.24444580078125;0.6387001164701356;1.3099900654479644;5.404782548144066;1.11767578125;0.138671875;-0.20068359375;-41.375;64.3125;129.0625;
1441975333212082;-0.65948486328125;0.3233642578125;-0.63555908203125;-0.238037109375;0.7185001319232339;2.5449874038493965;4.111340082881403;1.07421875;0.1376953125;-0.20068359375;-45.9375;65.125;136.75;
1441975333235084;-0.6412353515625;0.34368896484375;-0.64617919921875;-0.23065185546875;0.9177546357431847;3.423086786331509;3.1726546950110173;1.04150390625;0.14306640625;-0.21630859375;-49.0625;66.25;147.25;
1441975333257085;-0.62237548828125;0.36273193359375;-0.65716552734375;-0.221923828125;1.177300662402546;3.966072758352697;2.5782371657047265;1.048828125;0.0654296875;-0.1865234375;-50.75;67.5;155.75;
1441975333272086;-0.6033935546875;0.3798828125;-0.66827392578125;-0.21234130859375;1.4596911292724;4.3098579422894066;2.192970757216435;1.08447265625;0.0283203125;-0.18359375;-41.5;70.125;158.125;
1441975333295087;-0.5843505859375;0.3956298828125;-0.6790771484375;-0.20233154296875;1.7509707995187231;4.5389920630364005;1.9282586587627089;1.04736328125;0.025390625;-0.14501953125;-30.8125;71.75;156.0;
1441975333317088;-0.56500244140625;0.41168212890625;-0.688720703125;-0.19256591796875;2.049709123875696;4.685888579258019;1.7408772287234267;0.998046875;0.0302734375;-0.14453125;-24.625;71.5625;152.875;
1441975333347090;-0.5452880859375;0.4281005859375;-0.69708251953125;-0.18304443359375;2.3521679281231185;4.77908871591748;1.6015688876580483;0.9521484375;0.07080078125;-0.1318359375;-29.375;69.625;153.75;
1441975333355091;-0.52557373046875;0.444091796875;-0.70458984375;-0.1737060546875;2.6510610963310253;4.842072630693816;1.4913109748634181;0.9619140625;0.03759765625;-0.12353515625;-35.3125;66.9375;153.8125;
1441975333376092;-0.5062255859375;0.45806884765625;-0.7120361328125;-0.1641845703125;2.9392315639436406;4.897367281759665;1.3969675075205217;0.955078125;0.00341796875;-0.14306640625;-36.125;65.5;150.625;
1441975333392093;-0.48797607421875;0.47052001953125;-0.7186279296875;-0.1551513671875;3.207609877840953;4.938609636290286;1.3205397629401734;0.89404296875;-0.005859375;-0.1123046875;-27.0625;65.3125;144.8125;
1441975333415094;-0.47076416015625;0.48297119140625;-0.72357177734375;-0.14697265625;3.4593593124656996;4.957448694078176;1.261643177540454;0.83349609375;0.07666015625;-0.107421875;-23.4375;60.6875;135.625;
1441975333443096;-0.4544677734375;0.4951171875;-0.72723388671875;-0.13970947265625;3.693687936674693;4.962999023583613;1.2124695813725959;0.8125;0.02734375;-0.125;-29.25;54.5625;127.5;
1441975333452096;-0.43951416015625;0.50457763671875;-0.731201171875;-0.1326904296875;3.9047314582380377;4.97736751712914;1.1665070880081931;0.7734375;-0.08056640625;-0.0771484375;-33.5625;49.8125;117.875;
1441975333475097;-0.42889404296875;0.5107421875;-0.73394775390625;-0.12860107421875;4.045494460811747;4.989850617366311;1.1299012771334964;0.71533203125;-0.107421875;-0.07666015625;-20.875;47.25;105.75;
1441975333496099;-0.42022705078125;0.51715087890625;-0.73504638671875;-0.12542724609375;4.162944569379215;4.9852331691051806;1.1064286824288339;0.64697265625;0.0439453125;-0.072265625;-12.75;43.75;96.375;
1441975333512100;-0.4134521484375;0.5224609375;-0.7354736328125;-0.1236572265625;4.24989710914243;4.978390689967415;1.0864120324154873;0.62744140625;-0.0126953125;-0.078125;-18.5625;34.25;83.0;
1441975333535101;-0.40899658203125;0.52447509765625;-0.73675537109375;-0.12213134765625;4.305368310824756;4.986440948919947;1.0697330034832582;0.65576171875;-0.0966796875;-0.01318359375;-20.25;26.375;66.1875;
1441975333556102;-0.4072265625;0.5234375;-0.738525390625;-0.12164306640625;4.3213076581506975;5.006343314036436;1.0556212175576962;0.685546875;-0.16259765625;0.01611328125;-3.75;20.4375;49.375;
1441975333587104;-0.407958984375;0.52020263671875;-0.74017333984375;-0.12286376953125;4.296638702673498;5.032292305554149;1.0423984347885322;0.69775390625;-0.1259765625;0.02734375;9.375;15.25;32.625;
1441975333595104;-0.41046142578125;0.516357421875;-0.7410888671875;-0.125244140625;4.246274043383302;5.054227279567796;1.0332779837938137;0.69970703125;-0.07177734375;0.01708984375;16.25;11.875;15.25;
1441975333618106;-0.4146728515625;0.51275634765625;-0.7406005859375;-0.1292724609375;4.169211093795771;5.064952689376008;1.0287902229617165;0.65673828125;-0.0439453125;-0.02294921875;16.6875;8.375;2.3125;
1441975333632106;-0.42059326171875;0.509765625;-0.73822021484375;-0.135498046875;4.061875718465012;5.060479735229418;1.0284771200165594;0.61962890625;-0.00146484375;-0.03759765625;8.9375;3.0625;-10.4375;
1441975333655108;-0.42816162109375;0.508056640625;-0.73333740234375;-0.1441650390625;3.9244517983939975;5.033449621036742;1.0349793895858619;0.64599609375;0.02294921875;-0.0419921875;-2.875;-2.625;-23.0;
1441975333676109;-0.4361572265625;0.5068359375;-0.7276611328125;-0.153076171875;3.782498560969164;4.99674207939277;1.0478332990014096;0.6845703125;0.033203125;-0.00244140625;-22.3125;-11.125;-35.1875;
1441975333692110;-0.44561767578125;0.501708984375;-0.7236328125;-0.1614990234375;3.619931696248401;4.984649970144546;1.0591254468285076;0.74169921875;-0.1259765625;-0.01123046875;-25.25;-14.3125;-44.125;
1441975333721111;-0.4576416015625;0.49237060546875;-0.72052001953125;-0.17041015625;3.4183171856312295;4.993562221107854;1.0704228578249761;0.78662109375;-0.20849609375;0.01123046875;-2.0625;-15.875;-58.5;
1441975333736112;-0.472412109375;0.48358154296875;-0.7139892578125;-0.1822509765625;3.1696477633217945;4.970858832609494;1.0989387178216692;0.7626953125;-0.06005859375;-0.02880859375;19.5625;-16.875;-72.375;
1441975333753113;-0.48687744140625;0.47802734375;-0.70465087890625;-0.19476318359375;2.926836075933779;4.905102402350517;1.1497947500191772;0.74169921875;0.0859375;-0.05078125;2.4375;-28.6875;-88.125;
1441975333775115;-0.5032958984375;0.46893310546875;-0.69537353515625;-0.2081298828125;2.647937372027518;4.845567461496772;1.2084589417169938;0.82177734375;-0.0859375;-0.06396484375;-21.3125;-42.0625;-110.625;
1441975333796116;-0.522705078125;0.45343017578125;-0.6873779296875;-0.220703125;2.3259982728574298;4.808019936259701;1.2797763518022427;0.869140625;-0.197265625;-0.01318359375;-7.4375;-44.625;-131.0;
1441975333812117;-0.54486083984375;0.4345703125;-0.6778564453125;-0.23419189453125;1.9581772440894736;4.744838360341082;1.3875270768648416;1.0224609375;-0.07763671875;-0.0810546875;27.75;-46.0;-150.625;
1441975333835118;-0.56854248046875;0.41485595703125;-0.66522216796875;-0.24945068359375;1.5571221704232352;4.600331154339038;1.5696946864946208;1.22119140625;0.18603515625;-0.041015625;37.25;-55.875;-169.375;
1441975333856119;-0.5919189453125;0.39434814453125;-0.65069580078125;-0.26611328125;1.1448622019027181;4.331671959837069;1.8692215798825456;1.4052734375;0.255859375;-0.072265625;29.5;-65.6875;-186.1875;
1441975333872120;-0.61639404296875;0.369384765625;-0.635986328125;-0.2813720703125;0.7310924642584363;3.7546366334136563;2.49965249330103;1.4716796875;0.16650390625;-0.00830078125;22.6875;-67.5625;-198.875;
1441975333894121;-0.6417236328125;0.34381103515625;-0.61798095703125;-0.296875;0.4262931513115402;1.8104726836525757;4.493737441538621;1.52490234375;0.107421875;-0.07958984375;45.5625;-68.25;-214.25;
1441975333916123;-0.66827392578125;0.31671142578125;-0.59503173828125;-0.31488037109375;0.5938892585817761;16.74346297967461;7.6002533612581455;1.6025390625;0.044921875;-0.13916015625;41.3125;-81.1875;-227.75;
1441975333932124;-0.6944580078125;0.28887939453125;-0.56634521484375;-0.3370361328125;1.1106971949703544;15.649868476075952;8.709958808969596;1.71337890625;0.453125;-0.02587890625;30.125;-99.5625;-248.25;
1441975333955125;-0.72021484375;0.25933837890625;-0.533203125;-0.3602294921875;1.7282948727433234;15.267511654596063;9.102157249409391;1.95263671875;0.22705078125;-0.07666015625;5.4375;-112.0625;-282.8125;
1441975333977126;-0.7471923828125;0.2244873046875;-0.4970703125;-0.37994384765625;2.403691025174874;15.111440453024805;9.297629369829721;2.02197265625;0.125;-0.041015625;-1.5625;-125.375;-306.4375;
1441975333992127;-0.77154541015625;0.1881103515625;-0.459228515625;-0.39813232421875;3.086722131026071;15.030558224554499;9.422500690456678;2.15673828125;0.390625;-0.087890625;27.8125;-137.4375;-325.9375;
