1441975159399141;-0.885498046875;-0.05279541015625;-0.33331298828125;-0.3194580078125;5.618321304140733;15.6836523359035;10.08222501545444;1.77734375;0.263671875;-0.2646484375;83.625;-46.3125;-123.125;
1441975159415142;-0.8829345703125;-0.05340576171875;-0.3345947265625;-0.3251953125;5.621742187358705;15.639651563621992;10.10196424635284;1.58984375;0.2451171875;-0.220703125;15.5625;-50.75;-86.6875;
1441975159437143;-0.88104248046875;-0.054931640625;-0.33514404296875;-0.32940673828125;5.633637109003583;15.606745105986093;10.12148126058175;1.56201171875;-0.0341796875;-0.0556640625;-37.125;-49.3125;-80.375;
1441975159461144;-0.8809814453125;-0.061767578125;-0.33624267578125;-0.32720947265625;5.649654195410112;15.608442126553776;10.161359639790547;1.45458984375;-0.2314453125;-0.05615234375;-33.5625;-47.0;-86.625;
1441975159475145;-0.8843994140625;-0.07440185546875;-0.33624267578125;-0.31524658203125;5.678649287612069;15.671592037581249;10.212242867794917;1.2412109375;-0.27197265625;-0.04638671875;10.5625;-27.0;-92.375;
1441975159498147;-0.888671875;-0.09271240234375;-0.33148193359375;-0.30316162109375;5.77997864720243;15.741044617916854;10.280359566940476;1.0234375;-0.19873046875;-0.1865234375;74.8125;-11.5625;-90.8125;
1441975159519148;-0.890625;-0.106689453125;-0.3321533203125;-0.29193115234375;5.804322543747377;15.793374833060632;10.345187428295977;0.9365234375;0.1630859375;-0.25;105.4375;-1.5625;-84.9375;
1441975159543149;-0.8907470703125;-0.1171875;-0.3345947265625;-0.28460693359375;5.804106330166925;15.818671520256586;10.403309124666835;0.86669921875;0.40380859375;-0.40869140625;86.4375;8.3125;-68.75;
1441975159566150;-0.89013671875;-0.12640380859375;-0.3388671875;-0.2774658203125;5.778780364682182;15.838276563027515;10.460991795807315;0.818359375;0.43017578125;-0.42236328125;57.125;14.625;-53.375;
1441975159579151;-0.8885498046875;-0.13238525390625;-0.3447265625;-0.2724609375;5.72884420091288;15.842723600906881;10.509287149171097;0.82763671875;0.4091796875;-0.40283203125;51.3125;22.4375;-45.4375;
1441975159595152;-0.886962890625;-0.13531494140625;-0.3511962890625;-0.267822265625;5.660067471924942;15.84659354912696;10.5425541896224;0.75;0.4375;-0.41552734375;32.375;29.375;-26.3125;
1441975159618153;-0.8851318359375;-0.1363525390625;-0.35882568359375;-0.26318359375;5.570845863116614;15.84875271239804;10.569084370239086;0.693359375;0.41064453125;-0.49267578125;19.625;33.625;-8.9375;
1441975159639155;-0.8829345703125;-0.13690185546875;-0.36767578125;-0.25799560546875;5.464850965472042;15.850132350117505;10.596809793055966;0.701171875;0.37890625;-0.52294921875;12.375;38.375;1.375;
1441975159656156;-0.88055419921875;-0.1370849609375;-0.37762451171875;-0.251708984375;5.341948832328339;15.85442161039886;10.625032847288308;0.716796875;0.3974609375;-0.5009765625;14.0;44.75;7.9375;
1441975159678157;-0.8780517578125;-0.13720703125;-0.38800048828125;-0.2445068359375;5.2106628808147875;15.861985413132413;10.653582011498788;0.7236328125;0.43798828125;-0.51318359375;19.25;52.125;15.5625;
1441975159701158;-0.87518310546875;-0.13671875;-0.39910888671875;-0.23687744140625;5.06695145578479;15.869149914897129;10.681432185317838;0.70361328125;0.44189453125;-0.521484375;23.125;57.5;20.3125;
1441975159715159;-0.87176513671875;-0.13482666015625;-0.4110107421875;-0.2303466796875;4.912560749930648;15.86713212913111;10.70700921627874;0.736328125;0.49462890625;-0.5107421875;25.75;60.8125;27.75;
1441975159738160;-0.86773681640625;-0.131591796875;-0.4237060546875;-0.224365234375;4.74541566083316;15.858685497105656;10.730424401025694;0.7890625;0.52099609375;-0.490234375;16.9375;61.8125;33.5625;
1441975159759161;-0.86309814453125;-0.12646484375;-0.43701171875;-0.2196044921875;4.567498479056136;15.840933986558326;10.749300080404426;0.8515625;0.5224609375;-0.49951171875;9.1875;64.375;38.5625;
1441975159783163;-0.85821533203125;-0.12054443359375;-0.4503173828125;-0.21502685546875;4.385996955554112;15.821326720463905;10.765686616629283;0.87890625;0.517578125;-0.5146484375;-3.4375;67.4375;45.5;
1441975159806164;-0.85247802734375;-0.11309814453125;-0.464111328125;-0.212646484375;4.200430187507585;15.784381418176686;10.78322350665998;0.89501953125;0.47265625;-0.556640625;-9.875;70.25;48.125;
1441975159819165;-0.84637451171875;-0.10418701171875;-0.4779052734375;-0.21087646484375;4.009468123941803;15.743075980548209;10.796320346975149;0.9111328125;0.50244140625;-0.45068359375;-22.1875;68.125;52.0;
1441975159835166;-0.83978271484375;-0.09429931640625;-0.49188232421875;-0.20977783203125;3.813852267574768;15.694462995215444;10.809922805511885;0.939453125;0.3857421875;-0.41650390625;-32.3125;66.0;51.875;
1441975159858167;-0.83349609375;-0.0848388671875;-0.5050048828125;-0.2076416015625;3.623881856767703;15.65384549396057;10.821953495861795;0.97900390625;0.33544921875;-0.3603515625;-39.5;64.6875;51.8125;
1441975159879168;-0.82720947265625;-0.0760498046875;-0.51776123046875;-0.204833984375;3.437476205033652;15.615034113879423;10.838012534159404;0.98876953125;0.3193359375;-0.43603515625;-35.1875;67.4375;52.0625;
1441975159895169;-0.82086181640625;-0.06719970703125;-0.53021240234375;-0.20159912109375;3.2511310927462;15.577791125916997;10.854122476046383;1.005859375;0.2919921875;-0.35400390625;-28.5625;63.5625;49.5;
1441975159918171;-0.81402587890625;-0.0577392578125;-0.54248046875;-0.199462890625;3.0670380690901182;15.529471227759858;10.874083868311319;1.03515625;0.28076171875;-0.3388671875;-26.1875;62.75;50.75;
1441975159939172;-0.8070068359375;-0.04791259765625;-0.55438232421875;-0.19781494140625;2.885995565150342;15.47546905573647;10.896179285051906;1.05712890625;0.2978515625;-0.28759765625;-32.625;60.9375;51.8125;
1441975159955173;-0.79998779296875;-0.03857421875;-0.56671142578125;-0.19366455078125;2.6917151894078284;15.432679524197786;10.919908754056134;1.1064453125;0.3046875;-0.322265625;-36.625;62.5625;52.0625;
1441975159979174;-0.7930908203125;-0.0302734375;-0.57904052734375;-0.1866455078125;2.4888050973645814;15.405854252788473;10.94399137030068;1.15869140625;0.2275390625;-0.3271484375;-25.625;67.0625;53.6875;
1441975159999175;-0.78607177734375;-0.024169921875;-0.5914306640625;-0.17828369140625;2.290775038684095;15.374462217907602;10.98717223563443;1.140625;0.2021484375;-0.31982421875;-9.125;70.75;59.5625;
1441975160015176;-0.77899169921875;-0.01739501953125;-0.60302734375;-0.171142578125;2.1013770252100117;15.333821857232426;11.031381345704858;1.115234375;0.33935546875;-0.2216796875;9.0;70.3125;65.125;
1441975160038177;-0.77099609375;-0.0079345703125;-0.61468505859375;-0.16650390625;1.9066279697163775;15.266735959712495;11.080443998397572;1.08154296875;0.37451171875;-0.2412109375;0.875;69.625;68.375;
1441975160059179;-0.762939453125;0.001220703125;-0.62640380859375;-0.16021728515625;1.704324950771966;15.201294368913544;11.135916216473333;1.09423828125;0.31494140625;-0.20654296875;-20.375;70.1875;69.5;
1441975160082180;-0.75482177734375;0.00848388671875;-0.63787841796875;-0.1527099609375;1.50886163851839;15.121707730668469;11.218077363595352;1.123046875;0.23779296875;-0.23583984375;-14.0625;74.6875;70.0;
1441975160098181;-0.74713134765625;0.0150146484375;-0.64874267578125;-0.14422607421875;1.3188005507550862;15.03897464693478;11.310211038882343;1.10595703125;0.2685546875;-0.1962890625;-1.3125;74.8125;70.4375;
1441975160119182;-0.73931884765625;0.0225830078125;-0.658935546875;-0.136962890625;1.1346041030796077;14.929453966147573;11.41959571001945;1.09521484375;0.31005859375;-0.19775390625;6.375;73.4375;75.3125;
1441975160142183;-0.73162841796875;0.02984619140625;-0.66864013671875;-0.12957763671875;0.956880648860938;14.789017754457111;11.561453322999348;1.09619140625;0.28173828125;-0.18994140625;-3.125;71.875;74.75;
1441975160158184;-0.72430419921875;0.03643798828125;-0.67767333984375;-0.12213134765625;0.7910950148987507;14.605014134066977;11.749689733325045;1.08642578125;0.2236328125;-0.17431640625;-1.5625;70.0625;71.5;
1441975160179185;-0.71734619140625;0.0423583984375;-0.685791015625;-0.11566162109375;0.6469826708745776;14.343256312822847;12.01419127950061;1.0966796875;0.21533203125;-0.171875;1.3125;67.625;69.125;
1441975160202187;-0.7115478515625;0.04913330078125;-0.692138671875;-0.11083984375;0.524317508092148;14.04793534448552;12.301890313317946;1.064453125;0.25537109375;-0.150390625;0.0;63.1875;66.6875;
1441975160218188;-0.7066650390625;0.05859375;-0.6968994140625;-0.107666015625;0.4054927105630171;13.724979507623967;12.599469108262516;1.0009765625;0.27197265625;-0.16455078125;-9.75;53.5625;65.25;
1441975160241189;-0.7025146484375;0.06884765625;-0.70062255859375;-0.104736328125;0.2912198233547226;13.29827979105098;12.996489608164913;0.96533203125;0.2021484375;-0.166015625;-27.3125;43.0625;64.8125;
1441975160262190;-0.6993408203125;0.07666015625;-0.7034912109375;-0.1011962890625;0.20163762736638915;12.658671522299652;13.618765598196749;0.95751953125;0.07470703125;-0.13916015625;-30.75;34.625;58.75;
1441975160278191;-0.69757080078125;0.08148193359375;-0.7052001953125;-0.09735107421875;0.1426755462004593;11.85289957617881;14.420581144362643;0.92529296875;0.017578125;-0.11865234375;-18.3125;26.875;47.625;
1441975160299192;-0.6973876953125;0.08447265625;-0.7054443359375;-0.094482421875;0.10411412989673378;11.195019454624257;15.078001945121269;0.86669921875;0.025390625;-0.1318359375;-4.8125;19.5625;37.0625;
1441975160322194;-0.69866943359375;0.08709716796875;-0.70404052734375;-0.09326171875;0.06624773891697906;11.080397748143074;15.186919542506134;0.81201171875;0.05224609375;-0.13427734375;-0.5;9.0625;26.75;
1441975160338195;-0.70147705078125;0.09130859375;-0.70062255859375;-0.0936279296875;0.020027648583458495;14.135546865237055;12.11306092212037;0.77783203125;0.13671875;-0.11865234375;-6.25;-4.125;23.1875;
1441975160359196;-0.7054443359375;0.09521484375;-0.69598388671875;-0.09478759765625;0.07673160011320365;17.743242034274477;8.484662600032031;0.78857421875;0.07666015625;-0.1396484375;-18.625;-17.4375;17.1875;
1441975160382197;-0.71002197265625;0.09674072265625;-0.69110107421875;-0.09478759765625;0.15412509620164072;17.90548262122634;8.316129698019834;0.77685546875;0.03857421875;-0.13427734375;-20.8125;-27.3125;9.0625;
1441975160397198;-0.71551513671875;0.09619140625;-0.6856689453125;-0.0933837890625;0.24291561293220762;17.88344228723242;8.346045017407913;0.7939453125;0.02490234375;-0.11279296875;-6.25;-32.6875;2.75;
1441975160421199;-0.721923828125;0.0938720703125;-0.67950439453125;-0.09130859375;0.3443885536300062;17.7965490986035;8.450721798567578;0.8212890625;0.015625;-0.11572265625;8.0;-38.375;-1.5625;
1441975160442201;-0.7296142578125;0.090087890625;-0.67205810546875;-0.08935546875;0.466512146973837;17.671684731381127;8.598777812491141;0.84521484375;0.0380859375;-0.1259765625;17.75;-45.3125;-5.625;
1441975160458201;-0.7379150390625;0.08563232421875;-0.6636962890625;-0.0882568359375;0.6019957385602043;17.545128353868396;8.747652396779701;0.865234375;0.072265625;-0.15234375;22.8125;-53.9375;-11.5625;
1441975160481203;-0.7462158203125;0.08074951171875;-0.65496826171875;-0.0880126953125;0.7421896749822153;17.429057943033992;8.88416512326826;0.888671875;0.10546875;-0.16845703125;22.3125;-60.0;-16.75;
1441975160502204;-0.7545166015625;0.07550048828125;-0.64599609375;-0.0885009765625;0.8864346251673518;17.324484344610767;9.007618032191656;0.92822265625;0.12890625;-0.158203125;20.3125;-63.4375;-20.8125;
1441975160517205;-0.76226806640625;0.06982421875;-0.63726806640625;-0.08978271484375;1.027008685512577;17.221110689005876;9.128283371912953;0.9951171875;0.15087890625;-0.18359375;18.5625;-64.5;-24.5;
1441975160541206;-0.769287109375;0.0645751953125;-0.6290283203125;-0.092041015625;1.1599909316816326;17.126485408433098;9.234445300715628;1.078125;0.197265625;-0.22802734375;17.0625;-60.4375;-27.1875;
1441975160562207;-0.775146484375;0.06060791015625;-0.62176513671875;-0.0948486328125;1.2759804835833812;17.053279851958266;9.311711836136219;1.09912109375;0.23095703125;-0.2548828125;11.5;-55.125;-26.75;
1441975160578208;-0.7799072265625;0.057861328125;-0.61566162109375;-0.09698486328125;1.371330095416519;17.01351773919353;9.353343197259917;1.0654296875;0.24755859375;-0.2685546875;4.75;-47.125;-22.0625;
1441975160601210;-0.78411865234375;0.055908203125;-0.6103515625;-0.09820556640625;1.452907814584224;17.000642007942833;9.368697045409824;0.98291015625;0.23193359375;-0.2685546875;2.8125;-39.1875;-14.4375;
1441975160629211;-0.78741455078125;0.0535888671875;-0.6063232421875;-0.097900390625;1.5149742693432302;17.002354167418503;9.377317215173324;0.91455078125;0.203125;-0.24609375;3.625;-35.625;-9.0625;
1441975160637212;-0.79046630859375;0.04986572265625;-0.60333251953125;-0.093505859375;1.561772490988432;17.050002779733003;9.36269608698175;0.90087890625;0.1875;-0.2080078125;11.9375;-29.625;-5.4375;
1441975160661213;-0.7923583984375;0.0443115234375;-0.60211181640625;-0.0877685546875;1.5862765066117255;17.086112020226853;9.372813566134809;0.90625;0.125;-0.2548828125;34.375;-22.375;-1.375;
1441975160682214;-0.7933349609375;0.0367431640625;-0.6024169921875;-0.08050537109375;1.59212334352102;17.114394927835086;9.405425843265935;0.95458984375;0.15576171875;-0.255859375;47.0;-11.0625;-1.625;
1441975160697215;-0.79437255859375;0.03045654296875;-0.60211181640625;-0.074951171875;1.604179290059264;17.13264883694811;9.435696731789513;0.97802734375;0.27783203125;-0.310546875;62.9375;2.75;3.875;
1441975160721216;-0.79437255859375;0.02734375;-0.60235595703125;-0.073974609375;1.6062939904364808;17.110055845929317;9.475048622343245;1.00341796875;0.37744140625;-0.373046875;52.3125;3.0625;10.125;
1441975160742218;-0.79345703125;0.025146484375;-0.60369873046875;-0.07373046875;1.59222145414817;17.079546005253007;9.515645695498538;0.99658203125;0.42529296875;-0.32763671875;21.0625;6.0625;11.875;
1441975160757219;-0.79193115234375;0.02166748046875;-0.60614013671875;-0.0714111328125;1.5632032567629053;17.060113256550967;9.558993920107254;0.94091796875;0.345703125;-0.31103515625;12.9375;13.9375;9.25;
1441975160781220;-0.7890625;0.01812744140625;-0.6102294921875;-0.06854248046875;1.5098821616239553;17.03559880918913;9.609973015520271;0.890625;0.3017578125;-0.2734375;26.125;20.0;8.625;
1441975160818222;-0.786376953125;0.01409912109375;-0.61407470703125;-0.0665283203125;1.4632416917002962;16.98903480509737;9.681463054482652;0.90625;0.30615234375;-0.25048828125;28.5;30.6875;11.125;
1441975160820222;-0.78375244140625;0.01068115234375;-0.61749267578125;-0.0660400390625;1.4235231298534243;16.922502262988196;9.764103904479834;0.880859375;0.36572265625;-0.28271484375;27.125;32.4375;10.125;
1441975160856224;-0.78106689453125;0.00946044921875;-0.620849609375;-0.06732177734375;1.3835429999499915;16.850412453986177;9.836094797960238;0.8271484375;0.3857421875;-0.291015625;17.75;32.5625;8.8125;
1441975160886226;-0.7784423828125;0.0089111328125;-0.6239013671875;-0.06884765625;1.346165863843169;16.7814088027861;9.901215889917244;0.810546875;0.30810546875;-0.25244140625;1.125;29.8125;7.1875;
1441975160889226;-0.776123046875;0.00921630859375;-0.62664794921875;-0.0701904296875;1.310881665091288;16.728425182341;9.947586033323503;0.7646484375;0.23974609375;-0.228515625;-3.6875;27.375;4.6875;
1441975160901227;-0.77423095703125;0.00958251953125;-0.6287841796875;-0.0721435546875;1.28556140374521;16.669613750406338;9.99701324218061;0.7548828125;0.189453125;-0.236328125;-6.875;25.8125;5.3125;
1441975160922228;-0.7725830078125;0.00927734375;-0.6304931640625;-0.07501220703125;1.2710999276606407;16.586773731099207;10.069436075884907;0.76806640625;0.19287109375;-0.23876953125;-9.5;21.75;3.5;
1441975160937229;-0.771240234375;0.0087890625;-0.63165283203125;-0.07867431640625;1.2674325404457034;16.49187024514866;10.151380911427415;0.76123046875;0.22216796875;-0.25537109375;-10.875;21.0;-1.25;
1441975160961230;-0.77001953125;0.00872802734375;-0.63262939453125;-0.08294677734375;1.2678199918187616;16.394122541589248;10.231933612510844;0.78125;0.2412109375;-0.287109375;-14.125;19.6875;-4.3125;
1441975160982231;-0.7694091796875;0.0084228515625;-0.6328125;-0.0867919921875;1.2786697835156675;16.313568952489465;10.297972696082706;0.8154296875;0.2568359375;-0.2763671875;-17.9375;17.375;-4.375;
1441975160998232;-0.7694091796875;0.0084228515625;-0.63232421875;-0.09063720703125;1.2979283954417764;16.2502572526104;10.345507325722615;0.83447265625;0.25048828125;-0.29052734375;-15.625;12.1875;-5.4375;
1441975161021234;-0.7691650390625;0.00811767578125;-0.63226318359375;-0.0931396484375;1.308581084263529;16.201266156248813;10.385473073434094;0.8212890625;0.2109375;-0.27490234375;-16.6875;6.3125;-7.0625;
1441975161042235;-0.76910400390625;0.00823974609375;-0.632080078125;-0.09490966796875;1.3165563381754302;16.173783907349964;10.405187572977283;0.8349609375;0.1962890625;-0.27294921875;-10.125;8.875;-4.9375;
1441975161058236;-0.76934814453125;0.0087890625;-0.631591796875;-0.0963134765625;1.3253093623974304;16.163971760661127;10.406982588075723;0.890625;0.1689453125;-0.27880859375;-8.6875;6.8125;-2.6875;
1441975161081237;-0.76995849609375;0.00933837890625;-0.6304931640625;-0.09796142578125;1.3419609349581927;16.159240608134894;10.402626579217223;0.9296875;0.1376953125;-0.2646484375;-9.0;2.875;-2.5625;
1441975161102238;-0.7708740234375;0.0111083984375;-0.62908935546875;-0.0999755859375;1.3589749305844396;16.16923627096689;10.377084983431294;0.90869140625;0.1337890625;-0.28564453125;-9.8125;0.5;-3.9375;
1441975161117239;-0.771240234375;0.013916015625;-0.62811279296875;-0.1025390625;1.3672721368413914;16.17387010141916;10.350406871743596;0.89697265625;0.0849609375;-0.30029296875;-17.0625;-1.9375;-3.375;
1441975161141240;-0.77191162109375;0.0164794921875;-0.6270751953125;-0.103759765625;1.373417859857097;16.200697388345667;10.308067575659054;0.9013671875;0.078125;-0.2578125;-22.5625;-1.5;-0.75;
1441975161162242;-0.77325439453125;0.01812744140625;-0.625244140625;-0.1043701171875;1.391409708801215;16.238279785625682;10.261131525049102;0.88232421875;0.05029296875;-0.26318359375;-16.25;-2.5;0.6875;
1441975161186243;-0.77484130859375;0.019287109375;-0.62310791015625;-0.10528564453125;1.4167519559842172;16.268216392301845;10.222559808838568;0.88427734375;0.07958984375;-0.2802734375;-9.8125;-6.875;0.875;
1441975161201244;-0.77679443359375;0.02154541015625;-0.6204833984375;-0.10595703125;1.4431864538994847;16.32080397196369;10.15781252915856;0.9033203125;0.13427734375;-0.25439453125;-8.0;-11.4375;0.75;
1441975161222245;-0.77886962890625;0.02508544921875;-0.61773681640625;-0.10626220703125;1.465841355732968;16.394442710703768;10.068283866132274;0.9033203125;0.1044921875;-0.2392578125;-10.875;-16.5;4.0625;
1441975161237246;-0.781005859375;0.028564453125;-0.614990234375;-0.1053466796875;1.486196806760059;16.48500588765651;9.967060021205416;0.89013671875;0.06884765625;-0.22509765625;-14.1875;-20.0625;9.125;
1441975161260247;-0.7835693359375;0.0308837890625;-0.6119384765625;-0.103515625;1.5144153413829524;16.57807359241053;9.871815371204411;0.8896484375;0.05029296875;-0.1962890625;-8.5;-22.5625;12.0;
1441975161289249;-0.78656005859375;0.0322265625;-0.60833740234375;-0.1016845703125;1.554569755724301;16.661210627579198;9.790426353348664;0.9033203125;0.0625;-0.1953125;0.375;-25.75;10.875;
1441975161297249;-0.78961181640625;0.033203125;-0.6044921875;-0.100341796875;1.600746409459324;16.72968133654148;9.723136801099226;0.908203125;0.08056640625;-0.19873046875;4.5;-29.5;7.5;
1441975161320251;-0.792724609375;0.03466796875;-0.6004638671875;-0.09930419921875;1.64920173065433;16.79625214123661;9.654467573942938;0.91845703125;0.10302734375;-0.1943359375;3.875;-31.8125;5.5625;
1441975161349252;-0.7958984375;0.03717041015625;-0.5963134765625;-0.0982666015625;1.6974129227993218;16.871172169986163;9.573192036465258;0.9013671875;0.07080078125;-0.16748046875;0.4375;-35.25;4.8125;
1441975161358253;-0.7991943359375;0.0406494140625;-0.591796875;-0.09747314453125;1.7491519276963168;16.950354096393006;9.482569559858897;0.90673828125;0.04296875;-0.14306640625;-2.9375;-39.1875;7.625;
1441975161396255;-0.8028564453125;0.0450439453125;-0.58648681640625;-0.09759521484375;1.8116272690554307;17.024333259428552;9.389484188531936;0.96240234375;0.0771484375;-0.1640625;-7.25;-41.9375;13.125;
1441975161403255;-0.8067626953125;0.05047607421875;-0.58050537109375;-0.0985107421875;1.8825472058007395;17.094208705564128;9.292807953689756;1.0400390625;0.115234375;-0.22119140625;-14.0;-45.9375;16.3125;
1441975161417256;-0.8106689453125;0.0567626953125;-0.57415771484375;-0.10003662109375;1.9576684061961527;17.158575540479816;9.195434621518041;1.12109375;0.13134765625;-0.26220703125;-20.75;-49.875;18.5;
1441975161447258;-0.81414794921875;0.06329345703125;-0.56817626953125;-0.10186767578125;2.0279549707518787;17.21369033098765;9.10496536444764;1.16943359375;0.09912109375;-0.3076171875;-27.625;-51.625;17.625;
1441975161463259;-0.8167724609375;0.06939697265625;-0.56353759765625;-0.10296630859375;2.081182414945952;17.266546762599305;9.021668797587317;1.15234375;0.0322265625;-0.3232421875;-31.0625;-48.1875;14.125;
1441975161477260;-0.81854248046875;0.0753173828125;-0.56011962890625;-0.1033935546875;2.1182104439674654;17.320680060291036;8.940734103395995;1.1044921875;-0.0234375;-0.3271484375;-27.875;-38.8125;12.8125;
1441975161500261;-0.8201904296875;0.08148193359375;-0.55694580078125;-0.10302734375;2.152635817148303;17.384497756933406;8.852395496384549;1.05517578125;-0.00634765625;-0.337890625;-23.375;-28.9375;16.875;
1441975161523262;-0.82196044921875;0.08758544921875;-0.5535888671875;-0.10198974609375;2.190860277420951;17.454038342313797;8.7612669501258;1.0263671875;-9.765625E-4;-0.39794921875;-20.6875;-23.875;21.8125;
1441975161562265;-0.8233642578125;0.0927734375;-0.5509033203125;-0.10040283203125;2.2223571705659553;17.519729045493413;8.680125582625385;1.017578125;-0.02099609375;-0.45068359375;-17.875;-22.375;22.625;
1441975161567265;-0.82440185546875;0.09649658203125;-0.549072265625;-0.09844970703125;2.2452105137572547;17.57575773091644;8.616401361842184;1.01953125;-0.0283203125;-0.43505859375;-12.3125;-19.5;20.75;
1441975161583266;-0.8250732421875;0.09954833984375;-0.5477294921875;-0.0970458984375;2.2619342475291657;17.61836215383481;8.566666220434264;0.9853515625;-0.02880859375;-0.40673828125;-5.25;-14.6875;16.5625;
1441975161604267;-0.82562255859375;0.1026611328125;-0.54669189453125;-0.09515380859375;2.275747296701629;17.666960629675213;8.51278820266843;0.919921875;0.00390625;-0.38427734375;-4.75;-10.625;14.625;
1441975161620268;-0.826171875;0.1055908203125;-0.54571533203125;-0.092529296875;2.2900864125935905;17.72244780851604;8.455800507558743;0.8447265625;-0.03125;-0.37158203125;-3.1875;-8.3125;15.0;
1441975161643269;-0.82672119140625;0.10784912109375;-0.544921875;-0.08953857421875;2.303611774936457;17.776435420188953;8.404665777145722;0.7861328125;-0.06494140625;-0.36279296875;0.3125;-7.4375;14.6875;
1441975161664270;-0.8272705078125;0.1097412109375;-0.54425048828125;-0.08636474609375;2.316726923975665;17.829223582385318;8.357052260584025;0.7421875;-0.0517578125;-0.35791015625;4.6875;-5.875;14.6875;
1441975161680271;-0.82757568359375;0.1121826171875;-0.54364013671875;-0.08416748046875;2.3277229369804324;17.87429763991075;8.310799866992717;0.76318359375;9.765625E-4;-0.3828125;8.3125;-4.0;16.9375;
1441975161704273;-0.82745361328125;0.115966796875;-0.5430908203125;-0.08343505859375;2.3352652274575174;17.912422717922222;8.25978355996268;0.83447265625;0.072265625;-0.41455078125;4.0625;-2.75;21.5;
1441975161726274;-0.8270263671875;0.12115478515625;-0.54248046875;-0.08465576171875;2.3406450445748623;17.938149088224364;8.207201100482873;0.8828125;0.107421875;-0.44287109375;-6.125;-0.8125;26.0;
1441975161740275;-0.826416015625;0.12750244140625;-0.54150390625;-0.08734130859375;2.34772391474675;17.954882451515754;8.152529005664643;0.8955078125;0.1005859375;-0.43701171875;-19.8125;-0.1875;26.9375;
1441975161763276;-0.82568359375;0.1348876953125;-0.5404052734375;-0.09027099609375;2.3560736080167404;17.97647719784054;8.087588620955355;0.8828125;0.08984375;-0.42822265625;-31.1875;-0.8125;27.0625;
1441975161784277;-0.82464599609375;0.1431884765625;-0.539306640625;-0.093505859375;2.363403594539958;0.0016185433650364497;8.013900012123628;0.86962890625;0.03955078125;-0.4462890625;-37.0;-0.25;28.3125;
1441975161801278;-0.82342529296875;0.15142822265625;-0.538330078125;-0.09674072265625;2.3688975271873627;0.026516739985109828;7.940648508530889;0.87255859375;0.0078125;-0.462890625;-42.1875;1.4375;29.8125;
1441975161825280;-0.82220458984375;0.15899658203125;-0.5374755859375;-0.09967041015625;2.373463028219987;0.049923178090200575;7.872947146265896;0.8740234375;-0.0146484375;-0.4658203125;-42.8125;2.75;28.75;
1441975161846281;-0.8211669921875;0.1658935546875;-0.53643798828125;-0.10247802734375;2.380610561797578;0.0687021513232366;7.813090719130649;0.85498046875;-0.02783203125;-0.4697265625;-39.0625;3.9375;25.9375;
1441975161860282;-0.82025146484375;0.1722412109375;-0.53533935546875;-0.1051025390625;2.3889628393057603;0.0848477346977098;7.758880320084999;0.83935546875;-0.029296875;-0.45751953125;-36.5;2.625;22.875;
1441975161891283;-0.81939697265625;0.177978515625;-0.53424072265625;-0.1075439453125;2.3973901971411147;0.09818739619768586;7.710733572203428;0.8359375;-0.0322265625;-0.4453125;-34.0;1.125;20.75;
1441975161920285;-0.8187255859375;0.18280029296875;-0.533203125;-0.10986328125;2.405338813048614;0.10574934621450485;7.672767897057554;0.84619140625;-0.046875;-0.43212890625;-31.6875;-0.1875;17.375;
1441975161923285;-0.818359375;0.1864013671875;-0.53204345703125;-0.112060546875;2.414627308265893;0.1046119775867749;7.6490896602644485;0.85400390625;-0.05517578125;-0.4111328125;-28.25;-1.25;12.875;
1441975161951287;-0.81854248046875;0.1890869140625;-0.5301513671875;-0.11492919921875;2.4309603502141877;0.08588739681570605;7.643810084064609;0.86181640625;-0.05322265625;-0.4013671875;-23.9375;-3.4375;7.1875;
1441975161964288;-0.8192138671875;0.1915283203125;-0.52752685546875;-0.1185302734375;2.454964846017903;0.05425645483276937;7.649221715701707;0.865234375;-0.0166015625;-0.4033203125;-23.625;-7.3125;2.3125;
1441975161980288;-0.82012939453125;0.19390869140625;-0.52410888671875;-0.12310791015625;2.485634796434165;0.009061869172146715;7.663957441170125;0.876953125;-0.0146484375;-0.41064453125;-27.0;-11.5625;-2.4375;
1441975162004290;-0.82147216796875;0.19573974609375;-0.5201416015625;-0.12823486328125;2.522319423099763;17.952555979298765;7.689848521993295;0.8779296875;-0.037109375;-0.40625;-32.875;-15.4375;-8.25;
1441975162024291;-0.82318115234375;0.19671630859375;-0.5157470703125;-0.1331787109375;2.5650308035656195;17.89178447692573;7.724088875760164;0.8671875;-0.05322265625;-0.400390625;-34.75;-18.75;-15.0;
1441975162040292;-0.8253173828125;0.19677734375;-0.5111083984375;-0.1378173828125;2.612881625231413;17.828588734746646;7.765816848970061;0.84521484375;-0.07470703125;-0.39794921875;-32.6875;-21.375;-20.8125;
1441975162063293;-0.8277587890625;0.196044921875;-0.50616455078125;-0.14227294921875;2.6659042697261235;17.763033897928636;7.813804206244831;0.82470703125;-0.07568359375;-0.3935546875;-28.625;-23.75;-25.625;
1441975162084294;-0.83050537109375;0.19464111328125;-0.50091552734375;-0.146728515625;2.724179806869308;17.694529836892848;7.867412855189214;0.81689453125;-0.0478515625;-0.40185546875;-24.9375;-25.5625;-28.625;
1441975162101295;-0.83331298828125;0.1927490234375;-0.4957275390625;-0.15093994140625;2.783466533825018;17.628048284101244;7.922049850645085;0.82666015625;-0.02392578125;-0.421875;-23.125;-26.75;-31.125;
1441975162131297;-0.83599853515625;0.1904296875;-0.490966796875;-0.154541015625;2.8396728119805976;17.568285575223268;7.974455727709913;0.85107421875;-0.00732421875;-0.439453125;-20.3125;-26.8125;-32.6875;
1441975162144298;-0.83831787109375;0.18768310546875;-0.4871826171875;-0.1573486328125;2.8860537578158567;17.517351560432438;8.023600866444271;0.869140625;-0.0107421875;-0.4580078125;-16.1875;-24.9375;-33.5;
1441975162160299;-0.840087890625;0.18426513671875;-0.48480224609375;-0.1593017578125;2.9171681945239296;17.474079470948503;8.072163577125854;0.92041015625;0.0078125;-0.4794921875;-10.1875;-20.3125;-31.875;
1441975162182300;-0.841064453125;0.18060302734375;-0.4840087890625;-0.16064453125;2.929372186334394;17.437886101157545;8.117950323322802;1.00537109375;0.0498046875;-0.5205078125;-2.1875;-13.1875;-28.875;
1441975162205301;-0.84136962890625;0.17718505859375;-0.48419189453125;-0.16241455078125;2.9282238845718234;17.39991550136982;8.163112991298725;1.0966796875;0.09912109375;-0.560546875;3.25;-4.5625;-24.625;
1441975162220302;-0.84100341796875;0.174560546875;-0.48492431640625;-0.16485595703125;2.9176211007112816;17.360133463300397;8.204018030344605;1.12353515625;0.1533203125;-0.58251953125;2.375;2.9375;-19.875;
1441975162242303;-0.8402099609375;0.17266845703125;-0.486083984375;-0.16754150390625;2.900434654056729;17.322130344602495;8.23918464907094;1.0302734375;0.140625;-0.53515625;-3.5625;7.75;-17.625;
1441975162264305;-0.8389892578125;0.17108154296875;-0.48797607421875;-0.16973876953125;2.8741187357459186;17.29072904864619;8.268811103929611;0.91552734375;0.0849609375;-0.4697265625;-8.4375;10.6875;-16.875;
1441975162280306;-0.83758544921875;0.1690673828125;-0.4908447265625;-0.17041015625;2.8384012984276135;17.272154816475176;8.294342826476832;0.818359375;0.0380859375;-0.40185546875;-7.4375;14.125;-15.375;
1441975162309307;-0.8363037109375;0.1658935546875;-0.4945068359375;-0.1690673828125;2.797282968612491;17.26701340733078;8.320215102103184;0.74169921875;0.0029296875;-0.35302734375;1.125;18.1875;-13.1875;
1441975162326308;-0.8353271484375;0.16143798828125;-0.4986572265625;-0.16607666015625;2.754594785448531;17.27082147075525;8.349759174320774;0.69580078125;0.01611328125;-0.333984375;15.1875;21.25;-11.4375;
1441975162340309;-0.8343505859375;0.15606689453125;-0.50311279296875;-0.16259765625;2.7095916717683646;17.273451845094645;8.386402908378448;0.705078125;0.068359375;-0.33544921875;29.5625;23.0;-9.5625;
1441975162362310;-0.8330078125;0.1505126953125;-0.508056640625;-0.15924072265625;2.6576952000114806;17.27277904892138;8.426635679614146;0.7646484375;0.14306640625;-0.3505859375;36.75;24.125;-7.8125;
1441975162386312;-0.83111572265625;0.14544677734375;-0.51361083984375;-0.15625;2.596183153096885;17.270300574789605;8.46517643126141;0.84716796875;0.18994140625;-0.3671875;38.125;26.875;-5.625;
1441975162400313;-0.8284912109375;0.14117431640625;-0.5196533203125;-0.1541748046875;2.524890957648914;17.26162657957299;8.502670063483883;0.97265625;0.2294921875;-0.41162109375;35.8125;31.0;-2.0625;
1441975162431314;-0.8251953125;0.137939453125;-0.52593994140625;-0.1533203125;2.446448575619352;17.244642023481994;8.538866837646884;1.10498046875;0.26318359375;-0.453125;29.25;35.4375;1.5625;
1441975162446315;-0.8216552734375;0.1358642578125;-0.53204345703125;-0.153076171875;2.367535540749448;17.227507672324748;8.567622048615256;1.12646484375;0.2734375;-0.43994140625;20.3125;38.25;4.625;
1441975162460316;-0.81805419921875;0.13482666015625;-0.5379638671875;-0.152587890625;2.289193445421189;17.22022903411355;8.583070117506637;1.02294921875;0.23974609375;-0.3876953125;12.875;38.125;6.625;
1441975162482317;-0.81439208984375;0.1341552734375;-0.5440673828125;-0.1510009765625;2.2082437451637578;17.228960692808926;8.585547117200173;0.9375;0.1767578125;-0.3349609375;9.125;36.4375;9.4375;
1441975162506319;-0.81097412109375;0.13250732421875;-0.55047607421875;-0.14794921875;2.126506574822554;17.248377942039397;8.587620885958582;0.8876953125;0.107421875;-0.3017578125;11.5625;36.125;10.5625;
1441975162527320;-0.80792236328125;0.12908935546875;-0.556884765625;-0.1434326171875;2.0482276564514783;17.271885823789592;8.598894944458644;0.8740234375;0.08837890625;-0.2890625;21.6875;37.0;9.875;
1441975162542321;-0.8052978515625;0.12445068359375;-0.56298828125;-0.13836669921875;1.976323407678632;17.292012399602772;8.62070518939443;0.89599609375;0.115234375;-0.3056640625;34.75;37.5625;8.125;
1441975162567322;-0.802978515625;0.119873046875;-0.56829833984375;-0.1339111328125;1.9138239301124806;17.30457937749389;8.646903047997801;0.94287109375;0.17236328125;-0.32568359375;42.75;36.625;7.875;
1441975162589323;-0.801025390625;0.1162109375;-0.57244873046875;-0.131103515625;1.8642309676184634;17.303233583043113;8.676008978746609;0.96875;0.21142578125;-0.3349609375;40.1875;32.875;7.5;
1441975162612325;-0.79931640625;0.11376953125;-0.57562255859375;-0.12994384765625;1.8249231837412452;17.290644467804277;8.70420529155807;0.95849609375;0.21337890625;-0.34130859375;29.0625;28.0625;6.125;
1441975162626325;-0.79791259765625;0.11236572265625;-0.57781982421875;-0.13006591796875;1.7964101568976738;17.27040118483777;8.730193001662409;0.92041015625;0.1875;-0.32080078125;16.375;22.875;3.5;
1441975162648327;-0.79693603515625;0.11151123046875;-0.57916259765625;-0.13092041015625;1.7786136535487194;17.245774317397146;8.755080473647677;0.88720703125;0.146484375;-0.30517578125;6.0625;17.8125;0.625;
1441975162662327;-0.79638671875;0.1109619140625;-0.5797119140625;-0.13238525390625;1.7711672790262944;17.216245687723095;8.780912347908226;0.87890625;0.11962890625;-0.29736328125;-0.25;12.3125;-2.0;
1441975162685329;-0.79620361328125;0.1104736328125;-0.57958984375;-0.13397216796875;1.772530194968841;17.186686722527575;8.805817464753046;0.91357421875;0.11328125;-0.29052734375;-4.1875;6.125;-4.125;
1441975162707330;-0.79656982421875;0.10992431640625;-0.57879638671875;-0.1358642578125;1.7841958331022874;17.153750791173927;8.833025241659243;0.98779296875;0.11279296875;-0.29541015625;-5.25;0.8125;-5.875;
1441975162731331;-0.79742431640625;0.10906982421875;-0.57733154296875;-0.13775634765625;1.805864637373151;17.119774118308737;8.862371492659912;1.0712890625;0.13134765625;-0.3037109375;-6.3125;-4.8125;-7.6875;
1441975162746332;-0.79864501953125;0.10821533203125;-0.5751953125;-0.14019775390625;1.8368414739977919;17.08026381888466;8.894807725850152;1.12548828125;0.13427734375;-0.3154296875;-5.625;-10.1875;-10.25;
1441975162783334;-0.80023193359375;0.10784912109375;-0.572265625;-0.14349365234375;1.877938691982974;17.036789031480122;8.925463281333577;1.1376953125;0.140625;-0.30029296875;-7.8125;-15.4375;-12.9375;
1441975162785335;-0.80194091796875;0.10821533203125;-0.56878662109375;-0.14739990234375;1.924682958589175;16.99482980415687;8.948843468882497;1.0830078125;0.14111328125;-0.2900390625;-13.5625;-20.125;-14.6875;
1441975162806336;-0.80377197265625;0.10894775390625;-0.56494140625;-0.1517333984375;1.9756905143284327;16.95300814870749;8.968667731033293;1.04052734375;0.12646484375;-0.29541015625;-19.4375;-22.5625;-14.9375;
1441975162826337;-0.80572509765625;0.109619140625;-0.560791015625;-0.15594482421875;2.03044252424717;16.91461379146053;8.985628054651178;0.98583984375;0.1123046875;-0.30908203125;-23.25;-23.375;-15.8125;
1441975162842338;-0.807861328125;0.11016845703125;-0.55670166015625;-0.159423828125;2.085249752875396;16.88643095635002;8.995987289651378;0.92236328125;0.12939453125;-0.3076171875;-22.375;-23.8125;-15.4375;
1441975162866339;-0.8099365234375;0.110595703125;-0.552734375;-0.16217041015625;2.1378908308318327;16.867099969965683;9.00096911753524;0.88330078125;0.13134765625;-0.328125;-18.625;-23.0625;-13.25;
1441975162887340;-0.81195068359375;0.1109619140625;-0.54931640625;-0.16375732421875;2.1836966868078056;16.861202615848203;8.997828154328266;0.85498046875;0.14794921875;-0.35009765625;-14.4375;-21.0;-10.375;
1441975162902341;-0.813720703125;0.11151123046875;-0.54632568359375;-0.16461181640625;2.222721615469928;16.864579072297403;8.987773557600631;0.833984375;0.16259765625;-0.35693359375;-8.625;-18.5;-5.8125;
1441975162926343;-0.815185546875;0.11260986328125;-0.5438232421875;-0.16473388671875;2.253398018284561;16.879624095825694;8.966934004965687;0.8271484375;0.1904296875;-0.3642578125;-5.0;-16.0;0.0625;
1441975162948344;-0.8162841796875;0.11444091796875;-0.54193115234375;-0.16436767578125;2.2743138650022763;16.90429479047671;8.935676769497078;0.8291015625;0.20703125;-0.369140625;-3.0625;-13.875;6.4375;
1441975162962345;-0.81683349609375;0.1170654296875;-0.54071044921875;-0.16375732421875;2.2841208170884726;16.935738668547003;8.895520333609873;0.85791015625;0.22412109375;-0.37451171875;-2.4375;-11.75;12.9375;
1441975162993346;-0.81683349609375;0.120361328125;-0.540283203125;-0.16265869140625;2.281876905310661;16.97621450312462;8.845793864393274;0.8994140625;0.23291015625;-0.36865234375;-3.375;-9.25;18.875;
1441975163007347;-0.81646728515625;0.12420654296875;-0.54046630859375;-0.16119384765625;2.2710739112998617;17.024471767905517;8.787753499202278;0.9443359375;0.2294921875;-0.361328125;-2.9375;-6.6875;24.1875;
1441975163023348;-0.81549072265625;0.12835693359375;-0.54156494140625;-0.158935546875;2.247690734359752;17.083859774894616;8.720821289895959;0.97705078125;0.21435546875;-0.36083984375;-2.875;-4.125;28.0625;
1441975163045349;-0.81402587890625;0.13232421875;-0.54351806640625;-0.15643310546875;2.2142915315498084;17.14494105113874;8.654241455878656;1.06298828125;0.19970703125;-0.36376953125;-0.4375;-0.625;32.0;
1441975163067351;-0.81243896484375;0.13604736328125;-0.54559326171875;-0.1541748046875;2.1803162564590886;17.202531916769306;8.5911582279884;1.1689453125;0.203125;-0.38720703125;1.75;3.6875;33.5625;
1441975163082352;-0.81109619140625;0.139404296875;-0.54718017578125;-0.15277099609375;2.153811429709467;17.24804125834381;8.537982588584281;1.13232421875;0.15966796875;-0.373046875;0.25;5.5;29.625;
1441975163114353;-0.8099365234375;0.14263916015625;-0.54840087890625;-0.1517333984375;2.1326375525750016;17.289035021933486;8.488186313616715;0.97412109375;0.0966796875;-0.32177734375;-3.375;4.125;22.25;
1441975163127354;-0.8089599609375;0.14544677734375;-0.54937744140625;-0.150634765625;2.1156955247886913;17.327921190612045;8.442416675624221;0.857421875;0.02685546875;-0.29833984375;-6.75;3.875;16.6875;
1441975163142355;-0.80865478515625;0.14715576171875;-0.54998779296875;-0.14837646484375;2.1077438741121486;17.372889252418982;8.399928117060604;0.80078125;-0.01708984375;-0.2861328125;-5.8125;3.1875;12.25;
1441975163165356;-0.8089599609375;0.14697265625;-0.55059814453125;-0.1446533203125;2.1052689810968457;17.42039046542721;8.36895693984665;0.7939453125;-0.02734375;-0.2919921875;2.9375;0.25;9.5625;
1441975163187358;-0.80987548828125;0.14495849609375;-0.55108642578125;-0.13970947265625;2.1091150383203408;17.467396314000926;8.351199109104668;0.81103515625;0.00439453125;-0.2861328125;17.25;-2.875;7.4375;
1441975163202358;-0.81097412109375;0.14208984375;-0.5513916015625;-0.13507080078125;2.1159775541685364;17.502476161256386;8.347587623724777;0.86767578125;0.060546875;-0.30029296875;30.3125;-4.875;5.9375;
1441975163225360;-0.8118896484375;0.1396484375;-0.55133056640625;-0.1318359375;2.1243530851551533;17.522718021598383;8.350976086510059;0.9423828125;0.142578125;-0.34375;33.875;-4.75;5.9375;
1441975163248361;-0.812744140625;0.13873291015625;-0.5506591796875;-0.13067626953125;2.13689281571978;17.52915360296319;8.353078569635771;0.98876953125;0.201171875;-0.373046875;26.8125;-4.375;6.875;
1441975163262362;-0.81317138671875;0.139892578125;-0.54949951171875;-0.13153076171875;2.1500880919872207;17.527569771010324;8.34592875417614;0.9970703125;0.216796875;-0.3974609375;12.375;-5.0625;8.3125;
1441975163285363;-0.8133544921875;0.1431884765625;-0.54779052734375;-0.1339111328125;2.165951466347619;17.524692630876093;8.324614069209234;0.984375;0.18798828125;-0.39794921875;-5.375;-6.375;9.75;
1441975163308364;-0.81329345703125;0.1475830078125;-0.54608154296875;-0.1365966796875;2.180034668016214;17.52733194305542;8.291894871825324;0.93798828125;0.1259765625;-0.390625;-21.0625;-7.5;10.5625;
1441975163322365;-0.81317138671875;0.15155029296875;-0.54473876953125;-0.1383056640625;2.190947269258373;17.538767222609593;8.256295431904125;0.88916015625;0.04638671875;-0.3681640625;-28.125;-7.9375;9.875;
1441975163345367;-0.81329345703125;0.1541748046875;-0.54376220703125;-0.13848876953125;2.2010965347138134;17.558032705626776;8.224961492643958;0.86328125;-0.02294921875;-0.35107421875;-23.75;-7.0625;7.375;
1441975163374368;-0.8138427734375;0.15509033203125;-0.54296875;-0.13726806640625;2.213276041908637;17.580225262775475;8.203787948318679;0.8544921875;-0.0400390625;-0.34326171875;-12.1875;-6.75;4.5;
1441975163382369;-0.8148193359375;0.1546630859375;-0.5421142578125;-0.135498046875;2.2290590088999114;17.59749409272672;8.19549445831596;0.86083984375;-0.03662109375;-0.34814453125;0.25;-7.0625;1.375;
1441975163405370;-0.816162109375;0.15362548828125;-0.54071044921875;-0.1341552734375;2.2518800544719184;17.60343606671171;8.199115111136507;0.8671875;-0.01025390625;-0.34326171875;7.9375;-8.8125;-2.0;
1441975163428371;-0.81768798828125;0.15301513671875;-0.5386962890625;-0.133544921875;2.2810981662756;17.603137564164484;8.203930218111683;0.86962890625;0.0263671875;-0.35009765625;8.875;-11.8125;-4.4375;
1441975163442372;-0.8193359375;0.15283203125;-0.5362548828125;-0.133544921875;2.314705645782003;17.59845014974326;8.208680239847416;0.876953125;0.01708984375;-0.34326171875;3.125;-15.375;-6.125;
1441975163465373;-0.82110595703125;0.1527099609375;-0.53350830078125;-0.1337890625;2.351795591520951;17.591102179575074;8.2146986930845;0.8818359375;-0.0107421875;-0.34716796875;-1.875;-18.375;-8.375;
1441975163488375;-0.82293701171875;0.15228271484375;-0.53076171875;-0.1339111328125;2.389336815713585;17.583023554583306;8.223229221388126;0.884765625;-0.0283203125;-0.35400390625;-3.75;-19.75;-10.3125;
1441975163510376;-0.82476806640625;0.15185546875;-0.52801513671875;-0.1341552734375;2.4267961370311646;17.573776874426738;8.23243352782961;0.8994140625;-0.02197265625;-0.3662109375;-2.6875;-19.875;-11.0625;
1441975163525377;-0.826416015625;0.151611328125;-0.5252685546875;-0.134765625;2.462861562888393;17.56197597375271;8.241806296436652;0.93310546875;0.00830078125;-0.40234375;-2.1875;-18.75;-10.1875;
1441975163548378;-0.82794189453125;0.152099609375;-0.52252197265625;-0.13592529296875;2.4978143231891186;17.54959236130411;8.246450646261625;0.96728515625;0.033203125;-0.44287109375;-4.3125;-17.0625;-8.5;
1441975163586380;-0.8292236328125;0.15325927734375;-0.5196533203125;-0.1376953125;2.5319965887952707;17.53529483351287;8.24747676846025;0.97412109375;0.03515625;-0.470703125;-9.375;-15.625;-7.125;
1441975163592381;-0.83026123046875;0.15509033203125;-0.516845703125;-0.13983154296875;2.5638143244484515;17.52191765947663;8.243190420790409;0.943359375;0.0244140625;-0.4677734375;-14.875;-14.875;-6.25;
1441975163608382;-0.83111572265625;0.1572265625;-0.514404296875;-0.1414794921875;2.5913329653039856;17.516486783511418;8.231843348082661;0.88427734375;-0.00244140625;-0.453125;-19.5625;-14.125;-5.0625;
1441975163629383;-0.8316650390625;0.1593017578125;-0.5125732421875;-0.14227294921875;2.6117631617990744;17.520502747746797;8.21502507235464;0.85302734375;-0.0224609375;-0.43798828125;-18.875;-12.5;-3.4375;
1441975163645384;-0.83203125;0.1611328125;-0.51141357421875;-0.1424560546875;2.6251201965730466;17.530007376427786;8.196622310274133;0.84912109375;-0.0302734375;-0.4501953125;-14.3125;-8.875;-0.75;
1441975163668385;-0.8321533203125;0.162841796875;-0.51080322265625;-0.14215087890625;2.6321669448159444;17.544444767953184;8.176040313757904;0.86474609375;-0.00634765625;-0.46484375;-9.375;-5.125;2.0625;
1441975163689386;-0.83197021484375;0.16455078125;-0.510498046875;-0.14202880859375;2.6343251087931394;17.55717455343676;8.156421679125593;0.892578125;0.0185546875;-0.4970703125;-5.9375;-1.1875;5.1875;
1441975163705387;-0.83148193359375;0.16680908203125;-0.510498046875;-0.1424560546875;2.6313043153279683;17.568061402296248;8.134189899192739;0.9296875;0.04736328125;-0.5263671875;-6.0;2.0625;7.125;
1441975163728388;-0.830810546875;0.16949462890625;-0.51055908203125;-0.14312744140625;2.626495625177889;17.579371739594077;8.108701357071238;0.94091796875;0.05029296875;-0.529296875;-9.9375;4.125;8.6875;
1441975163742389;-0.8299560546875;0.17236328125;-0.5107421875;-0.14398193359375;2.6193325642051364;17.59021953786291;8.082137981701036;0.91748046875;0.04296875;-0.52294921875;-12.6875;5.6875;9.875;
1441975163765391;-0.82904052734375;0.1754150390625;-0.510986328125;-0.14453125;2.6117212653514406;17.605878326284913;8.051261993671465;0.8681640625;0.02490234375;-0.513671875;-14.5;7.4375;9.875;
1441975163788392;-0.8280029296875;0.1781005859375;-0.51177978515625;-0.144287109375;2.5990826322204788;17.628685514386063;8.01834565945348;0.82080078125;0.005859375;-0.49462890625;-14.0;8.125;10.75;
1441975163809393;-0.8271484375;0.179931640625;-0.51287841796875;-0.1431884765625;2.585585993780541;17.65558000875816;7.9887286845564125;0.81396484375;-0.005859375;-0.48388671875;-8.875;9.875;11.8125;
1441975163825394;-0.82647705078125;0.180908203125;-0.51397705078125;-0.14178466796875;2.5733965827017147;17.680027172970593;7.96642372266623;0.8125;0.01708984375;-0.4931640625;-1.1875;11.4375;11.625;
1441975163848395;-0.8260498046875;0.181640625;-0.5147705078125;-0.1407470703125;2.5650981678041873;17.698231504527435;7.949808221482209;0.818359375;0.05126953125;-0.49853515625;4.25;11.5;10.625;
1441975163869397;-0.8255615234375;0.1824951171875;-0.51531982421875;-0.14031982421875;2.5580280930431756;17.710262795039004;7.936110482157982;0.8212890625;0.06640625;-0.50390625;3.6875;10.4375;9.375;
1441975163885397;-0.82489013671875;0.18353271484375;-0.5159912109375;-0.140380859375;2.548109034732828;17.718593939683817;7.923342897147608;0.8271484375;0.064453125;-0.4931640625;-0.0625;9.4375;7.875;
1441975163898398;-0.82421875;0.18438720703125;-0.51678466796875;-0.14044189453125;2.536927263850692;17.7259241969132;7.912436217985721;0.841796875;0.04931640625;-0.4755859375;-3.0625;9.25;6.5625;
1441975163930400;-0.82366943359375;0.1846923828125;-0.51751708984375;-0.1405029296875;2.5267028050712277;17.729192935016993;7.907868773818401;0.857421875;0.02685546875;-0.47607421875;-3.125;9.375;4.4375;
1441975163952401;-0.82330322265625;0.1845703125;-0.51812744140625;-0.14068603515625;2.5182709087792277;17.727678978137675;7.909375312934067;0.845703125;0.0224609375;-0.462890625;-1.5;9.0625;1.5;
1441975163959402;-0.8231201171875;0.1839599609375;-0.51837158203125;-0.141357421875;2.513372659494765;17.716340408293163;7.920527373353934;0.8349609375;0.02001953125;-0.45361328125;-1.0625;8.25;-1.5;
1441975163981403;-0.8231201171875;0.18304443359375;-0.51849365234375;-0.14239501953125;2.5100656160821733;17.69828035678687;7.938214465753127;0.82861328125;0.03662109375;-0.4521484375;-1.4375;7.0;-4.4375;
1441975164004404;-0.8231201171875;0.18194580078125;-0.51849365234375;-0.14373779296875;2.5074857987623247;17.675206801766315;7.960303361395369;0.84375;0.05810546875;-0.44970703125;-1.75;6.0;-6.3125;
1441975164020405;-0.82305908203125;0.1805419921875;-0.5186767578125;-0.14520263671875;2.5026146479563907;17.648816603895487;7.986566927451448;0.8720703125;0.06201171875;-0.44970703125;-2.5625;5.125;-8.1875;
1441975164041406;-0.82281494140625;0.17926025390625;-0.51885986328125;-0.14715576171875;2.4962618223154633;17.617776664177693;8.014839886032728;0.923828125;0.09033203125;-0.46142578125;-1.625;5.625;-8.3125;
1441975164064408;-0.82257080078125;0.17840576171875;-0.51885986328125;-0.1497802734375;2.491283848910743;17.5818387676319;8.04340287034586;0.978515625;0.1142578125;-0.466796875;-4.0;5.8125;-8.0625;
1441975164078408;-0.82232666015625;0.17779541015625;-0.5185546875;-0.15283203125;2.489133477874554;17.54232559857794;8.07253586791902;0.97607421875;0.1123046875;-0.451171875;-8.8125;4.375;-8.6875;
1441975164101410;-0.8221435546875;0.1773681640625;-0.51806640625;-0.15582275390625;2.4895400580464235;17.50458038765972;8.099288036678663;0.93115234375;0.08251953125;-0.41845703125;-12.6875;2.0625;-10.8125;
1441975164124411;-0.82196044921875;0.176513671875;-0.51788330078125;-0.158447265625;2.4876237801292493;17.468196227845027;8.128179425362324;0.890625;0.0517578125;-0.38671875;-13.8125;0.5;-12.625;
1441975164138412;-0.82183837890625;0.1749267578125;-0.51800537109375;-0.16033935546875;2.484089136379012;17.435010292862007;8.16013716817944;0.873046875;0.04248046875;-0.3662109375;-11.0;1.0;-13.75;
1441975164161413;-0.82183837890625;0.1724853515625;-0.5184326171875;-0.16162109375;2.4792449916305563;17.402659693138382;8.197584391706348;0.89306640625;0.05712890625;-0.375;-4.8125;2.4375;-14.25;
1441975164184415;-0.82196044921875;0.16943359375;-0.51898193359375;-0.16265869140625;2.4746360514050125;17.36856052078901;8.24046278022406;0.93017578125;0.08642578125;-0.3935546875;1.9375;3.8125;-15.25;
1441975164198415;-0.822021484375;0.166015625;-0.51959228515625;-0.1636962890625;2.4696176719333045;17.33160728644064;8.287667893120172;0.9580078125;0.10400390625;-0.40625;5.1875;4.3125;-16.5625;
1441975164222417;-0.82196044921875;0.16241455078125;-0.52056884765625;-0.16461181640625;2.460963046290236;17.294612428802456;8.336382609450997;0.97998046875;0.12060546875;-0.408203125;6.4375;4.875;-17.8125;
1441975164244418;-0.82177734375;0.15875244140625;-0.52178955078125;-0.16534423828125;2.449810572081065;17.258967134673238;8.384846047251193;0.99462890625;0.1181640625;-0.4013671875;7.8125;6.5;-18.125;
1441975164258419;-0.82147216796875;0.1549072265625;-0.52325439453125;-0.165771484375;2.4362203880069986;17.225035720032853;8.433675517306346;0.9931640625;0.11083984375;-0.3935546875;8.625;7.6875;-18.375;
1441975164281420;-0.8212890625;0.1507568359375;-0.524658203125;-0.166015625;2.424700030717117;17.190578793879958;8.485050618300606;0.97509765625;0.09521484375;-0.369140625;10.25;7.75;-19.125;
1441975164304421;-0.82122802734375;0.1461181640625;-0.5260009765625;-0.166259765625;2.415486168821739;17.152138777323945;8.542429320226749;0.95361328125;0.08984375;-0.35009765625;12.0;7.375;-20.6875;
1441975164318422;-0.8212890625;0.14111328125;-0.5272216796875;-0.16644287109375;2.4092021656875255;17.1114606210242;8.603764568453634;0.93359375;0.0966796875;-0.3271484375;13.6875;6.625;-22.875;
1441975164341424;-0.82147216796875;0.1357421875;-0.5283203125;-0.16656494140625;2.4059667251857957;17.06869314374029;8.668910663664521;0.90869140625;0.10107421875;-0.326171875;15.1875;6.25;-24.4375;
1441975164364425;-0.8216552734375;0.13018798828125;-0.529296875;-0.1668701171875;2.405047099090533;17.022359535730455;8.73751095854414;0.91064453125;0.1201171875;-0.31494140625;16.875;5.5625;-25.4375;
1441975164378426;-0.8218994140625;0.12469482421875;-0.53009033203125;-0.16748046875;2.407297588685556;16.97320432727159;8.80734320789425;0.90087890625;0.1416015625;-0.3125;17.0625;4.9375;-25.875;
1441975164401427;-0.82208251953125;0.11907958984375;-0.5308837890625;-0.16802978515625;2.4102916988472076;16.923849860408346;8.878064701300891;0.89892578125;0.16357421875;-0.296875;16.1875;3.9375;-25.8125;
1441975164424428;-0.82232666015625;0.11322021484375;-0.53173828125;-0.16839599609375;2.4143133963050736;16.875004533171587;8.950115935817877;0.8935546875;0.158203125;-0.29736328125;16.125;3.875;-26.75;
1441975164438429;-0.82257080078125;0.107177734375;-0.53253173828125;-0.1685791015625;2.4200344590216023;16.82722931795715;9.022534758520878;0.8916015625;0.1611328125;-0.28125;18.125;3.4375;-27.375;
1441975164461430;-0.82275390625;0.100830078125;-0.5335693359375;-0.16845703125;2.424283415537066;16.780405362361908;9.096636145691086;0.88916015625;0.1689453125;-0.28662109375;19.4375;3.8125;-28.0;
1441975164484432;-0.82281494140625;0.09429931640625;-0.53485107421875;-0.16766357421875;2.4258269403951864;16.73929078309818;9.168603012752035;0.90087890625;0.18115234375;-0.28515625;22.0625;4.9375;-27.8125;
1441975164508433;-0.82275390625;0.087890625;-0.53631591796875;-0.16680908203125;2.425380608701788;16.69908496540354;9.239462198646113;0.9267578125;0.189453125;-0.291015625;25.75;6.3125;-26.5625;
1441975164537435;-0.82269287109375;0.08154296875;-0.5377197265625;-0.1658935546875;2.4260425363827953;16.66015256370362;9.30900085514325;0.951171875;0.201171875;-0.283203125;26.125;5.875;-25.3125;
1441975164569437;-0.8223876953125;0.0758056640625;-0.53912353515625;-0.16546630859375;2.425428471407268;16.619351647265926;9.375748169059595;0.94970703125;0.22509765625;-0.27685546875;26.625;5.5625;-23.4375;
1441975164571437;-0.8218994140625;0.07037353515625;-0.54058837890625;-0.165283203125;2.423654119803521;16.57718145780374;9.441535457748378;0.9404296875;0.21337890625;-0.26318359375;21.9375;5.625;-23.4375;
1441975164581437;-0.82147216796875;0.0650634765625;-0.54217529296875;-0.16461181640625;2.420389440325063;16.541111641939267;9.502844584997709;0.935546875;0.193359375;-0.2470703125;19.1875;5.5625;-23.9375;
1441975164604439;-0.82086181640625;0.06005859375;-0.54388427734375;-0.163818359375;2.414358749091201;16.507366695124475;9.561033865902711;0.951171875;0.18115234375;-0.26220703125;20.6875;6.375;-23.0625;
1441975164618439;-0.8201904296875;0.05535888671875;-0.545654296875;-0.1630859375;2.407186389483208;16.474427162420625;9.61691462431587;0.98388671875;0.18212890625;-0.271484375;19.875;7.0625;-21.6875;
1441975164641441;-0.81939697265625;0.05096435546875;-0.5474853515625;-0.16229248046875;2.3981364599732164;16.443341366331463;9.669896119334883;0.98583984375;0.18798828125;-0.26904296875;18.75;7.5;-20.25;
1441975164664442;-0.818359375;0.04705810546875;-0.549560546875;-0.1617431640625;2.3850529394324504;16.410769613011585;9.721358273477207;0.9794921875;0.1767578125;-0.26318359375;17.6875;7.9375;-19.3125;
1441975164678443;-0.81707763671875;0.0438232421875;-0.55194091796875;-0.1611328125;2.3658618396344497;16.380925502359613;9.767621846249616;0.97216796875;0.18603515625;-0.2626953125;14.9375;9.6875;-17.0;
1441975164701444;-0.81561279296875;0.04132080078125;-0.55450439453125;-0.160400390625;2.3414573955868443;16.355450176206304;9.80700598415071;0.9765625;0.18994140625;-0.26904296875;13.125;12.125;-13.0625;
1441975164735446;-0.81402587890625;0.0394287109375;-0.55718994140625;-0.1595458984375;2.3130011318261725;16.333948141461367;9.840406175603725;0.97119140625;0.18701171875;-0.2744140625;10.6875;13.75;-9.4375;
1441975164748447;-0.8123779296875;0.03826904296875;-0.5599365234375;-0.15850830078125;2.2806110949997596;16.318560493155985;9.865432705144276;0.95263671875;0.1806640625;-0.27001953125;9.3125;14.5;-6.0;
1441975164761448;-0.81060791015625;0.0377197265625;-0.56292724609375;-0.15716552734375;2.2422810207312316;16.3089206953376;9.883523397939024;0.939453125;0.17626953125;-0.27490234375;7.6875;15.25;-2.0625;
1441975164784449;-0.80865478515625;0.037841796875;-0.56610107421875;-0.15576171875;2.19869894318278;16.302836076709465;9.895552982361833;0.92578125;0.17431640625;-0.27099609375;6.8125;16.9375;2.3125;
1441975164798450;-0.80657958984375;0.03912353515625;-0.56939697265625;-0.15435791015625;2.1490985747944853;16.304162561879924;9.895426858094016;0.92236328125;0.1904296875;-0.275390625;4.8125;18.4375;7.25;
1441975164821451;-0.8043212890625;0.0413818359375;-0.57275390625;-0.153076171875;2.0947380214565525;16.3106229201623;9.885612679664595;0.93603515625;0.19384765625;-0.28564453125;1.4375;19.1875;13.0625;
1441975164844452;-0.80206298828125;0.0445556640625;-0.5760498046875;-0.15155029296875;2.0368104642231826;16.32841454316317;9.861701750321746;0.9482421875;0.19482421875;-0.27783203125;-2.4375;18.8125;17.8125;
1441975164858453;-0.79986572265625;0.048583984375;-0.5792236328125;-0.14984130859375;1.97680018251727;16.358050140658897;9.823189318401443;0.97314453125;0.1875;-0.275390625;-4.75;17.8125;22.3125;
1441975164881454;-0.79779052734375;0.05322265625;-0.58209228515625;-0.14794921875;1.9178028888881808;16.399803016431708;9.770730642012131;0.98388671875;0.16650390625;-0.26904296875;-6.6875;15.8125;25.75;
1441975164907456;-0.79595947265625;0.05853271484375;-0.5845947265625;-0.1461181640625;1.861984610967769;16.452990681935603;9.7038075061843;1.001953125;0.1552734375;-0.26318359375;-7.75;13.5;28.75;
1441975164918457;-0.79443359375;0.06488037109375;-0.58636474609375;-0.14471435546875;1.8132591049910443;16.518875112212275;9.618007132914956;1.03076171875;0.154296875;-0.26611328125;-10.4375;10.3125;31.25;
1441975164954459;-0.793212890625;0.07208251953125;-0.58740234375;-0.1436767578125;1.7726742823763277;16.596840518644186;9.514939029229021;1.0439453125;0.14404296875;-0.2744140625;-15.75;5.6875;33.9375;
1441975164967459;-0.79229736328125;0.07958984375;-0.5880126953125;-0.14239501953125;1.7383179730999008;16.688714286315225;9.397663871730263;1.06396484375;0.1201171875;-0.26708984375;-20.5625;0.25;35.125;
1441975164987460;-0.7916259765625;0.0870361328125;-0.588134765625;-0.14093017578125;1.712059941037415;16.789210825002634;9.272614559709067;1.11767578125;0.0966796875;-0.2705078125;-20.5625;-3.6875;35.375;
1441975165001461;-0.7913818359375;0.09442138671875;-0.58758544921875;-0.14019775390625;1.6985940158408608;16.884226734645402;9.15018249197614;1.15771484375;0.0927734375;-0.298828125;-19.6875;-5.8125;35.3125;
1441975165024463;-0.79144287109375;0.10211181640625;-0.58612060546875;-0.1407470703125;1.69897820297481;16.967252597565608;9.03291973452645;1.1298828125;0.07666015625;-0.30078125;-22.9375;-9.375;32.1875;
1441975165056464;-0.79168701171875;0.1103515625;-0.58367919921875;-0.14300537109375;1.7123968646781564;17.03204207087544;8.92421039401274;1.01953125;0.048828125;-0.2939453125;-30.125;-12.6875;27.5625;
1441975165061465;-0.79205322265625;0.11895751953125;-0.58074951171875;-0.14617919921875;1.7327883833095377;17.08639621450928;8.820478845444525;0.91259765625;0.0263671875;-0.29150390625;-40.9375;-15.5625;23.1875;
1441975165084466;-0.79254150390625;0.126953125;-0.57763671875;-0.14886474609375;1.757190856505577;17.139834258251785;8.72200831750285;0.83251953125;-0.013671875;-0.28662109375;-46.6875;-16.9375;19.5;
1441975165107467;-0.79345703125;0.1334228515625;-0.5745849609375;-0.15020751953125;1.7858377785461301;17.195089217847507;8.633615728518016;0.80322265625;-0.0458984375;-0.294921875;-43.3125;-17.3125;16.25;
1441975165129469;-0.79486083984375;0.13824462890625;-0.57159423828125;-0.149658203125;1.8190578409905633;17.258786219328623;8.551432255406851;0.8095703125;-0.03759765625;-0.3056640625;-31.5;-17.9375;14.25;
1441975165145470;-0.796630859375;0.1419677734375;-0.5687255859375;-0.1480712890625;1.8553005999714012;17.3236507656695;8.477057534667402;0.841796875;-0.02197265625;-0.3251953125;-16.9375;-18.8125;13.8125;
1441975165167471;-0.79833984375;0.1451416015625;-0.56585693359375;-0.14642333984375;1.8923475156986143;17.380999981202528;8.412588303046938;0.87890625;0.00537109375;-0.330078125;-7.0625;-20.5;14.0;
1441975165181472;-0.79998779296875;0.1485595703125;-0.5628662109375;-0.14556884765625;1.9305757749183776;17.427197081265746;8.354935965687437;0.8984375;0.03466796875;-0.31640625;-4.625;-21.5625;14.0625;
1441975165203473;-0.80133056640625;0.152587890625;-0.55975341796875;-0.14593505859375;1.967828324110121;17.460341310356185;8.302593410481007;0.90283203125;0.05224609375;-0.3173828125;-8.5625;-22.0625;13.5625;
1441975165227474;-0.8023681640625;0.15740966796875;-0.556640625;-0.14715576171875;2.0029326735982966;17.48788695305424;8.248937381533832;0.89599609375;0.04443359375;-0.31884765625;-16.5625;-21.625;12.875;
1441975165241475;-0.802978515625;0.16241455078125;-0.5538330078125;-0.1490478515625;2.032226838771241;17.507122819661937;8.200024398872;0.89404296875;0.02490234375;-0.33056640625;-24.0;-19.8125;12.375;
1441975165263476;-0.80328369140625;0.16741943359375;-0.55126953125;-0.15130615234375;2.0571459041256563;17.520879498756198;8.155039730096576;0.88671875;0.01904296875;-0.337890625;-27.625;-16.6875;11.625;
1441975165287478;-0.80328369140625;0.172119140625;-0.5491943359375;-0.15374755859375;2.075402382784256;17.52944116172183;8.115891545214915;0.87451171875;0.01953125;-0.35107421875;-29.0625;-13.0625;10.9375;
1441975165301478;-0.80291748046875;0.176513671875;-0.547607421875;-0.1561279296875;2.086750206567004;17.536418581275758;8.079897517936057;0.87451171875;0.01904296875;-0.35302734375;-29.3125;-9.6875;9.9375;
1441975165323480;-0.80224609375;0.1805419921875;-0.54656982421875;-0.15875244140625;2.0906538766763836;17.53756853078025;8.050452573728133;0.8837890625;0.021484375;-0.3544921875;-27.375;-6.0625;9.375;
1441975165346481;-0.80126953125;0.1844482421875;-0.5457763671875;-0.1617431640625;2.0898562078559957;17.533264048719655;8.025423975628907;0.89892578125;0.03857421875;-0.34765625;-26.9375;-3.25;8.875;
1441975165361482;-0.79998779296875;0.1883544921875;-0.54534912109375;-0.1649169921875;2.083415426283473;17.52728525402934;8.001404081466868;0.9013671875;0.0498046875;-0.34326171875;-28.0;-0.875;8.625;
1441975165383483;-0.79852294921875;0.19189453125;-0.5452880859375;-0.16802978515625;2.0722544330730783;17.519477407770115;7.981114406567301;0.90478515625;0.02685546875;-0.32666015625;-29.1875;1.0625;7.0;
1441975165407485;-0.797119140625;0.19476318359375;-0.5455322265625;-0.1707763671875;2.058768370285405;17.510823229388524;7.966199672743768;0.9033203125;-0.005859375;-0.3125;-28.125;2.625;3.875;
1441975165421485;-0.7957763671875;0.19696044921875;-0.5458984375;-0.1734619140625;2.0443326589411726;17.49690137631398;7.959671482394827;0.91552734375;-0.01611328125;-0.32373046875;-24.4375;4.6875;1.3125;
1441975165452487;-0.79449462890625;0.1986083984375;-0.54608154296875;-0.17669677734375;2.031193377097744;17.470039334827334;7.965958567540371;0.92724609375;-0.0107421875;-0.33642578125;-21.875;6.375;-1.25;
1441975165467488;-0.79327392578125;0.20001220703125;-0.54608154296875;-0.1805419921875;2.019514143947475;17.43210330401129;7.9817404345047;0.92529296875;0.00732421875;-0.34375;-22.25;7.375;-4.4375;
1441975165481489;-0.79217529296875;0.20111083984375;-0.5457763671875;-0.18487548828125;2.011132557670032;17.38387256768551;8.006892668645234;0.923828125;0.0205078125;-0.3515625;-24.3125;7.625;-7.625;
1441975165503490;-0.79107666015625;0.201904296875;-0.54559326171875;-0.18927001953125;2.0018511626227675;17.331710404199118;8.037086560251945;0.9306640625;0.00341796875;-0.3603515625;-26.5625;7.75;-11.9375;
1441975165527491;-0.7901611328125;0.20184326171875;-0.54571533203125;-0.19281005859375;1.9920006795227363;17.282889841761254;8.071256419058464;0.916015625;-0.02001953125;-0.3486328125;-26.25;8.3125;-15.75;
1441975165541492;-0.78936767578125;0.200927734375;-0.546142578125;-0.19580078125;1.9810246643585172;17.233145524833535;8.11238936813015;0.95166015625;-0.01708984375;-0.37255859375;-19.3125;10.3125;-16.875;
1441975165574494;-0.788818359375;0.1990966796875;-0.5467529296875;-0.19805908203125;1.9711035929082263;17.184240781680977;8.159681470376265;0.97216796875;0.0107421875;-0.39404296875;-13.0625;12.375;-17.5;
1441975165587495;-0.78851318359375;0.19683837890625;-0.54742431640625;-0.19970703125;1.9631803473522906;17.1392926375896;8.207464145463451;0.982421875;0.05078125;-0.40185546875;-6.1875;13.3125;-17.125;
1441975165602496;-0.78814697265625;0.194580078125;-0.54827880859375;-0.20111083984375;1.9536966690483732;17.097368903764266;8.253326517971583;0.998046875;0.07666015625;-0.40673828125;-1.0625;13.0;-16.375;
1441975165623497;-0.78778076171875;0.19256591796875;-0.54925537109375;-0.2017822265625;1.9434044667775583;17.067713174357955;8.288986487149554;0.9931640625;0.0869140625;-0.392578125;0.3125;12.75;-14.375;
1441975165647498;-0.78741455078125;0.1907958984375;-0.55029296875;-0.2020263671875;1.9326027706134443;17.046167594657824;8.317327217885941;0.98876953125;0.09912109375;-0.3896484375;3.25;12.5;-10.875;
1441975165661499;-0.78704833984375;0.18939208984375;-0.5513916015625;-0.2017822265625;1.9210531336025107;17.03493623623751;8.335903435694982;0.9658203125;0.1083984375;-0.36083984375;4.8125;10.9375;-7.0;
1441975165683500;-0.78680419921875;0.18829345703125;-0.55242919921875;-0.200927734375;1.9106404704403488;17.03544723392801;8.344008645416405;0.95556640625;0.1201171875;-0.31982421875;6.5;7.75;-3.0625;
1441975165707502;-0.78662109375;0.18756103515625;-0.553466796875;-0.1995849609375;1.9003167114147048;17.046702001647525;8.34191870859567;0.94189453125;0.13134765625;-0.3037109375;8.625;5.1875;0.625;
1441975165721502;-0.7864990234375;0.18695068359375;-0.5545654296875;-0.19757080078125;1.889743497159278;17.068958914741;8.331130146529919;0.92626953125;0.13916015625;-0.291015625;10.0;4.1875;4.5625;
1441975165745504;-0.78643798828125;0.18621826171875;-0.5557861328125;-0.19488525390625;1.8786216550055344;17.099849839679624;8.315043665857981;0.9306640625;0.14599609375;-0.287109375;13.375;3.0;8.0625;
1441975165767505;-0.78643798828125;0.1856689453125;-0.556884765625;-0.19232177734375;1.8690301065348087;17.131206933259794;8.297213110156795;0.947265625;0.16748046875;-0.27880859375;17.0;1.5625;11.0625;
1441975165781506;-0.7862548828125;0.185302734375;-0.55816650390625;-0.1898193359375;1.856532293219955;17.16376745231332;8.27720961541102;0.98095703125;0.20654296875;-0.27783203125;17.1875;0.125;14.0625;
1441975165805507;-0.785888671875;0.1851806640625;-0.5595703125;-0.18719482421875;1.8417470722344598;17.20099461433621;8.251984657689732;1.0185546875;0.2275390625;-0.27197265625;16.5625;0.25;16.5625;
1441975165835509;-0.78546142578125;0.18524169921875;-0.5611572265625;-0.1842041015625;1.8251447478369234;17.246168981032056;8.219664999964483;1.02783203125;0.2314453125;-0.27294921875;16.8125;1.0;18.875;
1441975165841509;-0.78497314453125;0.185302734375;-0.56292724609375;-0.18060302734375;1.8070652406581187;17.301240501988396;8.179989363787268;1.0322265625;0.2158203125;-0.2578125;17.5625;0.5;20.6875;
1441975165866511;-0.7845458984375;0.18487548828125;-0.5650634765625;-0.17633056640625;1.7869416474543913;17.362309317029467;8.139357145227894;1.01953125;0.19873046875;-0.23779296875;20.375;-0.0625;22.0625;
1441975165894512;-0.78424072265625;0.18389892578125;-0.56719970703125;-0.171630859375;1.7684466511601364;17.424802498753195;8.101287026791107;1.005859375;0.185546875;-0.20703125;25.375;-0.4375;22.3125;
1441975165902513;-0.7840576171875;0.182373046875;-0.56939697265625;-0.1669921875;1.7505300830491206;17.481230967783134;8.071395792989794;0.97998046875;0.18212890625;-0.19970703125;29.375;-0.625;21.125;
1441975165923514;-0.78387451171875;0.1806640625;-0.57135009765625;-0.16278076171875;1.7347246806899603;17.529463422244312;8.048469512269389;0.9619140625;0.18310546875;-0.18603515625;30.6875;-0.5;19.25;
1441975165947515;-0.7838134765625;0.17864990234375;-0.57305908203125;-0.15924072265625;1.7213748557674562;17.563913663478314;8.037739071465376;0.95263671875;0.19140625;-0.189453125;29.75;-0.375;17.375;
1441975165961516;-0.78387451171875;0.17669677734375;-0.57440185546875;-0.15655517578125;1.7113989895002453;17.585357666430035;8.036125210717291;0.95556640625;0.2001953125;-0.19189453125;27.5625;-0.75;14.8125;
1441975165983517;-0.783935546875;0.17498779296875;-0.5753173828125;-0.1546630859375;1.7046107865247138;17.596606630979068;8.040156356346598;0.9619140625;0.20849609375;-0.1865234375;23.8125;-2.5625;12.3125;
1441975166006519;-0.783935546875;0.17352294921875;-0.57598876953125;-0.15362548828125;1.6988485249007776;17.59697290832142;8.050400245083797;0.970703125;0.21484375;-0.19140625;18.875;-3.5;10.8125;
1441975166022520;-0.78399658203125;0.1722412109375;-0.57647705078125;-0.15313720703125;1.6947002796267936;17.590461953971953;8.064486256337647;0.9951171875;0.21142578125;-0.18603515625;13.9375;-4.375;8.9375;
1441975166045521;-0.7840576171875;0.17132568359375;-0.57659912109375;-0.1534423828125;1.6933013036156095;17.57511806726415;8.08243592132105;0.99755859375;0.20166015625;-0.18798828125;10.5;-5.0;6.9375;
1441975166074523;-0.78424072265625;0.17071533203125;-0.57623291015625;-0.154541015625;1.6966469958885657;17.55003078841102;8.105403710572686;1.00244140625;0.1904296875;-0.1826171875;5.25;-6.5625;4.625;
1441975166084523;-0.78436279296875;0.17059326171875;-0.5755615234375;-0.15631103515625;1.7020631017447847;17.51982259449886;8.128522932152853;0.99169921875;0.18603515625;-0.19384765625;-0.375;-8.0625;2.5625;
1441975166103524;-0.78460693359375;0.1705322265625;-0.57476806640625;-0.158447265625;1.7093109785123342;17.484582684456633;8.154971087202002;0.98583984375;0.1552734375;-0.1884765625;-5.5;-8.9375;0.0625;
1441975166127526;-0.78485107421875;0.170166015625;-0.5738525390625;-0.16058349609375;1.7178425169351401;17.445944293534914;8.185913614661441;0.97607421875;0.14599609375;-0.19775390625;-7.4375;-8.6875;-2.125;
1441975166141526;-0.78521728515625;0.1697998046875;-0.5728759765625;-0.16278076171875;1.727979053536645;17.406650506224697;8.217325517567554;0.982421875;0.150390625;-0.22265625;-7.1875;-7.8125;-3.5625;
1441975166163528;-0.78558349609375;0.169677734375;-0.5716552734375;-0.1656494140625;1.740276846642827;17.360043236599374;8.252166643310339;0.984375;0.13916015625;-0.2431640625;-7.375;-7.0;-4.875;
1441975166187529;-0.78582763671875;0.16998291015625;-0.57025146484375;-0.1685791015625;1.7536327512245946;17.317752994259926;8.280443132927822;0.96728515625;0.15478515625;-0.2373046875;-11.375;-7.625;-5.625;
1441975166209530;-0.78607177734375;0.17047119140625;-0.569091796875;-0.17108154296875;1.7650423886553692;17.28463697322155;8.300753886975059;0.95263671875;0.14404296875;-0.2490234375;-13.625;-7.4375;-4.75;
1441975166223531;-0.786376953125;0.170654296875;-0.56805419921875;-0.1729736328125;1.7761352599350992;17.2577702242289;8.318635690298581;0.96630859375;0.119140625;-0.26416015625;-12.625;-6.5625;-4.625;
1441975166254533;-0.7867431640625;0.17041015625;-0.5672607421875;-0.17401123046875;1.7858303595139453;17.239411787989557;8.333409221481844;0.958984375;0.1083984375;-0.27587890625;-9.0;-5.4375;-4.75;
1441975166261533;-0.7872314453125;0.170166015625;-0.56646728515625;-0.174560546875;1.7964808877241834;17.228630716032683;8.34266863069174;0.947265625;0.10546875;-0.27783203125;-3.9375;-4.8125;-3.8125;
1441975166283535;-0.78765869140625;0.17010498046875;-0.56591796875;-0.17474365234375;1.8044460097161237;17.225424488978934;8.345266058162977;0.93603515625;0.11572265625;-0.29345703125;-1.375;-4.1875;-1.8125;
1441975166306536;-0.78790283203125;0.17010498046875;-0.5655517578125;-0.17462158203125;1.80949766191497;17.22734184008688;8.34371034629317;0.9326171875;0.1123046875;-0.2978515625;-0.125;-3.25;0.0625;
1441975166321537;-0.7882080078125;0.17010498046875;-0.5653076171875;-0.173828125;1.8139489767361672;17.239287680619924;8.334980932818272;0.93115234375;0.10546875;-0.294921875;1.0625;-2.5625;1.5;
1441975166343538;-0.78851318359375;0.17010498046875;-0.56536865234375;-0.1724853515625;1.8157233632078251;17.259430263098782;8.320547622190198;0.93359375;0.10205078125;-0.3095703125;3.9375;-1.875;3.625;
1441975166366539;-0.78875732421875;0.17010498046875;-0.56561279296875;-0.170654296875;1.8155946337642623;17.286823647651886;8.300928160069395;0.9287109375;0.099609375;-0.3115234375;6.8125;-0.8125;5.3125;
1441975166384540;-0.7889404296875;0.170166015625;-0.5660400390625;-0.168212890625;1.813687350057957;17.32401815619403;8.273815033982979;0.9375;0.10791015625;-0.3193359375;9.375;-0.25;8.1875;
1441975166403541;-0.7890625;0.17041015625;-0.56658935546875;-0.1654052734375;1.8106088278378476;17.368788911920753;8.23991479471983;0.9609375;0.10888671875;-0.3271484375;11.75;0.3125;10.8125;
1441975166427543;-0.7891845703125;0.170654296875;-0.5672607421875;-0.162353515625;1.806879632796177;17.41743675981742;8.203228971505922;0.97607421875;0.10693359375;-0.3330078125;13.3125;0.5;13.0;
1441975166449544;-0.789306640625;0.1708984375;-0.56793212890625;-0.15911865234375;1.8036708078562775;17.468975489553415;8.16438033979989;0.99658203125;0.10009765625;-0.33984375;14.4375;0.5625;13.9375;
1441975166463545;-0.7894287109375;0.17132568359375;-0.5684814453125;-0.156005859375;1.801964446777573;17.520673770997387;8.124036743722089;1.0068359375;0.09130859375;-0.34765625;15.125;1.0;14.25;
1441975166487546;-0.78955078125;0.17181396484375;-0.56884765625;-0.1534423828125;1.8018866727901102;17.56464741196823;8.088807773409457;0.990234375;0.06494140625;-0.35009765625;13.375;0.8125;13.0625;
1441975166509548;-0.78985595703125;0.17254638671875;-0.56878662109375;-0.1513671875;1.806903674168095;17.603144130286907;8.055901121749228;0.966796875;0.05029296875;-0.3359375;10.4375;0.0;11.125;
1441975166523548;-0.79034423828125;0.17315673828125;-0.568359375;-0.14959716796875;1.8163724518993685;17.634775960127726;8.028955513321568;0.9326171875;0.0263671875;-0.341796875;6.875;-1.125;8.5625;
1441975166546550;-0.7911376953125;0.1734619140625;-0.567626953125;-0.1478271484375;1.8306857984608698;17.661956199454767;8.007681545755828;0.9052734375;0.00341796875;-0.33740234375;4.875;-3.0;5.375;
1441975166561551;-0.7923583984375;0.17315673828125;-0.56658935546875;-0.14581298828125;1.8506828772206458;17.6848214270304;7.994253821621612;0.88818359375;-0.02587890625;-0.33447265625;5.625;-5.0625;1.625;
1441975166583552;-0.79388427734375;0.17236328125;-0.56524658203125;-0.1434326171875;1.875718070035632;17.70654707991623;7.985387656931919;0.8759765625;-0.02978515625;-0.34619140625;8.75;-6.875;-0.875;
1441975166606553;-0.79571533203125;0.17108154296875;-0.56378173828125;-0.1407470703125;1.9039899745640558;17.726644077094882;7.9815051372040084;0.88330078125;-0.02001953125;-0.36328125;12.0;-8.4375;-2.0;
1441975166624554;-0.7978515625;0.16943359375;-0.5618896484375;-0.13800048828125;1.9380414977442517;17.74238133068719;7.983596543903804;0.89697265625;-0.021484375;-0.3701171875;15.125;-10.1875;-3.4375;
1441975166643555;-0.8001708984375;0.16778564453125;-0.5596923828125;-0.1357421875;1.9754478879403028;17.75037215215155;7.991384089435222;0.8984375;-0.00927734375;-0.3876953125;16.5;-11.9375;-4.8125;
1441975166666557;-0.8023681640625;0.16644287109375;-0.55743408203125;-0.13372802734375;2.0125037922495816;17.757977734498446;7.997204143229553;0.89013671875;0.00390625;-0.38525390625;14.75;-14.0;-5.6875;
1441975166681557;-0.80438232421875;0.165283203125;-0.55517578125;-0.13214111328125;2.0479136158291187;17.761770434935812;8.004236455882975;0.904296875;-0.00146484375;-0.38330078125;12.1875;-14.875;-5.8125;
1441975166705559;-0.80645751953125;0.164306640625;-0.55291748046875;-0.1304931640625;2.083932541043453;17.768025819898757;8.008380790556421;0.91162109375;-4.8828125E-4;-0.3857421875;9.75;-14.5;-5.6875;
1441975166726560;-0.80841064453125;0.16339111328125;-0.55072021484375;-0.1287841796875;2.1187141573379646;17.775825247012456;8.010939215087655;0.9140625;-0.00830078125;-0.40673828125;9.0;-14.0;-5.375;
1441975166741561;-0.81024169921875;0.1627197265625;-0.548583984375;-0.12725830078125;2.15206708033113;17.783581461762434;8.011777026197223;0.92431640625;-0.0068359375;-0.41552734375;8.9375;-13.3125;-4.5;
1441975166763562;-0.81195068359375;0.16229248046875;-0.54644775390625;-0.125732421875;2.1848252403914286;17.793455372578116;8.009416636142598;0.93310546875;-0.00341796875;-0.42822265625;7.9375;-12.6875;-3.625;
1441975166786563;-0.8134765625;0.1622314453125;-0.5445556640625;-0.1243896484375;2.2141601960976014;17.804609188871588;8.003618265326967;0.9287109375;-0.01220703125;-0.43994140625;6.25;-11.9375;-2.8125;
1441975166809565;-0.8148193359375;0.1622314453125;-0.54290771484375;-0.122802734375;2.2404605149919132;17.81972500178589;7.994654788492917;0.92333984375;-0.0302734375;-0.427734375;4.3125;-11.25;-2.5;
1441975166823566;-0.8160400390625;0.16229248046875;-0.54144287109375;-0.12091064453125;2.264813780598029;17.83928806649969;7.982288587747495;0.91845703125;-0.041015625;-0.42822265625;4.9375;-10.4375;-1.8125;
1441975166846567;-0.81707763671875;0.16241455078125;-0.540283203125;-0.11895751953125;2.285358275002192;17.86057433787554;7.9683079662402045;0.92138671875;-0.04736328125;-0.439453125;6.1875;-8.625;-0.3125;
1441975166861568;-0.818115234375;0.16265869140625;-0.53912353515625;-0.11688232421875;2.3062946207611215;17.8839937819552;7.952199351240557;0.93212890625;-0.0380859375;-0.44482421875;6.5625;-7.25;1.0;
1441975166883569;-0.81915283203125;0.1630859375;-0.537841796875;-0.1148681640625;2.32856512795959;17.90751918980399;7.9348993510547885;0.93408203125;-0.04541015625;-0.46630859375;7.0;-6.3125;1.9375;
1441975166906570;-0.82012939453125;0.163818359375;-0.53656005859375;-0.11309814453125;2.3504719967553713;17.930230155290204;7.91614112524848;0.919921875;-0.044921875;-0.46484375;5.8125;-6.6875;2.5;
1441975166922571;-0.8209228515625;0.16485595703125;-0.53533935546875;-0.11114501953125;2.371461851953235;17.95743767756445;7.892293322706118;0.90771484375;-0.04443359375;-0.45654296875;4.125;-7.375;3.6875;
1441975166943572;-0.82171630859375;0.16595458984375;-0.53424072265625;-0.10894775390625;2.3920129466794604;17.987785014565098;7.866152284813498;0.8955078125;-0.0556640625;-0.4462890625;3.4375;-7.375;5.1875;
1441975166974574;-0.8223876953125;0.16680908203125;-0.533447265625;-0.10650634765625;2.4093300006442275;0.01956913557761699;7.840710465191034;0.88525390625;-0.0673828125;-0.44580078125;4.375;-6.8125;6.125;
1441975166982575;-0.8231201171875;0.16754150390625;-0.53271484375;-0.10369873046875;2.427247719933404;0.05428901548994702;7.814420132768497;0.880859375;-0.0576171875;-0.4453125;7.0625;-5.6875;7.0625;
1441975167005576;-0.82373046875;0.168212890625;-0.53204345703125;-0.1009521484375;2.4438944778456992;0.0877964352139487;7.789297960473732;0.8759765625;-0.0478515625;-0.458984375;9.5;-4.5625;8.0;
1441975167026577;-0.82421875;0.1690673828125;-0.531494140625;-0.0982666015625;2.4590483731932853;0.12209112150732063;7.7624009392004085;0.86181640625;-0.03857421875;-0.45703125;9.8125;-4.0625;9.125;
1441975167042578;-0.8245849609375;0.169921875;-0.5311279296875;-0.0955810546875;2.472021814450518;0.15674914999537762;7.735193664243125;0.8642578125;-0.0341796875;-0.453125;9.5625;-3.4375;10.125;
1441975167063579;-0.82476806640625;0.170654296875;-0.5311279296875;-0.09283447265625;2.480689963084349;0.1923026138471505;7.707985321544266;0.87060546875;-0.04248046875;-0.45166015625;9.125;-2.5625;10.5;
1441975167088581;-0.8248291015625;0.17120361328125;-0.53125;-0.09027099609375;2.4870057072752836;0.2249295905679394;7.6837059371098;0.88037109375;-0.04248046875;-0.44873046875;10.4375;-1.0;10.5625;
1441975167103582;-0.82489013671875;0.1715087890625;-0.531494140625;-0.08782958984375;2.4916588225545295;0.2547205983822747;7.662857571673432;0.88916015625;-0.04150390625;-0.44921875;10.5;0.0625;9.9375;
1441975167123583;-0.82489013671875;0.1717529296875;-0.53179931640625;-0.08575439453125;2.4945140790984555;0.28027465887917985;7.645003412812594;0.89501953125;-0.0341796875;-0.44873046875;10.9375;0.5625;9.0625;
1441975167146584;-0.82489013671875;0.1719970703125;-0.531982421875;-0.08416748046875;2.4973670824568437;0.30002565156713695;7.630867990655008;0.90771484375;-0.0400390625;-0.435546875;9.4375;0.25;7.75;
1441975167179586;-0.824951171875;0.17230224609375;-0.531982421875;-0.0831298828125;2.5010338590472507;0.3134104525453984;7.620516651217861;0.9208984375;-0.0400390625;-0.44287109375;7.3125;0.25;6.5;
1441975167183586;-0.8251953125;0.17266845703125;-0.531494140625;-0.08251953125;2.5093327901720324;0.3205375185027737;7.614197931386747;0.9228515625;-0.04248046875;-0.43505859375;4.0;-1.0625;4.75;
1441975167206587;-0.82568359375;0.17303466796875;-0.53070068359375;-0.0821533203125;2.5212528251660324;0.3234282902076947;7.611072970645258;0.90478515625;-0.060546875;-0.42578125;1.0625;-3.4375;2.3125;
1441975167224588;-0.8262939453125;0.1732177734375;-0.5296630859375;-0.0821533203125;2.5348161233532704;0.32002653675366644;7.613399463239307;0.8876953125;-0.08251953125;-0.4140625;-1.0625;-5.875;-0.3125;
1441975167243590;-0.82708740234375;0.1732177734375;-0.5284423828125;-0.0823974609375;2.550145068741458;0.3117970717568985;7.620303937862212;0.88037109375;-0.080078125;-0.40576171875;-2.25;-7.5625;-2.375;
1441975167266591;-0.82806396484375;0.17303466796875;-0.52685546875;-0.08306884765625;2.5685033472788072;0.2963178910443589;7.633319421402317;0.888671875;-0.0712890625;-0.4140625;-2.875;-8.375;-3.8125;
1441975167282592;-0.8292236328125;0.17291259765625;-0.5247802734375;-0.08428955078125;2.591266967683651;0.273731599027004;7.650710999342806;0.89306640625;-0.0546875;-0.42822265625;-4.125;-9.625;-5.25;
1441975167311593;-0.83050537109375;0.17303466796875;-0.5224609375;-0.0860595703125;2.6162223360220422;0.24629347047707897;7.669612325295569;0.90478515625;-0.041015625;-0.44482421875;-6.9375;-11.6875;-6.375;
1441975167326594;-0.831787109375;0.17340087890625;-0.51995849609375;-0.0880126953125;2.6430359845185833;0.21843208733801625;7.6870384747281655;0.90478515625;-0.0498046875;-0.4384765625;-10.875;-13.5625;-7.6875;
1441975167342595;-0.83306884765625;0.173828125;-0.51739501953125;-0.08990478515625;2.6708215832765427;0.19188603424881875;7.703089084631316;0.8994140625;-0.06591796875;-0.435546875;-13.25;-14.75;-8.625;
1441975167374597;-0.8343505859375;0.17401123046875;-0.51507568359375;-0.09149169921875;2.6967444360001993;0.1680292961363294;7.718879991738284;0.90087890625;-0.08251953125;-0.43701171875;-13.75;-15.25;-9.5;
1441975167394598;-0.83563232421875;0.17401123046875;-0.51275634765625;-0.09295654296875;2.7227775463782904;0.14465644630579358;7.735426857841334;0.896484375;-0.0869140625;-0.42333984375;-11.875;-15.4375;-10.0;
1441975167402599;-0.83685302734375;0.1739501953125;-0.51043701171875;-0.09454345703125;2.748215419027254;0.12010902343066404;7.752841621565658;0.892578125;-0.07177734375;-0.421875;-10.3125;-15.75;-10.0625;
1441975167426600;-0.8380126953125;0.1739501953125;-0.50830078125;-0.09613037109375;2.7717749232781475;0.09683629340893334;7.768824064392484;0.89404296875;-0.05078125;-0.431640625;-10.0625;-15.25;-9.3125;
1441975167447601;-0.83892822265625;0.17425537109375;-0.50634765625;-0.09759521484375;2.792975501398139;0.07778300184808135;7.779780500710465;0.91015625;-0.03271484375;-0.44775390625;-9.6875;-14.0625;-7.75;
1441975167462602;-0.83966064453125;0.17486572265625;-0.504638671875;-0.0989990234375;2.811388876102637;0.06223489498218777;7.786275601206903;0.90673828125;-0.02392578125;-0.4609375;-9.8125;-12.125;-5.625;
1441975167483603;-0.84014892578125;0.17584228515625;-0.50323486328125;-0.1004638671875;2.8258561209461948;0.04943695097347571;7.788316140746992;0.896484375;-0.0234375;-0.46142578125;-10.3125;-10.375;-3.75;
1441975167506605;-0.84039306640625;0.17706298828125;-0.50213623046875;-0.10186767578125;2.8364446529516965;0.03980534011062764;7.78648671218274;0.87548828125;-0.03125;-0.447265625;-11.5625;-8.6875;-2.25;
1441975167522605;-0.84033203125;0.17852783203125;-0.50140380859375;-0.1031494140625;2.842332454106052;0.03412151884168094;7.780257542003301;0.8662109375;-0.04052734375;-0.44189453125;-12.4375;-6.8125;-1.0;
1441975167543607;-0.840087890625;0.17987060546875;-0.5010986328125;-0.104248046875;2.8432843720347614;0.030749266987027256;7.773172479818089;0.84375;-0.0595703125;-0.427734375;-13.0625;-4.6875;-0.5625;
1441975167566608;-0.8397216796875;0.18115234375;-0.5010986328125;-0.10504150390625;2.841169445151861;0.030940469479124464;7.764180040065386;0.8291015625;-0.0654296875;-0.421875;-11.5625;-2.5;-0.25;
1441975167588609;-0.83917236328125;0.18243408203125;-0.5013427734375;-0.10589599609375;2.8355319535329535;0.03132900886877699;7.754795507659152;0.8359375;-0.0576171875;-0.43017578125;-9.625;-0.1875;0.8125;
1441975167603610;-0.83856201171875;0.18377685546875;-0.50164794921875;-0.1070556640625;2.828380277569145;0.029242101921510503;7.7463931255283915;0.8466796875;-0.046875;-0.4423828125;-9.375;2.125;1.9375;
1441975167626611;-0.8377685546875;0.1854248046875;-0.5020751953125;-0.10858154296875;2.818612223100124;0.025847073146624565;7.7365084471398955;0.85009765625;-0.033203125;-0.44677734375;-10.4375;3.0;2.3125;
1441975167642612;-0.83673095703125;0.1876220703125;-0.5025634765625;-0.110595703125;2.80651247249024;0.02134797071645435;7.723338539743792;0.85986328125;-0.03369140625;-0.44287109375;-13.0625;3.5625;2.875;
1441975167671614;-0.83544921875;0.1903076171875;-0.50311279296875;-0.11297607421875;2.7922541519961843;0.016644163642445056;7.706735192227082;0.87451171875;-0.0341796875;-0.4345703125;-17.125;4.0625;4.1875;
1441975167686615;-0.83392333984375;0.19329833984375;-0.50390625;-0.1156005859375;2.774101115119958;0.012335427646118951;7.687515641620371;0.89404296875;-0.029296875;-0.44189453125;-20.1875;5.375;6.125;
1441975167708616;-0.83233642578125;0.19647216796875;-0.50469970703125;-0.118408203125;2.7554072807621517;0.007480004990054265;7.667316367639074;0.9140625;-0.02197265625;-0.44482421875;-21.875;6.8125;7.5625;
1441975167726617;-0.83050537109375;0.199951171875;-0.5054931640625;-0.12158203125;2.7348564596274705;0.001239922163255807;7.645563899555624;0.9228515625;-0.0166015625;-0.4541015625;-23.1875;7.5625;8.4375;
1441975167746618;-0.82855224609375;0.20404052734375;-0.50616455078125;-0.125244140625;2.714440208168132;17.993805911585017;7.620338304836428;0.939453125;-0.0029296875;-0.46142578125;-25.9375;8.75;9.9375;
1441975167768620;-0.826416015625;0.208740234375;-0.50665283203125;-0.129638671875;2.6937818588973452;17.982589575131094;7.593126928212425;0.94091796875;-0.0068359375;-0.48291015625;-30.125;10.0625;11.0;
1441975167783620;-0.8240966796875;0.2138671875;-0.50714111328125;-0.13409423828125;2.6724323509920596;17.97393581804346;7.561228856081635;0.92333984375;-0.01708984375;-0.4765625;-36.0;10.6875;11.25;
1441975167806622;-0.82159423828125;0.2191162109375;-0.50787353515625;-0.13824462890625;2.6485520258131214;17.970482680758433;7.524970459181771;0.91845703125;-0.0224609375;-0.4716796875;-37.9375;11.125;12.75;
1441975167828623;-0.819091796875;0.22418212890625;-0.50860595703125;-0.14208984375;2.62512133440385;17.96937438820496;7.488367278992012;0.9248046875;-0.0361328125;-0.4814453125;-37.3125;12.875;13.625;
1441975167843624;-0.816650390625;0.22900390625;-0.50946044921875;-0.1455078125;2.6016056171352675;17.97177900642133;7.451180927022709;0.90673828125;-0.03125;-0.48681640625;-34.75;14.1875;14.125;
1441975167866625;-0.81427001953125;0.23370361328125;-0.51025390625;-0.148681640625;2.5794933115862784;17.97605439788208;7.413621898681116;0.880859375;-0.02685546875;-0.47509765625;-32.1875;14.25;14.4375;
1441975167890627;-0.8116455078125;0.23822021484375;-0.51141357421875;-0.151611328125;2.552939593601502;17.983706937166268;7.374563265439303;0.85400390625;-0.021484375;-0.47705078125;-30.3125;15.0625;15.0;
1441975167905627;-0.808837890625;0.24267578125;-0.512939453125;-0.15447998046875;2.5220674339483935;17.993663514786423;7.333936568595068;0.87353515625;-0.00927734375;-0.48779296875;-28.0;17.75;16.1875;
1441975167926629;-0.80584716796875;0.2471923828125;-0.5145263671875;-0.1573486328125;2.489791503409741;0.005281149561640122;7.291297441248649;0.90380859375;0.013671875;-0.51513671875;-26.4375;20.8125;18.25;
1441975167948630;-0.80267333984375;0.25189208984375;-0.516357421875;-0.1602783203125;2.4545112980130694;0.01951870852697317;7.245184500345135;0.912109375;0.02490234375;-0.52587890625;-26.125;22.75;19.9375;
1441975167965631;-0.79925537109375;0.2567138671875;-0.5184326171875;-0.1629638671875;2.4167416051672155;0.039732562208286665;7.1936229695128695;0.9296875;0.037109375;-0.51416015625;-26.4375;23.375;21.4375;
1441975167994632;-0.795654296875;0.2615966796875;-0.520751953125;-0.16546630859375;2.376688288854353;0.06501483608201736;7.137596962380692;0.9501953125;0.02490234375;-0.51318359375;-26.0625;24.5625;23.125;
1441975168008633;-0.7921142578125;0.2662353515625;-0.523193359375;-0.16748046875;2.3373556022274147;0.09574357694765064;7.079286227935328;0.9345703125;0.0068359375;-0.48095703125;-25.3125;25.0625;23.4375;
1441975168026634;-0.78863525390625;0.27056884765625;-0.525634765625;-0.16900634765625;2.299829989958293;0.13108940475932662;7.019590459173028;0.91064453125;-0.00927734375;-0.4599609375;-22.6875;24.625;23.0625;
1441975168054636;-0.78546142578125;0.2744140625;-0.52801513671875;-0.17041015625;2.264446335859766;0.16442975328664605;6.964643010637031;0.9033203125;-0.0244140625;-0.44384765625;-19.625;23.625;22.0625;
1441975168077637;-0.78271484375;0.27764892578125;-0.530029296875;-0.17156982421875;2.2346018359262216;0.19410683718039853;6.9168074756246885;0.892578125;-0.0283203125;-0.42138671875;-17.4375;21.75;19.875;
1441975168085638;-0.7803955078125;0.2801513671875;-0.5318603515625;-0.17230224609375;2.208857304464212;0.2217094975480853;6.875918795807887;0.876953125;-0.0302734375;-0.40771484375;-14.5;19.25;17.125;
1441975168106639;-0.778564453125;0.28179931640625;-0.5335693359375;-0.17266845703125;2.186346599604594;0.24531113517399838;6.844296195878006;0.86865234375;-0.02880859375;-0.3955078125;-10.375;16.625;14.375;
1441975168145641;-0.777099609375;0.28253173828125;-0.53521728515625;-0.1728515625;2.164823508923112;0.26272548595888284;6.823560706408208;0.875;-0.02294921875;-0.38818359375;-5.4375;14.875;11.4375;
1441975168147641;-0.776123046875;0.28265380859375;-0.5364990234375;-0.1732177734375;2.1469783004580947;0.2697047695972258;6.815091842520397;0.88623046875;-0.0029296875;-0.3818359375;-1.0;13.4375;8.6875;
1441975168174643;-0.77532958984375;0.28253173828125;-0.5374755859375;-0.17401123046875;2.1305401526578134;0.26745325204629206;6.814976569276901;0.89599609375;0.03466796875;-0.3876953125;1.0625;11.6875;6.5625;
1441975168188644;-0.774658203125;0.28240966796875;-0.53802490234375;-0.1754150390625;2.116206581488848;0.2551516922189409;6.822123525004559;0.90478515625;0.0537109375;-0.38525390625;-0.125;10.1875;4.875;
1441975168206645;-0.7740478515625;0.282470703125;-0.53826904296875;-0.17718505859375;2.104035087913899;0.23797060749806986;6.831683580045205;0.91357421875;0.0615234375;-0.3779296875;-3.4375;8.375;3.0625;
1441975168226646;-0.77362060546875;0.28253173828125;-0.5382080078125;-0.17919921875;2.0947330842158536;0.21539498404624757;6.845525299709067;0.92724609375;0.0498046875;-0.3681640625;-6.0625;6.5625;1.0625;
1441975168248647;-0.77325439453125;0.28253173828125;-0.53790283203125;-0.18157958984375;2.086502663633407;0.1862023303811426;6.864550208426018;0.9384765625;0.03955078125;-0.361328125;-8.0;4.625;-0.8125;
1441975168265648;-0.7730712890625;0.282470703125;-0.53729248046875;-0.18426513671875;2.0809253952291837;0.1503601966494932;6.8891109501577565;0.95166015625;0.03759765625;-0.3486328125;-9.875;2.75;-3.0625;
1441975168286649;-0.77313232421875;0.28216552734375;-0.53631591796875;-0.187255859375;2.0785836319460578;0.10587229433262424;6.921913324526919;0.97265625;0.0205078125;-0.3408203125;-11.9375;0.375;-6.375;
1441975168308650;-0.77349853515625;0.28173828125;-0.53497314453125;-0.1904296875;2.080781042131787;0.055243071277807386;6.960535972814459;0.9833984375;0.00537109375;-0.3330078125;-13.6875;-2.0;-10.25;
1441975168331652;-0.77410888671875;0.28094482421875;-0.53338623046875;-0.19342041015625;2.0868931097622885;0.0019884750500206894;7.003911111864428;0.98974609375;-0.00634765625;-0.3388671875;-14.5;-4.1875;-13.5625;
1441975168347653;-0.775146484375;0.279296875;-0.5318603515625;-0.19573974609375;2.095953989699421;17.949063628958914;7.053549546310238;0.994140625;-0.013671875;-0.3369140625;-12.8125;-6.0;-16.4375;
1441975168368654;-0.77667236328125;0.27667236328125;-0.530517578125;-0.197265625;2.107490833754123;17.8975184262644;7.109607257925466;0.98828125;-0.02099609375;-0.3359375;-7.375;-7.125;-19.5625;
1441975168385655;-0.77850341796875;0.27313232421875;-0.52923583984375;-0.19818115234375;2.121162983103518;17.845797435436438;7.172269828102844;0.97705078125;-0.01318359375;-0.33154296875;0.0625;-8.25;-22.1875;
1441975168422657;-0.7806396484375;0.26898193359375;-0.528076171875;-0.198486328125;2.137061860986717;17.79694835747616;7.237398401116269;0.9541015625;-0.00341796875;-0.3251953125;6.1875;-8.9375;-24.1875;
1441975168431657;-0.782958984375;0.26409912109375;-0.52728271484375;-0.19818115234375;2.1519971467453622;17.75115821196551;7.305452612897479;0.9267578125;0.00732421875;-0.3232421875;11.5625;-8.75;-25.5;
1441975168452659;-0.78521728515625;0.25872802734375;-0.52685546875;-0.19744873046875;2.164316483414326;17.708586112745763;7.374278099416106;0.90869140625;0.0263671875;-0.32275390625;17.3125;-7.625;-25.625;
1441975168468660;-0.7874755859375;0.25286865234375;-0.52679443359375;-0.19622802734375;2.1744868227238454;17.669646755660192;7.443782034948989;0.89599609375;0.04296875;-0.32373046875;21.8125;-5.8125;-25.4375;
1441975168488661;-0.78955078125;0.24664306640625;-0.52728271484375;-0.1944580078125;2.1798311183844006;17.63670757812979;7.511356706474462;0.87646484375;0.05810546875;-0.32421875;26.125;-4.0;-24.9375;
1441975168505662;-0.791259765625;0.240234375;-0.528564453125;-0.19219970703125;2.1768044437880736;17.61105516089087;7.57483133363655;0.8857421875;0.0751953125;-0.32421875;30.625;-1.4375;-23.1875;
1441975168527663;-0.7926025390625;0.233642578125;-0.53033447265625;-0.18963623046875;2.1677047926834794;17.589137119855792;7.636635507124997;0.90234375;0.08984375;-0.31298828125;34.625;1.625;-20.5625;
1441975168548664;-0.79364013671875;0.2271728515625;-0.53253173828125;-0.18719482421875;2.1529081122770264;17.567663611943658;7.697174162713321;0.91259765625;0.1162109375;-0.310546875;37.1875;4.625;-18.0;
1441975168565665;-0.79425048828125;0.22119140625;-0.534912109375;-0.1849365234375;2.1340300654138153;17.5483806771998;7.752557046582985;0.9091796875;0.138671875;-0.28466796875;37.25;5.9375;-15.125;
1441975168586666;-0.79443359375;0.2158203125;-0.53741455078125;-0.18304443359375;2.1113532185545285;17.52976471064874;7.803033327780513;0.91064453125;0.14990234375;-0.27294921875;34.9375;6.9375;-12.5625;
1441975168625669;-0.7943115234375;0.21099853515625;-0.54010009765625;-0.181396484375;2.085176607199995;17.512778255160505;7.84857986032265;0.91259765625;0.14892578125;-0.2490234375;31.1875;7.8125;-10.3125;
1441975168631669;-0.79388427734375;0.206787109375;-0.54278564453125;-0.18011474609375;2.0570172846608914;17.496008891267383;7.889671577180664;0.91015625;0.14111328125;-0.23583984375;27.75;8.6875;-8.375;
1441975168646670;-0.79327392578125;0.20306396484375;-0.54534912109375;-0.1793212890625;2.0285855032984266;17.476399700090795;7.929371248566432;0.92041015625;0.1416015625;-0.2236328125;24.1875;8.5625;-6.75;
1441975168668671;-0.79254150390625;0.1998291015625;-0.54766845703125;-0.17901611328125;2.001442220602245;17.453692705391422;7.967874770821423;0.9365234375;0.1484375;-0.2109375;20.25;7.8125;-5.5625;
1441975168685672;-0.791748046875;0.1971435546875;-0.5498046875;-0.1790771484375;1.975576978302795;17.43025093293218;8.003204159348014;0.955078125;0.146484375;-0.21435546875;16.125;7.3125;-4.9375;
1441975168706673;-0.79083251953125;0.19488525390625;-0.5516357421875;-0.1798095703125;1.9514096188421322;17.400573968868216;8.039936988055846;0.97314453125;0.13916015625;-0.22314453125;11.6875;6.875;-4.9375;
1441975168728674;-0.78997802734375;0.19287109375;-0.55328369140625;-0.180908203125;1.9293377383126908;17.367173269710978;8.077837908752263;1.00927734375;0.1318359375;-0.2177734375;7.0625;5.5;-5.625;
1441975168745675;-0.78912353515625;0.19097900390625;-0.55474853515625;-0.18212890625;1.9091778597517695;17.332294513167184;8.11604600259708;1.0263671875;0.12451171875;-0.21337890625;4.0625;4.4375;-6.875;
1441975168766677;-0.78826904296875;0.1890869140625;-0.55609130859375;-0.18353271484375;1.8903599054251485;17.293923611836785;8.156885712624735;1.0341796875;0.11474609375;-0.216796875;2.25;3.875;-7.9375;
1441975168800679;-0.78759765625;0.1868896484375;-0.557373046875;-0.18487548828125;1.8738096379928662;17.252492374319566;8.202367440942664;1.044921875;0.10498046875;-0.21728515625;1.375;3.625;-9.5;
1441975168819680;-0.78717041015625;0.18426513671875;-0.55853271484375;-0.18597412109375;1.8607078817262797;17.20943634556435;8.252262078350407;1.06201171875;0.0986328125;-0.22314453125;2.5;3.1875;-11.6875;
1441975168827680;-0.786865234375;0.1812744140625;-0.5595703125;-0.1868896484375;1.8502683100779964;17.164595265200813;8.306113518036579;1.064453125;0.0947265625;-0.23291015625;4.875;3.0625;-13.75;
1441975168849681;-0.78668212890625;0.17803955078125;-0.5604248046875;-0.1881103515625;1.8430535232999576;17.11227607280259;8.367133580737374;1.056640625;0.09423828125;-0.236328125;6.625;3.0625;-15.6875;
1441975168865682;-0.78662109375;0.175048828125;-0.56097412109375;-0.189697265625;1.840044442958074;17.05703306755869;8.42846176475296;1.02978515625;0.11181640625;-0.236328125;6.375;3.0;-17.0625;
1441975168887684;-0.78643798828125;0.1728515625;-0.56134033203125;-0.1915283203125;1.8379335012559088;17.006417423538895;8.480724385949301;1.01318359375;0.1416015625;-0.24609375;3.8125;2.4375;-15.5625;
1441975168908685;-0.78619384765625;0.170654296875;-0.561767578125;-0.1932373046875;1.835377868564242;16.957332344089508;8.531939861286805;1.00048828125;0.12158203125;-0.25439453125;-0.0625;2.5625;-14.625;
1441975168925686;-0.78607177734375;0.16839599609375;-0.56219482421875;-0.1942138671875;1.833836988953745;16.91841902227827;8.576257749645432;0.98486328125;0.11376953125;-0.25390625;-0.3125;3.1875;-14.75;
1441975168947687;-0.78607177734375;0.1658935546875;-0.56280517578125;-0.194580078125;1.8317202019370733;16.88581821141523;8.617974607138942;0.9755859375;0.10205078125;-0.27001953125;3.1875;3.8125;-14.0625;
1441975168968688;-0.78607177734375;0.16326904296875;-0.563720703125;-0.1942138671875;1.8267080327003375;16.86215824441126;8.6544603137899;0.96337890625;0.099609375;-0.27880859375;6.5625;4.8125;-13.0;
1441975168985689;-0.7860107421875;0.16058349609375;-0.56488037109375;-0.193359375;1.8189186908565318;16.844357324637173;8.68745542161157;0.9677734375;0.10791015625;-0.29150390625;10.75;6.375;-10.6875;
1441975169007690;-0.78594970703125;0.157958984375;-0.5660400390625;-0.1923828125;1.8110510579650212;16.82878951665909;8.718456197631676;0.96826171875;0.11572265625;-0.30078125;13.0625;7.9375;-8.75;
1441975169031692;-0.7857666015625;0.15557861328125;-0.5673828125;-0.19122314453125;1.8002315084088616;16.817744627885286;8.744750149207992;0.96923828125;0.12646484375;-0.29931640625;13.75;8.0625;-7.25;
1441975169045693;-0.78546142578125;0.153564453125;-0.5687255859375;-0.1900634765625;1.788059413351955;16.810124572000188;8.766035124731467;0.9677734375;0.12353515625;-0.2822265625;13.9375;7.75;-5.3125;
1441975169075694;-0.78515625;0.1517333984375;-0.570068359375;-0.188720703125;1.7754233220068252;16.80704211008654;8.782778103699567;0.96337890625;0.1318359375;-0.271484375;13.125;7.3125;-3.3125;
1441975169091695;-0.78485107421875;0.1502685546875;-0.57135009765625;-0.18731689453125;1.7626736268508014;16.80888198844613;8.793319673316958;0.962890625;0.13671875;-0.2705078125;12.8125;7.0;-1.25;
1441975169106696;-0.78460693359375;0.1490478515625;-0.572509765625;-0.18572998046875;1.750833166694767;16.816526901459504;8.797748884091456;0.96875;0.13427734375;-0.26611328125;12.375;6.25;0.4375;
1441975169133698;-0.78448486328125;0.1480712890625;-0.573486328125;-0.18408203125;1.7410007160697463;16.828516327384378;8.797041468222302;0.9658203125;0.1376953125;-0.26220703125;12.25;4.8125;2.0;
1441975169149699;-0.78436279296875;0.14727783203125;-0.57440185546875;-0.182373046875;1.7313663127159997;16.84367922393015;8.792612164754848;0.96728515625;0.13818359375;-0.26904296875;11.8125;3.5625;3.4375;
1441975169171700;-0.7843017578125;0.14654541015625;-0.57525634765625;-0.18035888671875;1.7223095537931852;16.86459156089702;8.783403247438832;0.96630859375;0.1376953125;-0.25732421875;11.375;2.75;4.5;
1441975169194701;-0.78436279296875;0.1456298828125;-0.57611083984375;-0.17822265625;1.7142764794657608;16.885764028295274;8.775264207470942;0.962890625;0.13427734375;-0.26318359375;12.625;2.1875;5.25;
1441975169210702;-0.7845458984375;0.14459228515625;-0.5767822265625;-0.17608642578125;1.7089489267233609;16.90626196746044;8.768225670445359;0.9599609375;0.1357421875;-0.2587890625;14.0625;1.625;5.375;
1441975169225703;-0.78485107421875;0.14361572265625;-0.57720947265625;-0.174072265625;1.7067184408155485;16.926322943588907;8.76077805042608;0.94970703125;0.14794921875;-0.2626953125;14.375;1.125;5.6875;
1441975169247704;-0.78515625;0.1429443359375;-0.5775146484375;-0.17236328125;1.705464852304096;16.945378951191184;8.751786119780453;0.93798828125;0.16455078125;-0.26513671875;14.1875;0.1875;6.375;
1441975169268705;-0.78546142578125;0.1424560546875;-0.57757568359375;-0.17095947265625;1.7064718075219467;16.962167485387077;8.742887463327898;0.923828125;0.1650390625;-0.24951171875;11.625;-1.5;6.9375;
1441975169286706;-0.78594970703125;0.14208984375;-0.577392578125;-0.16961669921875;1.7108616568394448;16.980137026409746;8.732021543723933;0.90966796875;0.166015625;-0.24169921875;9.75;-2.75;7.0;
1441975169323709;-0.78662109375;0.14178466796875;-0.57684326171875;-0.1685791015625;1.7200219521664604;16.994874575247632;8.722758967032673;0.8896484375;0.16064453125;-0.244140625;9.0625;-4.0625;6.4375;
1441975169328709;-0.7874755859375;0.141845703125;-0.575927734375;-0.16778564453125;1.7335111430189074;17.010717523783534;8.709787146027566;0.8681640625;0.173828125;-0.2392578125;7.3125;-6.125;6.25;
1441975169344710;-0.78857421875;0.14202880859375;-0.57464599609375;-0.16693115234375;1.7518561836273803;17.029529010710814;8.693493129620576;0.84716796875;0.16748046875;-0.244140625;4.9375;-8.1875;6.6875;
1441975169367711;-0.78997802734375;0.1419677734375;-0.5731201171875;-0.16558837890625;1.7745494083522366;17.053449217212734;8.675075923901911;0.845703125;0.15576171875;-0.248046875;4.75;-10.625;6.0625;
1441975169391712;-0.79156494140625;0.1414794921875;-0.571533203125;-0.1639404296875;1.7994287632853825;17.077106719538534;8.659965630708461;0.857421875;0.14892578125;-0.25927734375;7.4375;-12.5625;5.3125;
1441975169412714;-0.79327392578125;0.1407470703125;-0.5699462890625;-0.1617431640625;1.8251925061462375;17.105912918187972;8.642999121359477;0.88232421875;0.154296875;-0.2705078125;10.5;-13.375;4.875;
1441975169429715;-0.79498291015625;0.13983154296875;-0.56842041015625;-0.15948486328125;1.850648688948465;17.133008932904875;8.628784070565729;0.9306640625;0.16259765625;-0.29833984375;14.0625;-13.4375;5.5;
1441975169448716;-0.79644775390625;0.13897705078125;-0.56719970703125;-0.15728759765625;1.8716971441375916;17.15879103411092;8.615455594650781;1.02001953125;0.1865234375;-0.3251953125;15.4375;-13.75;6.125;
1441975169480717;-0.7974853515625;0.1385498046875;-0.56634521484375;-0.1553955078125;1.8862986893056648;17.183437154822485;8.60027701038717;1.13525390625;0.23291015625;-0.353515625;16.0625;-12.1875;9.125;
1441975169487718;-0.7984619140625;0.1387939453125;-0.56500244140625;-0.15509033203125;1.9049700523632869;17.19217149931467;8.59147080951882;1.28076171875;0.2568359375;-0.40283203125;13.3125;-9.75;11.5;
1441975169508719;-0.79962158203125;0.14019775390625;-0.56268310546875;-0.15625;1.9333629768923462;17.192380593845378;8.579959128021596;1.220703125;0.234375;-0.38671875;3.0;-10.875;8.25;
1441975169525720;-0.80072021484375;0.14251708984375;-0.559814453125;-0.15887451171875;1.96605330809074;17.18124486362456;8.569685101083017;1.01611328125;0.1220703125;-0.3310546875;-10.125;-15.3125;1.0;
1441975169555722;-0.8018798828125;0.14471435546875;-0.556884765625;-0.16131591796875;1.9997485048394334;17.171532414413612;8.55919220422614;0.87353515625;0.00439453125;-0.28857421875;-22.625;-17.75;-6.6875;
1441975169571723;-0.8037109375;0.1451416015625;-0.55389404296875;-0.1619873046875;2.0395190997039916;17.169744941602488;8.555518984866387;0.80859375;-0.0673828125;-0.28857421875;-22.9375;-16.875;-11.4375;
1441975169592724;-0.80657958984375;0.1427001953125;-0.55084228515625;-0.1605224609375;2.0886379523435723;17.171072026922893;8.569720277592188;0.8056640625;-0.0810546875;-0.30810546875;-9.4375;-18.0;-15.5;
1441975169615725;-0.81024169921875;0.13812255859375;-0.54736328125;-0.15771484375;2.1484833061881163;17.17222091120247;8.598457372324829;0.826171875;-0.03466796875;-0.32421875;11.625;-20.4375;-20.0625;
1441975169628726;-0.81427001953125;0.13299560546875;-0.54339599609375;-0.1551513671875;2.215882161485688;17.16707499747302;8.634676880308776;0.8603515625;0.025390625;-0.3603515625;25.875;-23.6875;-23.0625;
1441975169644727;-0.8179931640625;0.1282958984375;-0.53924560546875;-0.15399169921875;2.2832209462825257;17.149196630379333;8.675878117105855;0.8984375;0.0751953125;-0.3896484375;27.3125;-25.625;-24.375;
1441975169667728;-0.82135009765625;0.12445068359375;-0.5350341796875;-0.15411376953125;2.3486650517561536;17.123974213449188;8.71546340672651;0.931640625;0.1044921875;-0.4091796875;19.625;-25.5;-25.5625;
1441975169688729;-0.8243408203125;0.12158203125;-0.53070068359375;-0.1551513671875;2.412560042754514;17.096783736281033;8.748965438355274;0.95849609375;0.11279296875;-0.44580078125;10.625;-23.5625;-25.4375;
1441975169712731;-0.82720947265625;0.119384765625;-0.52630615234375;-0.15673828125;2.4759946291273085;17.069662665492526;8.777300483256205;0.9697265625;0.11376953125;-0.4794921875;2.25;-22.1875;-24.1875;
1441975169728732;-0.8299560546875;0.11724853515625;-0.52197265625;-0.15838623046875;2.53826543165556;17.043414796940468;8.8042178549664;0.95947265625;0.08544921875;-0.5;-3.75;-21.3125;-24.75;
1441975169748733;-0.8328857421875;0.114501953125;-0.517578125;-0.1591796875;2.602684970199912;17.023942896522378;8.83043060334249;0.9091796875;0.05322265625;-0.4853515625;-5.125;-20.8125;-26.4375;
1441975169770734;-0.83599853515625;0.11065673828125;-0.513427734375;-0.1590576171875;2.666951743444349;17.008181429754583;8.861523055098031;0.85791015625;0.0126953125;-0.4755859375;-0.3125;-21.5625;-29.4375;
1441975169787735;-0.83941650390625;0.10540771484375;-0.50933837890625;-0.157958984375;2.7339752662672283;16.995251062751684;8.899856892228444;0.818359375;4.8828125E-4;-0.45654296875;7.1875;-21.125;-32.375;
1441975169810736;-0.843017578125;0.099365234375;-0.5050048828125;-0.1563720703125;2.805437428888995;16.98424460642302;8.941546193020951;0.798828125;0.02001953125;-0.46484375;16.8125;-20.625;-35.375;
1441975169825737;-0.84661865234375;0.09332275390625;-0.5006103515625;-0.1549072265625;2.877754763190913;16.973403789944054;8.982617441912337;0.80419921875;0.0625;-0.48681640625;22.125;-21.625;-35.8125;
1441975169854739;-0.85028076171875;0.0870361328125;-0.495849609375;-0.15386962890625;2.955016240089553;16.958752006017583;9.026614058648683;0.8349609375;0.09716796875;-0.51611328125;22.125;-21.875;-35.125;
1441975169870740;-0.85400390625;0.08062744140625;-0.4906005859375;-0.153564453125;3.0386690916038965;16.938551283448064;9.073430244350192;0.873046875;0.11865234375;-0.56201171875;20.75;-22.5;-37.1875;
1441975169892741;-0.857666015625;0.07440185546875;-0.48492431640625;-0.15423583984375;3.127340496894035;16.91232423270014;9.121223279161523;0.88818359375;0.138671875;-0.58935546875;17.4375;-24.0625;-39.875;
1441975169908742;-0.86138916015625;0.06854248046875;-0.478759765625;-0.15557861328125;3.2216935611788893;16.884550635966885;9.16604377635262;0.89306640625;0.142578125;-0.61767578125;11.5;-25.5;-42.5;
1441975169930743;-0.865234375;0.06298828125;-0.4720458984375;-0.15704345703125;3.3220240037958524;16.860172587667137;9.205473024634076;0.85693359375;0.12890625;-0.6142578125;6.125;-28.0;-44.125;
1441975169950744;-0.86932373046875;0.05718994140625;-0.46484375;-0.158203125;3.4288633262304775;16.840354007484244;9.242554250139078;0.8046875;0.10595703125;-0.60888671875;3.375;-30.9375;-44.5625;
1441975169967745;-0.873779296875;0.05059814453125;-0.45672607421875;-0.159423828125;3.548814311937184;16.820258708562957;9.282721577959816;0.7548828125;0.08837890625;-0.609375;4.75;-33.3125;-46.5625;
1441975169989747;-0.878662109375;0.04339599609375;-0.4476318359375;-0.16070556640625;3.6824277776183445;16.801327601713897;9.32381841212016;0.708984375;0.091796875;-0.61083984375;6.625;-37.3125;-51.25;
1441975170010748;-0.88348388671875;0.0361328125;-0.43804931640625;-0.1622314453125;3.82146177586758;16.782859349045438;9.36349474234795;0.68994140625;0.1474609375;-0.6376953125;8.8125;-42.0625;-52.8125;
1441975170027749;-0.8883056640625;0.02886962890625;-0.42816162109375;-0.163818359375;3.9639418983770227;16.766389913899346;9.400899160747855;0.69580078125;0.19482421875;-0.66455078125;9.0;-44.5;-52.0625;
1441975170049750;-0.8929443359375;0.0216064453125;-0.4180908203125;-0.165771484375;4.108335331853373;16.748896362978016;9.43771996890462;0.70751953125;0.23193359375;-0.68017578125;9.5;-47.0;-51.75;
1441975170071751;-0.8974609375;0.0145263671875;-0.407470703125;-0.16864013671875;4.259214179799736;16.727513388778284;9.473475552564333;0.70849609375;0.2666015625;-0.67431640625;8.375;-49.3125;-51.6875;
1441975170086752;-0.90155029296875;0.0076904296875;-0.3968505859375;-0.17242431640625;4.409710862221936;16.70128167271922;9.50894893329276;0.70458984375;0.3056640625;-0.6962890625;4.5;-52.5625;-52.5;
1441975170109753;-0.9051513671875;0.00146484375;-0.3865966796875;-0.1771240234375;4.555019270170993;16.67074296728752;9.542111907233645;0.70849609375;0.34423828125;-0.69873046875;-0.625;-53.0;-52.3125;
1441975170131755;-0.908447265625;-0.00421142578125;-0.37646484375;-0.18194580078125;4.697012201653254;16.64190260739752;9.570555847217301;0.68701171875;0.3388671875;-0.6865234375;-7.0625;-51.9375;-52.0;
1441975170146756;-0.91143798828125;-0.00933837890625;-0.36663818359375;-0.1866455078125;4.8332572570125825;16.615816051760575;9.594362499218061;0.666015625;0.33203125;-0.67919921875;-9.6875;-52.0;-50.0625;
1441975170169757;-0.91412353515625;-0.0145263671875;-0.35748291015625;-0.19097900390625;4.9612487213868;16.591815567045444;9.618172669028025;0.6513671875;0.32275390625;-0.6689453125;-11.625;-51.5625;-47.75;
1441975170191758;-0.91668701171875;-0.02008056640625;-0.3486328125;-0.19439697265625;5.085142765096308;16.573562210679242;9.642041712598635;0.6416015625;0.3046875;-0.66796875;-10.8125;-48.0;-48.125;
1441975170208759;-0.91900634765625;-0.026123046875;-0.3406982421875;-0.19677734375;5.198301804163563;16.56032929500844;9.668171939776482;0.611328125;0.27490234375;-0.65673828125;-6.8125;-45.8125;-49.375;
1441975170229760;-0.92095947265625;-0.0322265625;-0.33416748046875;-0.197998046875;5.293634012629577;16.552694647108382;9.694923309027756;0.59912109375;0.27197265625;-0.62890625;-0.5;-41.6875;-49.125;
1441975170252762;-0.9224853515625;-0.03814697265625;-0.32916259765625;-0.19818115234375;5.369092192348186;16.54978664700013;9.72158982459474;0.62744140625;0.298828125;-0.64892578125;5.8125;-34.8125;-46.3125;
1441975170266762;-0.92376708984375;-0.04400634765625;-0.32537841796875;-0.19732666015625;5.428686906635073;16.551902544691043;9.748348108324523;0.67138671875;0.27978515625;-0.658203125;8.6875;-28.75;-44.0;
1441975170290764;-0.9246826171875;-0.0498046875;-0.3228759765625;-0.19561767578125;5.471732385865642;16.557374906345025;9.77598424404291;0.68994140625;0.2587890625;-0.646484375;13.0;-23.3125;-41.75;
1441975170311765;-0.9251708984375;-0.05499267578125;-0.32220458984375;-0.1932373046875;5.490979998746443;16.564987915707892;9.802593023803965;0.68359375;0.267578125;-0.62890625;17.25;-16.8125;-38.0;
1441975170326766;-0.92510986328125;-0.059814453125;-0.32330322265625;-0.19024658203125;5.487576747006593;16.573587225490897;9.829959928630165;0.69091796875;0.27197265625;-0.615234375;19.6875;-8.0625;-32.0625;
1441975170349767;-0.9246826171875;-0.0640869140625;-0.32537841796875;-0.1873779296875;5.471433521354892;16.580229392344968;9.856495514829163;0.71044921875;0.27734375;-0.61279296875;21.5;1.3125;-26.9375;
1441975170373769;-0.923828125;-0.06756591796875;-0.3284912109375;-0.18487548828125;5.441621322629925;16.583502105124353;9.881347914719688;0.70849609375;0.2841796875;-0.6044921875;19.75;6.25;-23.25;
1441975170386769;-0.92266845703125;-0.0699462890625;-0.33203125;-0.18341064453125;5.40558277131284;16.580777290264415;9.902493996027603;0.693359375;0.2900390625;-0.59716796875;15.75;12.1875;-17.6875;
1441975170409771;-0.9215087890625;-0.07159423828125;-0.33551025390625;-0.182373046875;5.368957126722431;16.57660492877592;9.919758910840068;0.66748046875;0.2890625;-0.58154296875;8.4375;14.375;-12.9375;
1441975170431772;-0.92034912109375;-0.0728759765625;-0.3388671875;-0.181396484375;5.332607882904654;16.572769887309672;9.934666458186342;0.6611328125;0.2724609375;-0.578125;4.0625;13.875;-9.875;
1441975170448773;-0.91925048828125;-0.0738525390625;-0.34222412109375;-0.18011474609375;5.294690592551723;16.571459054639814;9.947038081007866;0.6650390625;0.2822265625;-0.58544921875;3.3125;13.3125;-7.875;
1441975170469774;-0.9180908203125;-0.07403564453125;-0.3460693359375;-0.1788330078125;5.2490372598827975;16.570635490352398;9.955472936705934;0.6689453125;0.30908203125;-0.59521484375;5.375;13.8125;-4.5625;
1441975170493775;-0.9166259765625;-0.07330322265625;-0.3504638671875;-0.17791748046875;5.194845500504839;16.567606076374858;9.960415438916696;0.693359375;0.337890625;-0.6201171875;4.1875;15.75;1.0;
1441975170507776;-0.9151611328125;-0.0716552734375;-0.3551025390625;-0.17718505859375;5.1356851884633254;16.564741214408723;9.960352796844049;0.70068359375;0.36328125;-0.6181640625;1.125;18.0625;6.5;
1441975170536778;-0.91326904296875;-0.06939697265625;-0.36083984375;-0.17608642578125;5.061026393970654;16.56272261618068;9.958619094110835;0.73779296875;0.361328125;-0.623046875;-1.9375;17.875;10.8125;
1441975170551779;-0.91070556640625;-0.06744384765625;-0.36822509765625;-0.17486572265625;4.968144908034302;16.55649646519302;9.963383126580556;0.8408203125;0.36279296875;-0.60498046875;-1.625;18.8125;13.125;
1441975170566780;-0.9071044921875;-0.06488037109375;-0.3763427734375;-0.17718505859375;4.8721299698009055;16.524141542255546;9.975780477817883;1.01806640625;0.38720703125;-0.6025390625;-0.625;22.1875;10.4375;
1441975170596781;-0.90411376953125;-0.062744140625;-0.38385009765625;-0.17718505859375;4.77945899448137;16.508235299233792;9.984001467839507;1.08984375;0.43212890625;-0.6083984375;-20.125;24.0625;6.9375;
1441975170611782;-0.9014892578125;-0.06182861328125;-0.39239501953125;-0.17193603515625;4.667072051989127;16.52362085131865;9.989973378519778;0.98828125;0.18603515625;-0.4619140625;-13.875;20.5;0.8125;
1441975170626783;-0.89886474609375;-0.06072998046875;-0.4002685546875;-0.1680908203125;4.56469530238288;16.531198823845813;9.996380311695322;0.86328125;0.17431640625;-0.44091796875;16.0;33.8125;10.625;
1441975170649784;-0.8961181640625;-0.05889892578125;-0.40570068359375;-0.170166015625;4.500593505530077;16.503918285915386;10.007559177953343;0.8095703125;0.40966796875;-0.5908203125;15.3125;40.5;21.0625;
1441975170671786;-0.89349365234375;-0.0543212890625;-0.41009521484375;-0.17510986328125;4.44613922008481;16.46580837471126;10.004809159998887;0.6630859375;0.5009765625;-0.619140625;-13.0;33.75;17.3125;
1441975170686786;-0.89141845703125;-0.046875;-0.41400146484375;-0.17852783203125;4.38386928866714;16.4483870855846;9.975726728692381;0.52978515625;0.453125;-0.52685546875;-34.375;26.625;24.875;
1441975170709788;-0.89044189453125;-0.0396728515625;-0.41632080078125;-0.1796875;4.335536719972357;16.45279338143906;9.935637363723236;0.44970703125;0.388671875;-0.57421875;-36.4375;26.5625;41.625;
1441975170731789;-0.89007568359375;-0.03472900390625;-0.41729736328125;-0.180419921875;4.309461667802581;16.45861425474177;9.905517060256177;0.31005859375;0.39892578125;-0.68212890625;-25.0625;28.375;48.9375;
1441975170746790;-0.89019775390625;-0.02886962890625;-0.41455078125;-0.18701171875;4.334903553623982;16.43386773309217;9.8750495769244;0.072265625;0.5302734375;-0.7001953125;-11.8125;33.6875;49.4375;
1441975170769791;-0.892333984375;-0.02069091796875;-0.40228271484375;-0.20391845703125;4.48114368037449;16.36603004250749;9.82841109302641;-0.1484375;0.86279296875;-0.77685546875;-31.125;24.1875;58.4375;
1441975170791792;-0.895263671875;-0.01043701171875;-0.38677978515625;-0.22119140625;4.654117926775917;16.30870510063872;9.75776230846477;-0.16796875;1.18212890625;-0.841796875;-75.375;-29.25;51.5;
1441975170806793;-0.89642333984375;0.0076904296875;-0.3731689453125;-0.2392578125;4.77300095482727;16.256047778552634;9.643236884996298;0.22412109375;0.6875;-0.70849609375;-98.3125;-74.9375;21.3125;
1441975170829795;-0.89788818359375;0.0233154296875;-0.35882568359375;-0.2540283203125;4.898971085170743;16.219224920227;9.536264760099812;0.75439453125;0.3828125;-0.78125;-132.1875;-95.4375;34.9375;
1441975170851796;-0.8974609375;0.034423828125;-0.3524169921875;-0.26312255859375;4.940995561636158;16.192331254975095;9.468608100834944;1.29736328125;0.28759765625;-0.68408203125;-110.0625;-103.625;22.3125;
1441975170868797;-0.897705078125;0.04046630859375;-0.3453369140625;-0.27069091796875;5.006624611292414;16.166019439563957;9.42863526192955;1.3017578125;0.21044921875;-0.5302734375;-78.3125;-79.75;-2.3125;
1441975170889798;-0.89642333984375;0.0458984375;-0.340087890625;-0.28057861328125;5.054737398322956;16.11690459426726;9.404062666502385;1.00439453125;0.37841796875;-0.5908203125;-54.5625;-61.5625;-10.125;
1441975170911799;-0.89385986328125;0.0501708984375;-0.33770751953125;-0.29071044921875;5.073871231020076;16.056991224157525;9.395871249540559;0.89697265625;0.4638671875;-0.47119140625;-60.6875;-48.3125;-8.3125;
1441975170928800;-0.89080810546875;0.0560302734375;-0.33526611328125;-0.30169677734375;5.087170417202068;15.993951026851759;9.379502791672474;0.83251953125;0.46240234375;-0.4228515625;-59.9375;-28.0625;-8.75;
1441975170949802;-0.88824462890625;0.062255859375;-0.3331298828125;-0.31024169921875;5.09218275714646;15.948376237398017;9.355546167802938;0.78662109375;0.40673828125;-0.43603515625;-71.625;-26.8125;-3.9375;
1441975170973803;-0.88677978515625;0.0650634765625;-0.329345703125;-0.31787109375;5.12883481479643;15.90632669519088;9.345851893658294;0.7978515625;0.30078125;-0.47265625;-65.25;-26.125;-2.5;
1441975170988804;-0.88739013671875;0.06622314453125;-0.319580078125;-0.32568359375;5.238947351616513;15.87266173425257;9.328461833410875;0.92724609375;0.53369140625;-0.53759765625;-46.0625;-33.3125;-17.125;
1441975171009805;-0.889892578125;0.06549072265625;-0.30615234375;-0.33184814453125;5.396199432939998;15.854800633050695;9.307495657679414;0.91796875;0.666015625;-0.67724609375;-42.625;-58.875;-32.6875;
1441975171031806;-0.8841552734375;0.071044921875;-0.30767822265625;-0.344482421875;5.363324815511993;15.770148291213864;9.307763958002155;0.7099609375;0.58740234375;-0.81396484375;-37.25;-64.9375;-44.1875;
1441975171047807;-0.89495849609375;0.060302734375;-0.29132080078125;-0.33270263671875;5.584152246802529;15.869120900240427;9.297914728664601;0.9091796875;0.30419921875;-0.12109375;-77.0625;-19.75;-12.0;
1441975171077809;-0.8963623046875;0.04937744140625;-0.28363037109375;-0.33721923828125;5.719802674490592;15.834860489993375;9.35112364419828;0.49853515625;0.66845703125;-1.212890625;74.0625;-58.375;-63.3125;
1441975171091810;-0.8997802734375;0.0367431640625;-0.2847900390625;-0.3287353515625;5.754844008188736;15.872766388814348;9.412563813263844;0.58251953125;0.52734375;-0.466796875;-1.125;-26.875;-82.25;
1441975171108811;-0.900146484375;0.018310546875;-0.2874755859375;-0.3267822265625;5.802881662025964;15.853641498357689;9.526106401950157;0.82763671875;0.49365234375;-0.64404296875;66.25;10.4375;-64.5;
1441975171130812;-0.898681640625;0.004638671875;-0.29473876953125;-0.32489013671875;5.781011118264902;15.83142343325731;9.624980218683504;0.4208984375;0.38232421875;-0.47314453125;38.875;46.875;-89.75;
1441975171151813;-0.89666748046875;-0.00543212890625;-0.30828857421875;-0.3177490234375;5.667509983166111;15.834511425286006;9.712395592229932;0.279296875;0.40869140625;-0.208984375;39.5625;60.75;-49.875;
1441975171168814;-0.89300537109375;-0.0111083984375;-0.32574462890625;-0.31048583984375;5.491213623806691;15.832448378181796;9.78744641262268;0.46240234375;0.40185546875;-0.6767578125;40.0625;98.3125;-17.6875;
1441975171188815;-0.88916015625;-0.016845703125;-0.3447265625;-0.30072021484375;5.292880380218578;15.839442137369637;9.864926100815508;0.498046875;0.1806640625;-0.4169921875;37.9375;105.8125;12.4375;
1441975171211816;-0.88433837890625;-0.01202392578125;-0.3477783203125;-0.311279296875;5.258416285736145;15.763870509539844;9.870968884088136;0.75830078125;0.7421875;-0.72265625;53.375;115.0625;22.875;
1441975171228817;-0.88433837890625;-0.0098876953125;-0.34136962890625;-0.31854248046875;5.331745722378096;15.734847028784596;9.85173161598297;0.31982421875;1.20361328125;-0.77880859375;-54.6875;36.8125;47.4375;
