1441975810013354;-0.13970947265625;0.61114501953125;0.77520751953125;0.07757568359375;10.814563299999788;12.849418772349086;0.152290550560487;-1.8720703125;-0.203125;-0.33251953125;-418.875;127.8125;118.9375;
1441975810044356;-0.13885498046875;0.56689453125;0.81085205078125;0.0419921875;10.5832187384358;12.532943903604549;0.26642437185083795;-1.619140625;-0.453125;-0.404296875;-406.125;92.75;129.125;
1441975810052356;-0.138427734375;0.5413818359375;0.8291015625;0.01470947265625;10.421121147531933;12.360779420807331;0.37194871914988614;-1.365234375;-0.5625;-0.34375;-350.1875;72.9375;142.0;
1441975810073357;-0.13800048828125;0.5401611328125;0.830078125;-0.00555419921875;10.289288731143607;12.358270804529477;0.4673689658118666;-1.2509765625;-0.5126953125;-0.26806640625;-200.0;57.4375;133.9375;
1441975810095359;-0.1466064453125;0.55450439453125;0.8189697265625;-0.014892578125;10.292282690369357;12.472926059485719;0.5530638144903148;-1.1162109375;-0.251953125;-0.251953125;-26.875;51.8125;114.75;
1441975810111359;-0.15057373046875;0.57122802734375;0.8065185546875;-0.0224609375;10.25464550006034;12.598827397357374;0.6159649393829852;-0.994140625;0.18896484375;-0.25048828125;76.1875;49.75;89.0625;
1441975810133361;-0.1578369140625;0.58709716796875;0.79351806640625;-0.0247802734375;10.279259558029503;12.72464767182474;0.6660438988522687;-0.95654296875;0.38037109375;-0.2177734375;106.5;45.4375;52.0;
1441975810157362;-0.16912841796875;0.602294921875;0.77978515625;-0.0218505859375;10.373720692092384;12.853986103952716;0.7086003408174285;-0.91748046875;0.45947265625;-0.154296875;110.5;45.4375;15.3125;
1441975810170363;-0.18487548828125;0.615478515625;0.7659912109375;-0.01324462890625;10.548263238939473;12.980083484340332;0.7452603884958764;-0.90673828125;0.55322265625;-0.115234375;115.5;47.6875;-23.125;
1441975810193364;-0.20562744140625;0.62445068359375;0.75347900390625;0.001220703125;10.814428261332704;13.090059831877863;0.7782249904262114;-0.92138671875;0.69384765625;-0.08203125;113.375;49.0;-66.6875;
1441975810209365;-0.23101806640625;0.62896728515625;0.741943359375;0.0216064453125;11.171655617626227;13.184875380249542;0.8079961704576694;-0.927734375;0.8173828125;-0.02490234375;98.4375;50.1875;-115.3125;
1441975810230366;-0.26080322265625;0.63037109375;0.7294921875;0.04852294921875;11.621413590131514;13.279020559915649;0.8357736322683219;-0.8994140625;0.8837890625;0.048828125;83.8125;48.875;-165.0625;
1441975810253368;-0.29388427734375;0.6295166015625;0.71453857421875;0.08209228515625;12.155785420111059;13.383486309576082;0.8625576192290011;-0.89111328125;0.859375;0.11669921875;83.4375;46.0625;-214.6875;
1441975810269369;-0.33013916015625;0.62725830078125;0.69500732421875;0.12017822265625;12.756860189931944;13.517953260303962;0.9083661445376334;-0.95263671875;0.7626953125;0.14599609375;93.5625;39.4375;-258.3125;
1441975810290370;-0.36724853515625;0.622802734375;0.67181396484375;0.16082763671875;13.393205986570862;13.681346733945173;0.9790943251307689;-1.02392578125;0.6728515625;0.1533203125;110.6875;44.4375;-293.25;
1441975810313371;-0.4022216796875;0.61444091796875;0.64849853515625;0.2003173828125;14.016110288290918;13.852565667753277;1.0734640402015772;-1.19970703125;0.591796875;0.08642578125;118.5625;44.1875;-312.375;
1441975810329372;-0.43408203125;0.60089111328125;0.62725830078125;0.23876953125;14.625770880677436;14.013533001759342;1.1786669740577158;-1.38232421875;0.5263671875;-0.00537109375;102.875;36.6875;-308.25;
1441975810350373;-0.46392822265625;0.582275390625;0.6082763671875;0.2750244140625;15.222081824970608;14.174015133760022;1.309546080805322;-1.447265625;0.39892578125;-0.0986328125;76.4375;17.4375;-303.25;
1441975810373374;-0.49041748046875;0.5618896484375;0.59051513671875;0.30816650390625;15.775868395878103;14.365051518717674;1.4819493153447998;-1.474609375;0.20849609375;-0.0869140625;47.5;5.375;-297.375;
1441975810389375;-0.51348876953125;0.54156494140625;0.573974609375;0.3370361328125;16.265166430308692;14.623066702207506;1.7294666067929914;-1.46533203125;0.138671875;-0.02734375;34.875;-0.625;-279.5625;
1441975810411377;-0.53387451171875;0.5205078125;0.56048583984375;0.36029052734375;16.68102470647792;14.969923126671473;2.087030504264961;-1.4326171875;0.12548828125;-0.04248046875;25.0625;-2.3125;-253.75;
1441975810433378;-0.551025390625;0.50091552734375;0.5494384765625;0.37872314453125;17.00850395931494;15.469030384654943;2.605375535633933;-1.37744140625;0.02001953125;-0.03662109375;1.5625;-4.1875;-223.3125;
1441975810449379;-0.56390380859375;0.485107421875;0.53875732421875;0.39544677734375;17.244897477016366;16.2138359192759;3.3528478347080295;-1.3349609375;-0.08349609375;-0.00732421875;-9.1875;-4.0;-188.9375;
1441975810470380;-0.57183837890625;0.4732666015625;0.5281982421875;0.41229248046875;17.39213455526481;17.221344728762844;4.337844678217743;-1.33203125;-0.13916015625;-9.765625E-4;5.5;-5.5625;-158.4375;
1441975810493381;-0.57550048828125;0.4647216796875;0.5185546875;0.42877197265625;17.454091766015193;0.34868780379749026;5.4249031545155955;-1.3076171875;-0.12548828125;-0.0283203125;29.125;-13.4375;-133.6875;
1441975810509382;-0.57611083984375;0.458984375;0.51141357421875;0.4425048828125;17.45880741417626;1.2683134031889767;6.302654088629253;-1.19140625;-0.04052734375;-0.04296875;45.375;-20.8125;-110.125;
1441975810530383;-0.57550048828125;0.45458984375;0.50732421875;0.45245361328125;17.447077244040166;1.907849359631603;6.9126791655072415;-1.068359375;0.06396484375;-0.05859375;46.3125;-23.0;-86.375;
1441975810553385;-0.57415771484375;0.45013427734375;0.50634765625;0.45965576171875;17.444924262248566;2.4045197310839663;7.3947678555328995;-0.9833984375;0.119140625;-0.08837890625;33.4375;-26.5;-65.1875;
1441975810575386;-0.57183837890625;0.44549560546875;0.50775146484375;0.46551513671875;17.455757086184594;2.8753560559052485;7.859424978444435;-0.947265625;0.099609375;-0.1025390625;17.6875;-33.8125;-46.375;
1441975810590387;-0.56842041015625;0.44189453125;0.51080322265625;0.4697265625;17.481327685648726;3.2985356286215626;8.279754853680577;-0.88134765625;0.033203125;-0.0771484375;9.0;-41.1875;-29.8125;
1441975810613388;-0.56365966796875;0.4395751953125;0.515380859375;0.47265625;17.525634261757055;3.731539167754742;8.710388561981597;-0.7900390625;0.01953125;-0.06005859375;4.9375;-42.5625;-13.25;
1441975810629389;-0.55755615234375;0.43853759765625;0.52130126953125;0.474365234375;17.586892900012078;4.244874319513057;9.221165836290549;-0.7265625;0.00390625;-0.0546875;4.25;-44.875;4.0;
1441975810650390;-0.5504150390625;0.43853759765625;0.52825927734375;0.4749755859375;17.65438905478343;4.947974104569287;9.921897596139162;-0.728515625;0.001953125;-0.05078125;4.3125;-47.875;19.125;
1441975810673392;-0.54217529296875;0.440185546875;0.535888671875;0.474365234375;17.71836144927024;5.994349589598517;10.96346541639487;-0.77978515625;-0.01318359375;-0.05126953125;4.375;-48.9375;32.5625;
1441975810695393;-0.5328369140625;0.4432373046875;0.54364013671875;0.47332763671875;17.740917293112567;7.508108273085301;12.46683936248368;-0.80029296875;0.01416015625;-0.04833984375;6.3125;-47.9375;45.0625;
1441975810710394;-0.52239990234375;0.44744873046875;0.551513671875;0.47186279296875;17.692081044748424;9.029123340717936;13.972642997896715;-0.8447265625;0.046875;-0.05810546875;12.0625;-48.125;52.75;
1441975810740395;-0.51104736328125;0.45281982421875;0.55889892578125;0.47039794921875;17.586813621119404;10.030953115179896;14.951981543635066;-0.91064453125;0.08984375;-0.04931640625;16.625;-48.375;59.0;
1441975810749396;-0.49969482421875;0.45867919921875;0.565673828125;0.46893310546875;17.45875426123727;10.610609859619748;15.506013707250935;-0.9853515625;0.1083984375;-0.05419921875;23.8125;-48.125;63.6875;
1441975810772397;-0.48822021484375;0.46514892578125;0.57147216796875;0.46759033203125;17.324722396146875;10.983721382456412;15.848303944624794;-1.0390625;0.10546875;-0.044921875;26.8125;-45.6875;65.875;
1441975810793398;-0.47674560546875;0.472412109375;0.57623291015625;0.46636962890625;17.19171587869066;11.259711001986004;16.087854812055575;-1.04736328125;0.11865234375;-0.03076171875;31.9375;-41.625;65.6875;
1441975810809399;-0.465576171875;0.48016357421875;0.57965087890625;0.46539306640625;17.0668783784342;11.47557478362905;16.262192037162684;-1.0439453125;0.15625;-0.01123046875;37.25;-36.3125;63.75;
1441975810830401;-0.45526123046875;0.48779296875;0.58221435546875;0.46453857421875;16.952732657898217;11.646488839190374;16.391508573725385;-1.03466796875;0.18212890625;0.0029296875;42.3125;-30.5;60.125;
1441975810853402;-0.445556640625;0.49554443359375;0.58367919921875;0.4638671875;16.849792664786925;11.795301028290066;16.496391987210764;-1.0234375;0.1904296875;0.01904296875;42.4375;-25.0625;55.375;
1441975810875403;-0.43682861328125;0.50347900390625;0.5841064453125;0.46307373046875;16.760071923410337;11.938706064665716;16.59544163813822;-0.9931640625;0.20068359375;0.041015625;44.6875;-18.4375;51.1875;
1441975810898404;-0.429443359375;0.510498046875;0.58453369140625;0.4617919921875;16.679869143818003;12.061627468331745;16.68186000114818;-0.958984375;0.2314453125;0.044921875;45.125;-11.5;45.25;
1441975810914405;-0.4244384765625;0.51568603515625;0.58514404296875;0.45989990234375;16.618243198753245;12.158122068208785;16.756233151675147;-0.9541015625;0.279296875;0.0419921875;37.375;-8.0625;38.375;
1441975810935407;-0.4219970703125;0.518798828125;0.5860595703125;0.45733642578125;16.576642950468948;12.230783446076725;16.822952100469404;-0.943359375;0.28857421875;0.02392578125;22.25;-4.625;29.75;
1441975810950407;-0.42138671875;0.52044677734375;0.58709716796875;0.45477294921875;16.551768356743093;12.28292830904412;16.87899696385086;-0.94287109375;0.27783203125;0.03369140625;6.5;0.625;21.5625;
1441975810973409;-0.42205810546875;0.521240234375;0.5877685546875;0.452392578125;16.542034345442666;12.325799589691464;16.930340399028186;-0.92529296875;0.259765625;0.04736328125;-3.3125;4.125;14.25;
1441975810995410;-0.423828125;0.52166748046875;0.58770751953125;0.45025634765625;16.547555735328025;12.370063010364671;16.984473628030656;-0.87255859375;0.23876953125;0.0625;-7.625;7.625;7.5625;
1441975811010411;-0.42626953125;0.52227783203125;0.586669921875;0.4486083984375;16.56596985366212;12.422710749066248;17.04414840288321;-0.86572265625;0.2275390625;0.07373046875;-8.5625;12.75;1.125;
1441975811033412;-0.42950439453125;0.52276611328125;0.585205078125;0.4468994140625;16.59300889300312;12.483888294870077;17.113923435975316;-0.86376953125;0.22021484375;0.06640625;-5.5;16.3125;-3.6875;
1441975811057414;-0.433349609375;0.52294921875;0.58355712890625;0.44512939453125;16.625920793142928;12.548937251298149;17.189849193227104;-0.8203125;0.21337890625;0.064453125;-6.9375;20.1875;-8.0625;
1441975811070414;-0.43780517578125;0.5225830078125;0.58184814453125;0.44342041015625;16.66513430612524;12.612223445446144;17.266991651190267;-0.81201171875;0.212890625;0.05908203125;-8.6875;22.3125;-11.1875;
1441975811093416;-0.442626953125;0.52142333984375;0.5806884765625;0.44146728515625;16.70442053786283;12.666702119751617;17.340954876857737;-0.8291015625;0.19384765625;0.03955078125;-12.25;21.9375;-13.25;
1441975811115417;-0.4473876953125;0.51995849609375;0.5799560546875;0.43939208984375;16.740424672750418;12.71641826392076;17.41243238213599;-0.814453125;0.16357421875;0.04052734375;-17.5;20.875;-12.8125;
1441975811132418;-0.451904296875;0.51861572265625;0.57916259765625;0.4373779296875;16.77425908342361;12.769462275820286;17.48582886220184;-0.76904296875;0.13818359375;0.04541015625;-19.9375;20.1875;-11.0625;
1441975811153419;-0.45562744140625;0.51812744140625;0.5777587890625;0.43603515625;16.805436868981676;12.83124853637642;17.55950849393401;-0.76611328125;0.12890625;0.0517578125;-18.3125;20.4375;-10.0;
1441975811169420;-0.45806884765625;0.5184326171875;0.575927734375;0.435546875;16.830460250014063;12.89061718334169;17.621111309161936;-0.80419921875;0.119140625;0.044921875;-10.0;18.9375;-8.5;
1441975811192421;-0.45928955078125;0.51953125;0.57415771484375;0.43524169921875;16.843548710433925;12.95024836208951;17.6768508145969;-0.83349609375;0.1328125;0.05029296875;-0.75;16.0;-6.875;
1441975811213422;-0.45977783203125;0.52069091796875;0.57269287109375;0.43524169921875;16.850645634869664;12.995625319763944;17.71606074856308;-0.84423828125;0.18994140625;0.04931640625;5.0625;13.25;-5.4375;
1441975811229423;-0.46063232421875;0.521240234375;0.571533203125;0.4351806640625;16.860629691561073;13.031514833020962;17.749647197846013;-0.85791015625;0.22900390625;0.04833984375;6.9375;9.625;-6.1875;
1441975811252425;-0.461669921875;0.521240234375;0.57061767578125;0.435302734375;16.87377830930219;13.054258112070364;17.772363725729246;-0.8720703125;0.23828125;0.0556640625;3.3125;9.1875;-8.375;
1441975811273426;-0.4622802734375;0.52130126953125;0.56927490234375;0.43634033203125;16.891182771452694;13.066197589404055;17.778996467966657;-0.904296875;0.2265625;0.0712890625;0.9375;8.6875;-9.125;
1441975811297427;-0.46209716796875;0.52215576171875;0.56744384765625;0.43792724609375;16.905406112122495;13.08221105784017;17.782150098933172;-0.9140625;0.193359375;0.08984375;6.3125;7.0;-9.5;
1441975811312428;-0.461669921875;0.523193359375;0.56591796875;0.4390869140625;16.912988516312083;13.10082599315776;17.78880368181242;-0.89453125;0.19873046875;0.095703125;13.75;6.1875;-9.0625;
1441975811333429;-0.46160888671875;0.52349853515625;0.56524658203125;0.43975830078125;16.918777178539365;13.105407094412039;17.788446690447422;-0.89208984375;0.23193359375;0.08984375;12.875;6.5625;-7.8125;
1441975811349430;-0.46234130859375;0.5224609375;0.56573486328125;0.43951416015625;16.924336426713463;13.091783435161016;17.782025803402956;-0.9306640625;0.22705078125;0.07568359375;5.4375;3.75;-6.4375;
1441975811372432;-0.4632568359375;0.52056884765625;0.56732177734375;0.438720703125;16.925605956642922;13.056680572815958;17.761860810767335;-0.94873046875;0.18896484375;0.076171875;-6.6875;2.375;-3.6875;
1441975811393433;-0.46380615234375;0.51861572265625;0.569580078125;0.43743896484375;16.917933148087798;13.013930155696988;17.736532468357556;-0.9462890625;0.14208984375;0.091796875;-14.5;1.0625;1.1875;
1441975811409434;-0.4638671875;0.51715087890625;0.5723876953125;0.435546875;16.898077389474373;12.976819829398815;17.717381483235553;-0.93212890625;0.111328125;0.09716796875;-16.75;-0.8125;7.4375;
1441975811432435;-0.4632568359375;0.51593017578125;0.5760498046875;0.43280029296875;16.862751931603256;12.939103525044887;17.699966161292622;-0.9345703125;0.1123046875;0.087890625;-17.5625;-1.6875;13.6875;
1441975811453436;-0.46270751953125;0.5142822265625;0.58062744140625;0.42919921875;16.819629988107934;12.896725220209161;17.684440546665677;-0.9697265625;0.14208984375;0.07177734375;-20.0625;-4.0625;20.0;
1441975811475437;-0.4620361328125;0.5120849609375;0.5859375;0.42535400390625;16.772143758973076;12.840272947946193;17.658929071909675;-0.984375;0.14453125;0.06005859375;-26.8125;-6.4375;24.25;
1441975811492438;-0.46044921875;0.51068115234375;0.59100341796875;0.4217529296875;16.71734548350443;12.791394703726045;17.634715586183408;-0.98046875;0.111328125;0.07568359375;-30.6875;-8.375;28.75;
1441975811513440;-0.45806884765625;0.51025390625;0.5955810546875;0.4183349609375;16.65661411216748;12.757519094772297;17.618524286712006;-0.9892578125;0.107421875;0.08740234375;-24.5;-9.3125;32.625;
1441975811543441;-0.45538330078125;0.51025390625;0.6002197265625;0.4146728515625;16.590309532858853;12.732342667214509;17.609835704571342;-0.984375;0.123046875;0.0810546875;-17.4375;-9.8125;35.5625;
1441975811552442;-0.45257568359375;0.5101318359375;0.6051025390625;0.4107666015625;16.520822260912006;12.706403493270917;17.601862311050127;-0.96533203125;0.140625;0.0732421875;-16.1875;-10.1875;37.9375;
1441975811573443;-0.44976806640625;0.5098876953125;0.610107421875;0.40679931640625;16.450716014594562;12.679754137034076;17.59409917629675;-0.9736328125;0.14501953125;0.07421875;-17.6875;-10.6875;39.9375;
1441975811595444;-0.44696044921875;0.5096435546875;0.61505126953125;0.40264892578125;16.380019280176484;12.657062957159646;17.590729310563162;-0.9755859375;0.14697265625;0.080078125;-18.5;-11.375;40.625;
1441975811612445;-0.4442138671875;0.5093994140625;0.61981201171875;0.39874267578125;16.312086036597652;12.634927255772908;17.58686403873008;-0.96923828125;0.15234375;0.0810546875;-18.875;-11.1875;41.1875;
1441975811633447;-0.44158935546875;0.509033203125;0.624267578125;0.39508056640625;16.248524977926444;12.613087491556028;17.582457959318447;-0.962890625;0.15234375;0.0810546875;-17.6875;-11.4375;40.75;
1441975811655448;-0.43914794921875;0.50860595703125;0.62847900390625;0.3916015625;16.188921087631705;12.592634189836886;17.578924215796484;-0.97802734375;0.1455078125;0.0849609375;-17.0;-11.375;40.0625;
1441975811672449;-0.43658447265625;0.50836181640625;0.63250732421875;0.3883056640625;16.12972091514557;12.57430106054671;17.575581464086298;-0.986328125;0.13671875;0.0830078125;-16.375;-11.1875;39.25;
1441975811694450;-0.4342041015625;0.5081787109375;0.63616943359375;0.38531494140625;16.075401985473903;12.558363964104124;17.573021958167775;-0.96484375;0.1484375;0.09375;-14.3125;-11.125;38.5;
1441975811715451;-0.4322509765625;0.5079345703125;0.63922119140625;0.38275146484375;16.030314713936974;12.545145511445998;17.57156177669172;-0.966796875;0.1513671875;0.091796875;-12.625;-10.6875;36.5;
1441975811732452;-0.43035888671875;0.5076904296875;0.641845703125;0.38079833984375;15.991222641485583;12.530540228572697;17.565835424634656;-0.9912109375;0.1474609375;0.08837890625;-11.1875;-9.6875;33.625;
1441975811760454;-0.4285888671875;0.50775146484375;0.6439208984375;0.379150390625;15.956795725932196;12.521765704561068;17.562893036653794;-0.99072265625;0.142578125;0.09423828125;-8.125;-9.6875;31.0;
1441975811775455;-0.427001953125;0.50799560546875;0.6453857421875;0.378173828125;15.930100085666968;12.514936784128789;17.55806838284367;-0.97412109375;0.15234375;0.0986328125;-4.875;-8.375;28.3125;
1441975811792456;-0.42572021484375;0.5084228515625;0.64642333984375;0.3773193359375;15.908317224769126;12.513647926695462;17.557495691831118;-0.9716796875;0.1552734375;0.10888671875;-1.25;-7.0625;24.5625;
1441975811813457;-0.4248046875;0.50860595703125;0.64715576171875;0.376708984375;15.89318935938056;12.51144255305914;17.55616713948399;-0.94287109375;0.16259765625;0.099609375;0.25;-5.5;21.5;
1441975811835458;-0.42449951171875;0.508544921875;0.6475830078125;0.37646484375;15.88727757304478;12.508408551598107;17.554423300942375;-0.9267578125;0.17919921875;0.10791015625;0.0625;-3.9375;17.4375;
1441975811852459;-0.4249267578125;0.50811767578125;0.647705078125;0.37640380859375;15.891022982536683;12.505144889184356;17.554152634469986;-0.927734375;0.18798828125;0.107421875;-0.75;-2.3125;12.375;
1441975811873460;-0.42578125;0.5074462890625;0.6474609375;0.37677001953125;15.903172246882185;12.50014110431494;17.551718933679982;-0.92333984375;0.19677734375;0.10400390625;-2.0625;-0.625;7.0;
1441975811895462;-0.42724609375;0.50653076171875;0.64666748046875;0.37762451171875;15.92654031173723;12.494909632612986;17.54843989115314;-0.9052734375;0.2119140625;0.11279296875;-2.125;0.5625;1.6875;
1441975811911462;-0.429443359375;0.50537109375;0.64532470703125;0.379150390625;15.96300805335517;12.488389615014096;17.542991730187325;-0.9033203125;0.22705078125;0.10546875;-1.6875;2.3125;-5.25;
1441975811933464;-0.4320068359375;0.50384521484375;0.643310546875;0.38153076171875;16.011617793095343;12.476571408513248;17.529895428845343;-0.92333984375;0.228515625;0.10498046875;-0.75;3.4375;-11.6875;
1441975811949465;-0.43511962890625;0.50213623046875;0.64068603515625;0.3846435546875;16.072277725434724;12.462445971703348;17.512591740220103;-0.92431640625;0.21728515625;0.0986328125;0.625;2.9375;-18.125;
1441975811979466;-0.43829345703125;0.50048828125;0.6375732421875;0.38836669921875;16.138987506124586;12.446313860015515;17.49004467437093;-0.923828125;0.201171875;0.09716796875;2.8125;4.0;-23.6875;
1441975811993467;-0.4417724609375;0.49871826171875;0.63397216796875;0.392578125;16.213644950487048;12.427612857488569;17.463305507626213;-0.92626953125;0.20654296875;0.10400390625;5.875;4.5;-28.1875;
1441975812015468;-0.44549560546875;0.49676513671875;0.63018798828125;0.39697265625;16.29264574343838;12.405240330017266;17.433071445751448;-0.92578125;0.19775390625;0.0947265625;6.9375;4.8125;-32.5;
1441975812031469;-0.44927978515625;0.49456787109375;0.62628173828125;0.40155029296875;16.37428417079966;12.376125713513796;17.39614430625988;-0.931640625;0.19921875;0.09326171875;6.5;5.0625;-35.75;
1441975812054471;-0.45330810546875;0.49224853515625;0.62213134765625;0.4063720703125;16.460602397421574;12.34214968673183;17.353988714612747;-0.9404296875;0.19921875;0.1025390625;6.5625;5.625;-38.25;
1441975812075472;-0.457275390625;0.48974609375;0.617919921875;0.41131591796875;16.547554718360907;12.299358183050254;17.302906100814564;-0.96142578125;0.19189453125;0.1025390625;7.0;6.0;-40.6875;
1441975812091473;-0.4609375;0.4873046875;0.61376953125;0.41632080078125;16.631296134140115;12.248516381954726;17.242767188145795;-0.97216796875;0.17431640625;0.1103515625;6.8125;5.625;-41.4375;
1441975812114474;-0.4647216796875;0.485107421875;0.609375;0.42108154296875;16.715490404949353;12.201422640410176;17.18607230553823;-0.94873046875;0.16552734375;0.1142578125;8.1875;5.3125;-41.375;
1441975812135475;-0.46820068359375;0.48291015625;0.60528564453125;0.42559814453125;16.793778158792538;12.146521184150117;17.122345073586033;-0.95458984375;0.1552734375;0.1044921875;8.5625;6.6875;-40.8125;
1441975812151476;-0.47161865234375;0.4805908203125;0.60174560546875;0.429443359375;16.865171333644657;12.087505412080336;17.058265912459447;-0.9755859375;0.14892578125;0.10546875;7.5;6.25;-38.625;
1441975812174477;-0.47491455078125;0.4781494140625;0.59881591796875;0.43267822265625;16.928993128021588;12.023013687152334;16.992275119466186;-0.97119140625;0.14013671875;0.10302734375;3.875;5.625;-35.5625;
1441975812197479;-0.4776611328125;0.47607421875;0.59625244140625;0.43548583984375;16.983001497010108;11.960950742235077;16.928422132966073;-0.97119140625;0.126953125;0.10400390625;0.8125;5.1875;-31.6875;
1441975812211480;-0.48004150390625;0.474365234375;0.593994140625;0.43780517578125;17.029122473290855;11.906454145879444;16.87235470153757;-0.97705078125;0.125;0.10791015625;1.125;4.875;-27.6875;
1441975812234481;-0.4818115234375;0.47320556640625;0.5921630859375;0.4395751953125;17.064173066766546;11.865522994968183;16.829371812263577;-0.97802734375;0.13134765625;0.10400390625;1.125;4.875;-23.8125;
1441975812255482;-0.48345947265625;0.47216796875;0.59063720703125;0.44091796875;17.094422149679833;11.831147126717603;16.79437215640045;-0.9853515625;0.1552734375;0.10595703125;1.4375;4.4375;-20.25;
1441975812271483;-0.4847412109375;0.4713134765625;0.5894775390625;0.4420166015625;17.117878743109777;11.799973963586016;16.762764410326092;-0.99658203125;0.14208984375;0.095703125;0.0;4.1875;-16.3125;
1441975812300485;-0.4852294921875;0.47088623046875;0.5887451171875;0.44293212890625;17.130344592155424;11.775286498312003;16.73592291055977;-0.9921875;0.11767578125;0.1005859375;0.125;3.1875;-11.625;
1441975812316486;-0.4852294921875;0.4710693359375;0.58819580078125;0.44342041015625;17.13528183409127;11.772979967590055;16.73009241711366;-0.978515625;0.1123046875;0.1103515625;2.3125;1.875;-7.0;
1441975812331486;-0.4847412109375;0.47161865234375;0.5882568359375;0.44329833984375;17.129549413663966;11.787709684887973;16.74237487235703;-0.97216796875;0.11669921875;0.099609375;3.6875;1.875;-2.0625;
1441975812362488;-0.48406982421875;0.47216796875;0.5888671875;0.442626953125;17.11685436776905;11.80968188455687;16.764563605005915;-0.9755859375;0.1279296875;0.10107421875;2.75;1.0;2.8125;
1441975812375489;-0.48291015625;0.47283935546875;0.58990478515625;0.44171142578125;17.096101101702764;11.833407022854095;16.788721925055704;-0.986328125;0.11962890625;0.09033203125;-0.0625;-0.4375;7.625;
1441975812391490;-0.4813232421875;0.47381591796875;0.59124755859375;0.440673828125;17.0686447823511;11.861470822242996;16.816330708301294;-0.98974609375;0.11181640625;0.09423828125;0.0;-1.9375;12.1875;
1441975812414491;-0.4791259765625;0.475341796875;0.59271240234375;0.439453125;17.03360395262863;11.900728683398023;16.852712188932863;-0.994140625;0.10400390625;0.0986328125;1.1875;-3.125;16.125;
1441975812435492;-0.47650146484375;0.47711181640625;0.59429931640625;0.43829345703125;16.9937100069947;11.938261741383212;16.88561748226396;-0.98828125;0.111328125;0.09033203125;3.4375;-4.1875;19.875;
1441975812451493;-0.47344970703125;0.4791259765625;0.59600830078125;0.43701171875;16.948415127095043;11.977431127109174;16.918971669392114;-0.98681640625;0.1142578125;0.09521484375;5.3125;-5.5;22.6875;
1441975812474495;-0.4700927734375;0.48138427734375;0.59783935546875;0.43572998046875;16.899073683917024;12.016057404567054;16.950538821378075;-1.0009765625;0.11669921875;0.09619140625;6.625;-6.5;25.3125;
1441975812497496;-0.46661376953125;0.4835205078125;0.59979248046875;0.43438720703125;16.847815454205485;12.048529396244483;16.976511515317792;-1.01513671875;0.12890625;0.09228515625;7.875;-7.5625;27.1875;
1441975812511497;-0.462890625;0.48565673828125;0.60198974609375;0.43292236328125;16.79235390315725;12.077193339960056;16.999046818202423;-1.00390625;0.12744140625;0.09423828125;7.25;-8.4375;28.5625;
1441975812536498;-0.4591064453125;0.48797607421875;0.60400390625;0.43157958984375;16.737558139954537;12.106277104341375;17.020403814037664;-0.994140625;0.14306640625;0.1123046875;6.875;-8.625;29.5625;
1441975812557499;-0.45538330078125;0.4901123046875;0.60601806640625;0.43023681640625;16.683612000641133;12.130301224633218;17.037420716986684;-0.98974609375;0.1533203125;0.10693359375;8.5;-8.75;29.0;
1441975812572500;-0.45196533203125;0.4921875;0.60791015625;0.4287109375;16.632399589890987;12.156753435891464;17.05810011499357;-0.974609375;0.1708984375;0.11279296875;7.8125;-8.6875;27.9375;
1441975812594501;-0.44915771484375;0.49346923828125;0.60992431640625;0.42742919921875;16.588108600200968;12.166987943757922;17.06621005543067;-0.98046875;0.20068359375;0.09423828125;6.25;-8.375;25.5625;
1441975812623503;-0.44677734375;0.49407958984375;0.6119384765625;0.42633056640625;16.549603500017366;12.165298041577671;17.065043638766042;-0.97705078125;0.18701171875;0.09814453125;2.5;-9.0625;22.875;
1441975812631504;-0.44464111328125;0.49432373046875;0.6138916015625;0.42547607421875;16.515282826533767;12.156206222342988;17.05734296546705;-0.95751953125;0.16748046875;0.1015625;-0.5;-9.5;20.875;
1441975812654505;-0.442626953125;0.49444580078125;0.61566162109375;0.42486572265625;16.484359674695845;12.14429907723776;17.046287763107827;-0.94140625;0.15869140625;0.11279296875;-1.125;-9.5625;18.8125;
1441975812675506;-0.44097900390625;0.49432373046875;0.6173095703125;0.42437744140625;16.458256152355926;12.12991831222551;17.03379083933319;-0.92919921875;0.15966796875;0.1181640625;-0.5625;-9.3125;16.375;
1441975812691507;-0.43963623046875;0.49407958984375;0.61883544921875;0.42376708984375;16.435290882018272;12.117677889334345;17.0246802384808;-0.9052734375;0.158203125;0.109375;-1.9375;-9.25;14.5625;
1441975812714508;-0.438720703125;0.49365234375;0.62005615234375;0.4234619140625;16.419393682248163;12.102967111834829;17.01305066354304;-0.89208984375;0.173828125;0.10546875;-3.3125;-8.3125;12.0625;
1441975812743510;-0.4381103515625;0.4930419921875;0.6209716796875;0.4234619140625;16.40952716478523;12.085215265647578;16.998003482746967;-0.90478515625;0.17919921875;0.1015625;-3.25;-7.6875;8.75;
1441975812751510;-0.43798828125;0.49237060546875;0.621337890625;0.42376708984375;16.408566092200765;12.068424144963293;16.982998814497577;-0.91650390625;0.18603515625;0.111328125;-3.5;-6.75;5.3125;
1441975812774512;-0.438232421875;0.49151611328125;0.62127685546875;0.42462158203125;16.415775514250925;12.04622224740612;16.96128687377827;-0.9208984375;0.185546875;0.103515625;-2.375;-5.5;1.375;
1441975812795513;-0.4388427734375;0.4908447265625;0.6207275390625;0.42559814453125;16.429304107195286;12.029566653878634;16.943850425185154;-0.919921875;0.16943359375;0.11376953125;-0.875;-4.125;-1.9375;
1441975812811514;-0.43975830078125;0.4901123046875;0.6199951171875;0.42657470703125;16.446694248867505;12.013926696343582;16.927945209394185;-0.91259765625;0.1748046875;0.10693359375;0.375;-2.4375;-4.9375;
1441975812834515;-0.44140625;0.4888916015625;0.619140625;0.42742919921875;16.471550882654032;11.995159600558043;16.9124323712739;-0.9169921875;0.19287109375;0.111328125;-0.5625;-0.375;-7.875;
1441975812855516;-0.443603515625;0.48724365234375;0.6182861328125;0.42840576171875;16.502176523935884;11.969278759507983;16.892214737772616;-0.9365234375;0.18994140625;0.10546875;-3.75;1.0;-10.6875;
1441975812871517;-0.44598388671875;0.485595703125;0.6170654296875;0.429443359375;16.53694551695912;11.944584086819225;16.872501736928115;-0.935546875;0.16259765625;0.10986328125;-6.25;1.9375;-12.375;
1441975812893519;-0.44842529296875;0.484375;0.61541748046875;0.4306640625;16.57488842914905;11.926471109144222;16.8565023134235;-0.93701171875;0.14794921875;0.11083984375;-5.375;3.5625;-13.375;
1441975812915520;-0.45098876953125;0.483154296875;0.61370849609375;0.43182373046875;16.61404127942747;11.909156948843833;16.841651184360632;-0.955078125;0.1484375;0.1015625;-2.5;4.8125;-14.3125;
1441975812931521;-0.45361328125;0.4818115234375;0.61212158203125;0.43280029296875;16.65247603828937;11.890894896091554;16.82728128943479;-0.96728515625;0.14599609375;0.09765625;-3.0;5.25;-14.75;
1441975812954522;-0.45623779296875;0.48046875;0.61053466796875;0.43377685546875;16.69086597228525;11.8716812368483;16.81195674675708;-0.9765625;0.1484375;0.10400390625;-4.3125;5.75;-14.75;
1441975812983524;-0.45867919921875;0.47955322265625;0.608642578125;0.43487548828125;16.72943696514944;11.858920663007858;16.80008662216051;-0.97412109375;0.14306640625;0.10888671875;-3.5625;6.375;-14.9375;
1441975812991524;-0.4608154296875;0.47894287109375;0.606689453125;0.43603515625;16.765506844081273;11.849566176240103;16.78951764712714;-0.96923828125;0.1416015625;0.1103515625;-1.3125;7.375;-14.8125;
1441975813029526;-0.46270751953125;0.47857666015625;0.604736328125;0.43719482421875;16.799099344604066;11.8435387983282;16.780874206043997;-0.9638671875;0.14306640625;0.109375;1.1875;7.6875;-14.3125;
1441975813037527;-0.46435546875;0.4783935546875;0.6026611328125;0.4384765625;16.831535187237368;11.838541555324632;16.771348061278516;-0.95654296875;0.146484375;0.11083984375;2.6875;7.5625;-13.25;
1441975813051528;-0.46551513671875;0.47845458984375;0.6007080078125;0.43988037109375;16.858931145400504;11.833156113834999;16.75933341565494;-0.9619140625;0.13330078125;0.107421875;4.5;7.0;-12.3125;
1441975813082529;-0.46624755859375;0.4788818359375;0.59869384765625;0.44140625;16.882900019166527;11.831567217943912;16.748315181929215;-0.97021484375;0.13916015625;0.11572265625;6.5625;6.0625;-11.125;
1441975813097530;-0.4666748046875;0.47943115234375;0.59661865234375;0.44305419921875;16.904879254580642;11.829164840079486;16.734760334696244;-0.97607421875;0.1416015625;0.111328125;9.25;5.1875;-10.1875;
1441975813111531;-0.4666748046875;0.48016357421875;0.59478759765625;0.4447021484375;16.92122789504932;11.826902982835323;16.720297746801503;-0.98388671875;0.14306640625;0.11328125;11.0625;4.4375;-9.5;
1441975813134532;-0.46649169921875;0.48089599609375;0.59307861328125;0.4464111328125;16.935322142591968;11.821514350933413;16.702361098279354;-0.982421875;0.15673828125;0.11865234375;12.1875;3.1875;-8.375;
1441975813157534;-0.46612548828125;0.48162841796875;0.5916748046875;0.44793701171875;16.945193201794154;11.816481729847958;16.685671203155362;-0.97509765625;0.1474609375;0.125;12.3125;2.625;-7.4375;
1441975813171534;-0.4658203125;0.48223876953125;0.59051513671875;0.44903564453125;16.95289372893956;11.81550732530676;16.675539546757264;-0.97314453125;0.1572265625;0.130859375;11.6875;2.3125;-6.25;
1441975813193536;-0.465576171875;0.4825439453125;0.58978271484375;0.44989013671875;16.957862756071172;11.809552370206125;16.663417948796642;-0.9638671875;0.1611328125;0.12060546875;9.0625;2.0625;-5.25;
1441975813217537;-0.4654541015625;0.482666015625;0.58935546875;0.45050048828125;16.961295616233873;11.80257677700465;16.65272965135992;-0.95654296875;0.16259765625;0.12255859375;6.125;1.375;-4.375;
1441975813231538;-0.46539306640625;0.4825439453125;0.5892333984375;0.45086669921875;16.962773976665748;11.792947268279141;16.641862660961777;-0.96337890625;0.15966796875;0.1201171875;3.5625;0.6875;-3.625;
1441975813253539;-0.46539306640625;0.482421875;0.58917236328125;0.45111083984375;16.964005655568666;11.785594259536909;16.633973219536802;-0.96875;0.17041015625;0.123046875;1.1875;0.4375;-3.0625;
1441975813278541;-0.46533203125;0.48223876953125;0.5889892578125;0.4515380859375;16.966143339017314;11.773663891229255;16.620640829610597;-0.96337890625;0.17041015625;0.10791015625;0.3125;-0.25;-3.1875;
1441975813307542;-0.465087890625;0.48211669921875;0.58880615234375;0.4522705078125;16.967366362634998;11.75617034267557;16.600136243714452;-0.974609375;0.1533203125;0.10888671875;1.25;-1.0;-2.75;
1441975813313543;-0.46453857421875;0.482177734375;0.5887451171875;0.452880859375;16.96455413312306;11.743457556939326;16.58373263936009;-0.97021484375;0.13623046875;0.1064453125;2.8125;-2.1875;-2.0;
1441975813337544;-0.4637451171875;0.482421875;0.5887451171875;0.45330810546875;16.95854927433636;11.73750664833394;16.57359593243869;-0.96337890625;0.142578125;0.10986328125;3.4375;-2.625;-0.5;
1441975813351545;-0.4630126953125;0.48260498046875;0.5889892578125;0.45355224609375;16.950923830037613;11.732590267869938;16.566060430725386;-0.95947265625;0.15283203125;0.10498046875;3.8125;-3.0;0.75;
1441975813373546;-0.46246337890625;0.4825439453125;0.58941650390625;0.45367431640625;16.943535019746292;11.724093241074923;16.557047702441384;-0.95166015625;0.16015625;0.0986328125;2.5;-3.5;0.9375;
1441975813397547;-0.46185302734375;0.4825439453125;0.58990478515625;0.45367431640625;16.93482144846961;11.71894164676788;16.55156587179695;-0.96044921875;0.15380859375;0.1083984375;0.1875;-3.4375;1.6875;
1441975813411548;-0.4613037109375;0.482666015625;0.5902099609375;0.45367431640625;16.92780325378797;11.717964644476137;16.54955726480402;-0.958984375;0.15185546875;0.11083984375;0.3125;-2.9375;2.1875;
1441975813433549;-0.46087646484375;0.48284912109375;0.59051513671875;0.45355224609375;16.921459337591408;11.72117615857349;16.55225292096127;-0.96533203125;0.146484375;0.10107421875;0.875;-2.5625;2.75;
1441975813457551;-0.46063232421875;0.48272705078125;0.5911865234375;0.4530029296875;16.913397102417257;11.72417620406784;16.558449945340172;-0.97216796875;0.15283203125;0.09326171875;0.4375;-2.5625;3.0;
1441975813471552;-0.46063232421875;0.4822998046875;0.5921630859375;0.4521484375;16.904856401539803;11.7251478904983;16.565961357009314;-0.9638671875;0.1513671875;0.09619140625;-3.3125;-2.3125;3.5625;
1441975813494553;-0.4608154296875;0.48193359375;0.5931396484375;0.451171875;16.89749530938822;11.730344220482078;16.578378621901592;-0.9560546875;0.1591796875;0.10400390625;-6.5;-1.5625;3.75;
1441975813518554;-0.46099853515625;0.4815673828125;0.593994140625;0.45013427734375;16.890868209328715;11.737326802490557;16.59243967298102;-0.94775390625;0.16064453125;0.1044921875;-7.1875;-0.625;3.5625;
1441975813538555;-0.46142578125;0.48126220703125;0.5946044921875;0.44927978515625;16.888413430922625;11.744460335383085;16.605907470862626;-0.9501953125;0.16455078125;0.1015625;-6.875;0.0;3.375;
1441975813554556;-0.46185302734375;0.4808349609375;0.59521484375;0.44842529296875;16.8861154350542;11.748885868278558;16.617040364869965;-0.95751953125;0.1494140625;0.09033203125;-6.5625;0.0;2.75;
1441975813577558;-0.46221923828125;0.4805908203125;0.59576416015625;0.4476318359375;16.883629775465977;11.756285791359353;16.630073413691644;-0.95849609375;0.13330078125;0.09130859375;-6.4375;0.125;3.5;
1441975813599559;-0.46240234375;0.4805908203125;0.5963134765625;0.44677734375;16.879085388110973;11.769382859186813;16.647751721401296;-0.95703125;0.130859375;0.09228515625;-5.3125;0.1875;4.25;
1441975813614560;-0.4625244140625;0.48065185546875;0.5968017578125;0.44586181640625;16.874190617396426;11.784959312653676;16.667582333923168;-0.96337890625;0.1376953125;0.09228515625;-4.25;0.1875;4.875;
1441975813637561;-0.46270751953125;0.48065185546875;0.597412109375;0.44488525390625;16.868824142320985;11.799628658664517;16.68737116858098;-0.97412109375;0.14990234375;0.0888671875;-4.125;0.5;4.8125;
1441975813660562;-0.4630126953125;0.4805908203125;0.59796142578125;0.44384765625;16.86481569280258;11.81484965520403;16.70824994604137;-0.96826171875;0.15771484375;0.09912109375;-4.875;0.9375;4.5625;
1441975813674563;-0.46368408203125;0.4803466796875;0.5985107421875;0.44268798828125;16.863801382477476;11.829796698043188;16.73077142590233;-0.9619140625;0.1650390625;0.09716796875;-5.4375;1.5625;3.75;
1441975813697565;-0.4644775390625;0.47998046875;0.59912109375;0.44146728515625;16.8633642624188;11.843326911160485;16.752927710594932;-0.96142578125;0.16162109375;0.1005859375;-7.125;3.0;2.9375;
1441975813718566;-0.46551513671875;0.4794921875;0.599609375;0.440185546875;16.86583619010342;11.857306413866558;16.77642209449514;-0.94677734375;0.15234375;0.10302734375;-8.5;3.4375;2.8125;
1441975813734567;-0.46661376953125;0.47900390625;0.60015869140625;0.4388427734375;16.868163408040534;11.872312199532992;16.801455320767225;-0.96484375;0.14501953125;0.09765625;-8.75;4.125;2.6875;
1441975813757568;-0.4678955078125;0.478271484375;0.60089111328125;0.43731689453125;16.870583823789673;11.8850527494055;16.82651346422535;-0.98193359375;0.1533203125;0.0966796875;-9.6875;4.0;2.6875;
1441975813778569;-0.46923828125;0.4771728515625;0.60174560546875;0.435791015625;16.873296522349545;11.889477552273883;16.84487295087361;-0.97265625;0.15869140625;0.0947265625;-12.0;4.0625;1.9375;
1441975813793570;-0.4705810546875;0.47625732421875;0.60247802734375;0.4344482421875;16.877050836440564;11.895450021265546;16.863322344665786;-0.9677734375;0.15185546875;0.10546875;-13.5;4.0625;1.5;
1441975813816571;-0.47186279296875;0.475341796875;0.60302734375;0.43316650390625;16.881761308984643;11.901488581529279;16.88100441357426;-0.96044921875;0.14599609375;0.10693359375;-11.9375;4.3125;1.125;
1441975813838573;-0.47314453125;0.474365234375;0.60382080078125;0.43182373046875;16.88467067224153;11.905539950305869;16.897719793157897;-0.96240234375;0.14306640625;0.10400390625;-11.25;4.4375;1.0;
1441975813862574;-0.47467041015625;0.47314453125;0.604736328125;0.43017578125;16.8882947983497;11.910321093394689;16.917834670820493;-0.95263671875;0.1494140625;0.10693359375;-12.125;4.1875;1.125;
1441975813876575;-0.4761962890625;0.47174072265625;0.60577392578125;0.4285888671875;16.89160842764633;11.909164511121814;16.93271093143078;-0.95849609375;0.15380859375;0.09814453125;-14.9375;4.0625;1.1875;
1441975813898576;-0.47760009765625;0.470458984375;0.6065673828125;0.42730712890625;16.896319500310454;11.906356197798896;16.943644021409874;-0.96044921875;0.1416015625;0.10400390625;-15.625;3.75;1.125;
1441975813914577;-0.47869873046875;0.469482421875;0.6070556640625;0.4263916015625;16.90115745868974;11.904203523950518;16.951542753678183;-0.970703125;0.1357421875;0.10205078125;-13.375;3.0625;0.75;
1441975813936578;-0.4796142578125;0.4688720703125;0.60736083984375;0.42559814453125;16.90538881521902;11.908231628823993;16.96314020154482;-0.9736328125;0.134765625;0.09814453125;-9.8125;2.3125;0.5;
1441975813965580;-0.48040771484375;0.46832275390625;0.60760498046875;0.425048828125;16.909664760131676;11.908921548593131;16.96996605288227;-0.9755859375;0.140625;0.0830078125;-7.25;1.9375;0.5;
1441975813974580;-0.48095703125;0.4677734375;0.60791015625;0.42449951171875;16.911501234540612;11.907769717364886;16.974476936049413;-0.97119140625;0.140625;0.08984375;-6.0;1.5;0.3125;
1441975813996582;-0.48138427734375;0.46734619140625;0.60821533203125;0.424072265625;16.912452724654973;11.906321998145822;16.97760852559528;-0.96533203125;0.13916015625;0.0966796875;-5.625;1.0625;0.5625;
1441975814019583;-0.48175048828125;0.4669189453125;0.60858154296875;0.42364501953125;16.91247288974887;11.90403242772152;16.97989809601958;-0.95654296875;0.14013671875;0.09375;-4.5;0.5;1.0;
1441975814033584;-0.4820556640625;0.46661376953125;0.6090087890625;0.42303466796875;16.910735396169265;11.90696988075721;16.98760702927224;-0.95166015625;0.14013671875;0.0947265625;-4.375;0.4375;1.375;
1441975814056585;-0.4822998046875;0.46630859375;0.60943603515625;0.42242431640625;16.908493103612088;11.909544351486172;16.99479622968251;-0.9541015625;0.14306640625;0.0947265625;-4.625;0.375;2.0625;
1441975814079586;-0.482666015625;0.46612548828125;0.6097412109375;0.421875;16.908035834926295;11.915319942599178;17.00460861352155;-0.9541015625;0.15087890625;0.0947265625;-4.4375;0.375;2.0;
1441975814093587;-0.48297119140625;0.4659423828125;0.60992431640625;0.42144775390625;16.908311366670656;11.91949425453454;17.011963990321217;-0.966796875;0.154296875;0.091796875;-4.125;0.8125;1.75;
1441975814116589;-0.4832763671875;0.46575927734375;0.60992431640625;0.4212646484375;16.91063888711178;11.920678435249133;17.015088125622515;-0.9716796875;0.1494140625;0.08740234375;-3.0625;0.5;1.25;
1441975814139590;-0.4832763671875;0.4656982421875;0.60992431640625;0.4212646484375;16.91077240425174;11.919352865468012;17.013955456137133;-0.97607421875;0.13525390625;0.08935546875;-1.75;0.4375;0.8125;
1441975814153591;-0.48345947265625;0.4658203125;0.60986328125;0.42108154296875;16.911854972950763;11.926979180594271;17.02208768250593;-0.97119140625;0.1455078125;0.09521484375;-0.75;0.75;0.875;
1441975814176592;-0.48388671875;0.4656982421875;0.60980224609375;0.42071533203125;16.914888637009735;11.934159713938918;17.031750487911655;-0.9755859375;0.1611328125;0.08984375;-0.5625;1.0;0.3125;
1441975814199593;-0.48443603515625;0.4652099609375;0.6099853515625;0.42041015625;16.918220954017272;11.930908977640474;17.032885212067743;-0.9765625;0.15771484375;0.0830078125;-2.625;1.25;-0.1875;
1441975814213594;-0.48492431640625;0.46490478515625;0.6099853515625;0.42010498046875;16.92192697437432;11.932857333309185;17.038014529231944;-0.958984375;0.14404296875;0.0986328125;-4.3125;1.3125;-0.375;
1441975814236595;-0.48553466796875;0.4647216796875;0.60992431640625;0.4197998046875;16.926781945215332;11.938775952423134;17.046883653167946;-0.97021484375;0.14306640625;0.1005859375;-3.0;1.9375;-0.375;
1441975814259597;-0.486328125;0.46417236328125;0.61004638671875;0.4193115234375;16.932089054274716;11.939677919288922;17.05341102444145;-0.9765625;0.15087890625;0.08251953125;-3.0625;1.6875;-0.5;
1441975814273598;-0.4869384765625;0.4635009765625;0.61029052734375;0.4189453125;16.93571647553648;11.933403357065078;17.052605727236656;-0.970703125;0.142578125;0.08447265625;-5.3125;1.75;-0.625;
1441975814303599;-0.48748779296875;0.46319580078125;0.61029052734375;0.418701171875;16.94011472416121;11.934666113234366;17.057010967958107;-0.962890625;0.1298828125;0.1044921875;-5.375;1.5625;-0.1875;
1441975814320600;-0.48797607421875;0.4630126953125;0.6102294921875;0.41845703125;16.944161174119394;11.93882748407289;17.063616233689785;-0.95458984375;0.1328125;0.09765625;-3.0;2.3125;-0.125;
1441975814340601;-0.4884033203125;0.46270751953125;0.6103515625;0.4180908203125;16.946311481987973;11.94063336993322;17.068951435227255;-0.966796875;0.13623046875;0.09521484375;-1.875;1.9375;0.0625;
1441975814356602;-0.4888916015625;0.4622802734375;0.61053466796875;0.41766357421875;16.948616091134404;11.940741148577906;17.073480473242014;-0.95654296875;0.146484375;0.09716796875;-3.375;1.875;0.0;
1441975814379604;-0.48956298828125;0.4617919921875;0.61065673828125;0.417236328125;16.95298212373551;11.9412059807604;17.078870664663448;-0.951171875;0.15087890625;0.09765625;-4.5625;1.75;-0.4375;
1441975814393604;-0.490234375;0.46136474609375;0.61065673828125;0.41693115234375;16.95845630812824;11.941806932158945;17.083504578137806;-0.96630859375;0.15087890625;0.09423828125;-4.5;2.0;-1.4375;
1441975814416606;-0.490966796875;0.46087646484375;0.61053466796875;0.416748046875;16.96582128391699;11.94017842976521;17.08555972129028;-0.962890625;0.15869140625;0.0927734375;-4.125;2.1875;-2.4375;
1441975814439607;-0.49169921875;0.46044921875;0.6104736328125;0.41650390625;16.972417987509257;11.940588177327205;17.089807398532777;-0.9599609375;0.15283203125;0.09521484375;-3.9375;2.625;-3.0625;
1441975814462608;-0.4925537109375;0.45989990234375;0.61041259765625;0.416259765625;16.980294464662116;11.93903813712059;17.09279233890846;-0.95654296875;0.15625;0.1005859375;-3.625;3.0;-3.3125;
1441975814476609;-0.49365234375;0.45904541015625;0.6104736328125;0.415771484375;16.98922734682457;11.93582085664542;17.09678531090158;-0.95703125;0.1552734375;0.09765625;-4.625;3.125;-3.625;
1441975814499610;-0.494873046875;0.45819091796875;0.610595703125;0.41510009765625;16.998130571910387;11.93656314930605;17.10578308797171;-0.96044921875;0.14404296875;0.09375;-7.0;3.1875;-3.25;
1441975814520612;-0.495849609375;0.45758056640625;0.6107177734375;0.41436767578125;17.004266952823187;11.942666388933992;17.118941181067783;-0.97119140625;0.13623046875;0.083984375;-8.0625;3.0625;-2.4375;
1441975814536613;-0.49664306640625;0.45733642578125;0.61077880859375;0.41351318359375;17.00803772500545;11.959265102230736;17.141200221201366;-0.9677734375;0.1484375;0.09130859375;-6.9375;3.625;-1.625;
1441975814559614;-0.49725341796875;0.4573974609375;0.61090087890625;0.41265869140625;17.00909334438321;11.98122917912533;17.167541899305387;-0.96142578125;0.14599609375;0.10400390625;-5.0625;5.6875;0.1875;
1441975814580615;-0.49761962890625;0.457763671875;0.6109619140625;0.41168212890625;17.007325438352797;12.011589522468686;17.200927575780053;-0.95703125;0.13818359375;0.10205078125;-3.75;5.5;2.25;
1441975814596616;-0.497802734375;0.45819091796875;0.6114501953125;0.4102783203125;16.99934245156044;12.045915153271112;17.2400634954373;-0.9609375;0.14892578125;0.09619140625;-2.5625;5.1875;3.3125;
1441975814620617;-0.49810791015625;0.458251953125;0.61236572265625;0.40838623046875;16.988481129447212;12.077362162051935;17.280435680951285;-0.970703125;0.16796875;0.083984375;-4.25;4.125;5.5625;
1441975814640619;-0.49853515625;0.4580078125;0.6136474609375;0.40625;16.975907319513013;12.103010883707642;17.31799494794731;-0.9609375;0.1748046875;0.080078125;-8.5625;3.1875;6.4375;
1441975814656619;-0.49884033203125;0.45758056640625;0.61492919921875;0.4044189453125;16.963954175993504;12.117144647548146;17.34334447153841;-0.94873046875;0.17041015625;0.08349609375;-11.6875;3.0625;7.125;
1441975814679621;-0.49884033203125;0.45751953125;0.615966796875;0.40289306640625;16.951284324715424;12.133245969159187;17.3671356290698;-0.9501953125;0.15673828125;0.0986328125;-10.5;2.375;7.125;
1441975814700622;-0.49853515625;0.4580078125;0.61676025390625;0.401611328125;16.937100970872113;12.156288856654268;17.393948240237833;-0.9375;0.14794921875;0.09521484375;-6.9375;2.0625;7.9375;
1441975814716623;-0.49822998046875;0.4586181640625;0.617431640625;0.40020751953125;16.922787833713322;12.184714870923976;17.425841501210776;-0.94482421875;0.15576171875;0.09619140625;-3.1875;2.125;8.625;
1441975814739624;-0.4981689453125;0.45880126953125;0.6185302734375;0.3984375;16.90729778322444;12.207326783990183;17.456147206767568;-0.94873046875;0.185546875;0.08447265625;-3.1875;2.375;7.75;
1441975814760625;-0.49853515625;0.4583740234375;0.61968994140625;0.3966064453125;16.896351394619447;12.220731260210506;17.48062511719746;-0.9404296875;0.2001953125;0.0908203125;-7.25;2.4375;6.75;
1441975814783627;-0.49908447265625;0.45770263671875;0.62078857421875;0.39495849609375;16.888740031546543;12.227926568341424;17.49939508518946;-0.92822265625;0.1923828125;0.087890625;-10.5625;2.375;4.8125;
1441975814798628;-0.499755859375;0.45709228515625;0.6217041015625;0.3934326171875;16.88356939869806;12.237127197455566;17.519427853018332;-0.9091796875;0.17919921875;0.0966796875;-11.0625;3.1875;3.625;
1441975814820629;-0.5006103515625;0.4564208984375;0.62249755859375;0.391845703125;16.880529925797045;12.248880526186456;17.542560006807477;-0.8876953125;0.1826171875;0.09912109375;-10.5;3.875;2.3125;
1441975814844630;-0.50177001953125;0.45550537109375;0.62322998046875;0.3902587890625;16.881025426188927;12.258977953499466;17.565428687452357;-0.87744140625;0.20068359375;0.08984375;-11.0;4.5;0.4375;
1441975814858631;-0.50323486328125;0.45428466796875;0.62384033203125;0.3887939453125;16.886191712487285;12.265001248486858;17.585266437666174;-0.89794921875;0.19921875;0.080078125;-12.5625;4.5;-1.3125;
1441975814880632;-0.50469970703125;0.453369140625;0.62408447265625;0.38751220703125;16.89345311948469;12.278338418596672;17.609932561661022;-0.89013671875;0.18505859375;0.0771484375;-13.5625;4.875;-2.5;
1441975814904634;-0.50616455078125;0.452880859375;0.6239013671875;0.38653564453125;16.90326449684842;12.30032657956647;17.6398185161955;-0.88720703125;0.19091796875;0.076171875;-10.9375;6.0625;-3.4375;
1441975814918634;-0.50762939453125;0.452392578125;0.62359619140625;0.38568115234375;16.914311519502;12.3221650558499;17.668858138596317;-0.88818359375;0.1943359375;0.06884765625;-7.4375;7.0625;-4.9375;
1441975814941636;-0.50933837890625;0.45159912109375;0.62353515625;0.3843994140625;16.924742142620318;12.345010156311082;17.702481044075522;-0.9111328125;0.201171875;0.0654296875;-7.0;7.1875;-5.625;
1441975814956637;-0.511474609375;0.4500732421875;0.6240234375;0.38262939453125;16.93528972379157;12.35928658702265;17.733889461757897;-0.92578125;0.20849609375;0.052734375;-11.0625;6.5625;-5.5625;
1441975814978638;-0.51373291015625;0.4482421875;0.6246337890625;0.38067626953125;16.94622311573589;12.3706240710044;17.764545487831732;-0.91162109375;0.1923828125;0.06005859375;-16.6875;6.9375;-4.9375;
1441975815002639;-0.515869140625;0.44683837890625;0.625;0.37884521484375;16.956667132838252;12.390956310075346;17.801509751676424;-0.89404296875;0.169921875;0.06689453125;-19.0;7.5625;-4.3125;
1441975815016640;-0.5181884765625;0.44561767578125;0.62518310546875;0.3768310546875;16.967909696944368;12.423252717603841;17.8504350985344;-0.90283203125;0.1796875;0.05810546875;-16.0;8.0;-4.125;
1441975815038641;-0.5206298828125;0.44390869140625;0.625732421875;0.37451171875;16.978076301761917;12.448002376108327;17.89559109255453;-0.919921875;0.17919921875;0.0419921875;-16.0625;8.75;-3.5625;
1441975815061643;-0.5230712890625;0.44207763671875;0.62652587890625;0.3719482421875;16.9859088329072;12.4717294364547;17.941511293485696;-0.91162109375;0.158203125;0.0517578125;-20.1875;8.875;-2.0625;
1441975815083644;-0.52532958984375;0.4407958984375;0.6270751953125;0.369384765625;16.99144460556204;12.508600980819272;17.99774572223965;-0.88232421875;0.13916015625;0.0625;-21.125;9.3125;-0.3125;
1441975815098645;-0.52734375;0.44000244140625;0.62750244140625;0.36676025390625;16.993276203614325;12.555714293441156;0.06194216843370892;-0.86328125;0.13818359375;0.052734375;-18.375;10.1875;1.1875;
1441975815122646;-0.529296875;0.43927001953125;0.62799072265625;0.36395263671875;16.992709570901997;12.6055790904626;0.12929688712603504;-0.8525390625;0.14306640625;0.03857421875;-16.5;10.25;2.625;
1441975815143647;-0.53106689453125;0.4385986328125;0.628662109375;0.3609619140625;16.98814394945923;12.654299102691896;0.1959158979321726;-0.8359375;0.14111328125;0.033203125;-16.8125;10.0625;4.1875;
1441975815158648;-0.53277587890625;0.43792724609375;0.6295166015625;0.35784912109375;16.981060641720205;12.700726431514061;0.26093419168872556;-0.81298828125;0.1416015625;0.0322265625;-17.0625;9.9375;5.4375;
1441975815182650;-0.53436279296875;0.437255859375;0.63031005859375;0.35479736328125;16.973473350224435;12.744724893281974;0.3229000901649956;-0.79150390625;0.13427734375;0.03271484375;-17.4375;9.375;6.5625;
1441975815203651;-0.5357666015625;0.43658447265625;0.63134765625;0.35162353515625;16.962308234243874;12.783328789770456;0.38002514388656244;-0.77783203125;0.12548828125;0.01953125;-17.125;8.5;7.5625;
1441975815218652;-0.5369873046875;0.43634033203125;0.63232421875;0.348388671875;16.94747971563461;12.827916268268545;0.4413464320352338;-0.76318359375;0.11572265625;0.021484375;-17.75;7.5625;9.1875;
1441975815241653;-0.5382080078125;0.43603515625;0.6331787109375;0.3453369140625;16.934361062965642;12.869350540838637;0.4988283913665335;-0.75732421875;0.1259765625;0.015625;-16.0;7.6875;10.5625;
1441975815270655;-0.5391845703125;0.4359130859375;0.63385009765625;0.3426513671875;16.92158987304466;12.907248212803331;0.5499528778634829;-0.748046875;0.10302734375;0.009765625;-15.3125;7.4375;11.0;
1441975815278655;-0.53948974609375;0.43646240234375;0.63433837890625;0.340576171875;16.905449467679805;12.940751771086044;0.5904168255078406;-0.7255859375;0.07666015625;0.013671875;-12.125;6.75;12.3125;
1441975815301656;-0.5389404296875;0.43841552734375;0.6343994140625;0.3387451171875;16.8798782089308;12.987743680880076;0.6358970794055396;-0.7109375;0.07177734375;0.03271484375;-6.0;6.375;13.6875;
1441975815322658;-0.53851318359375;0.44085693359375;0.63409423828125;0.3369140625;16.853863080351417;13.04777250828304;0.6922070305688791;-0.71533203125;0.12841796875;0.02734375;2.1875;6.25;14.75;
1441975815338658;-0.53851318359375;0.44219970703125;0.63433837890625;0.334716796875;16.8311664787414;13.090145600483785;0.7380298368813056;-0.7451171875;0.15185546875;-0.00537109375;4.4375;6.625;14.4375;
1441975815361660;-0.53857421875;0.44244384765625;0.63482666015625;0.33331298828125;16.818792060065654;13.102870824909928;0.7559286475677742;-0.7763671875;0.146484375;-0.009765625;-3.0;5.3125;13.25;
1441975815384661;-0.5374755859375;0.44366455078125;0.63507080078125;0.33294677734375;16.801838939403037;13.106110542701064;0.7543446774843693;-0.8125;0.0751953125;0.0029296875;-5.0;1.25;13.125;
1441975815398662;-0.535888671875;0.4461669921875;0.6346435546875;0.3330078125;16.78066471330462;13.12693044038729;0.761924307383012;-0.7998046875;0.0732421875;0.02197265625;5.0;-1.8125;14.875;
1441975815421663;-0.53533935546875;0.4488525390625;0.6334228515625;0.3326416015625;16.765368917787036;13.180196159887783;0.8033250827306517;-0.7978515625;0.1025390625;0.01025390625;13.4375;-0.4375;15.4375;
1441975815442664;-0.53509521484375;0.44989013671875;0.6337890625;0.3310546875;16.7458238407712;13.201870741190488;0.8271373793466401;-0.8076171875;0.06640625;-0.01904296875;12.1875;4.9375;16.125;
1441975815458665;-0.53369140625;0.45098876953125;0.63507080078125;0.329345703125;16.71421601970314;13.196050423403136;0.8231097067748457;-0.85009765625;0.0673828125;-0.01904296875;-1.875;1.375;18.3125;
1441975815482667;-0.5316162109375;0.45416259765625;0.6357421875;0.3270263671875;16.6654032272032;13.223616827341207;0.8445976861336052;-0.87744140625;0.04931640625;-0.00341796875;-1.9375;-4.125;26.125;
1441975815502668;-0.530517578125;0.456298828125;0.63726806640625;0.32275390625;16.611235970328956;13.253529217187255;0.8827260771418504;-0.83935546875;0.0322265625;-0.02783203125;6.0625;-0.9375;35.75;
1441975815518669;-0.52899169921875;0.45770263671875;0.6407470703125;0.3162841796875;16.535453406710673;13.258709697121684;0.9095489719645514;-0.88623046875;0.15283203125;-0.01953125;-7.9375;3.8125;32.375;
1441975815541670;-0.5274658203125;0.4580078125;0.64508056640625;0.3094482421875;16.459936537390128;13.241844602186177;0.9212862734444036;-0.93701171875;0.2529296875;-4.8828125E-4;-21.0;2.0;37.5625;
1441975815563671;-0.52655029296875;0.4576416015625;0.64947509765625;0.3023681640625;16.389957980865134;13.225259763621116;0.9379916978927278;-0.9482421875;0.275390625;-9.765625E-4;-28.625;-2.0;36.875;
1441975815578672;-0.525634765625;0.4581298828125;0.653076171875;0.29534912109375;16.318770575884532;13.226543345295784;0.9677098702910278;-0.94580078125;0.24072265625;-0.005859375;-33.3125;-0.9375;37.375;
1441975815607674;-0.524658203125;0.45947265625;0.65570068359375;0.2891845703125;16.25211029486928;13.240295569650414;1.0017536902880702;-0.93896484375;0.25048828125;-0.01318359375;-27.875;2.1875;38.125;
1441975815623675;-0.52410888671875;0.45989990234375;0.65869140625;0.2825927734375;16.188720195019958;13.245919019093805;1.034099769324365;-0.9248046875;0.283203125;-0.001953125;-19.625;5.0;34.75;
1441975815646676;-0.52362060546875;0.4591064453125;0.6622314453125;0.27642822265625;16.133599529875703;13.230972604502789;1.0500121095056936;-0.90576171875;0.30859375;0.00634765625;-25.4375;5.625;31.375;
1441975815662677;-0.5224609375;0.45880126953125;0.66595458984375;0.270263671875;16.071080402490384;13.21269088205962;1.0598773345324155;-0.9052734375;0.2744140625;0.0419921875;-29.6875;3.5;29.6875;
1441975815683678;-0.5205078125;0.45928955078125;0.66937255859375;0.2646484375;16.00435884352307;13.195374626024774;1.063689600642891;-0.88427734375;0.28759765625;0.060546875;-26.9375;2.0;32.8125;
1441975815705679;-0.5186767578125;0.45941162109375;0.6729736328125;0.2587890625;15.938051924694864;13.175679277930184;1.0679669884143794;-0.8974609375;0.33251953125;0.06103515625;-20.3125;-0.4375;32.8125;
1441975815721680;-0.51690673828125;0.458984375;0.6771240234375;0.25213623046875;15.867606435398873;13.150818189788232;1.0731716578599801;-0.89794921875;0.34130859375;0.06689453125;-23.1875;-0.375;32.5;
1441975815742682;-0.5159912109375;0.4583740234375;0.6807861328125;0.24530029296875;15.803950227668569;13.136772247983371;1.091328867019616;-0.8857421875;0.37939453125;0.08154296875;-28.9375;0.25;32.875;
1441975815758682;-0.5164794921875;0.4559326171875;0.684326171875;0.2388916015625;15.762624241316892;13.116939476061827;1.1114360025757692;-0.89013671875;0.41650390625;0.06005859375;-30.625;3.6875;28.5625;
1441975815781684;-0.51593017578125;0.45172119140625;0.68994140625;0.2318115234375;15.712560023823757;13.059606526000461;1.1049893234864736;-0.9248046875;0.3642578125;0.017578125;-39.3125;2.625;22.1875;
1441975815803685;-0.51324462890625;0.44818115234375;0.6964111328125;0.22515869140625;15.644955144407632;12.985298840834883;1.0751032638921976;-0.94970703125;0.37744140625;0.10107421875;-50.1875;-3.4375;25.5;
1441975815818686;-0.509521484375;0.4464111328125;0.702880859375;0.2166748046875;15.548089704250362;12.929459251601967;1.061950325110082;-0.88720703125;0.37744140625;0.14599609375;-44.6875;-12.25;31.5625;
1441975815832687;-0.50592041015625;0.44573974609375;0.708740234375;0.20733642578125;15.442515557413925;12.893799062356665;1.067278570491083;-0.7763671875;0.4404296875;0.158203125;-42.0625;-8.75;40.5625;
1441975815857688;-0.502685546875;0.4432373046875;0.71539306640625;0.19757080078125;15.34315530940149;12.843036674825925;1.068235817669949;-0.7880859375;0.49267578125;0.11376953125;-40.3125;-6.625;44.0625;
1441975815886690;-0.49896240234375;0.44097900390625;0.7216796875;0.18902587890625;15.248800944123463;12.791196417859446;1.0612537921272607;-0.84814453125;0.4853515625;0.09912109375;-52.125;-10.25;44.1875;
1441975815892690;-0.49462890625;0.43914794921875;0.72760009765625;0.1817626953125;15.1578618383117;12.739078166184438;1.045952984391406;-0.84423828125;0.4814453125;0.07470703125;-47.0625;-16.375;41.375;
1441975815916692;-0.490234375;0.439208984375;0.732177734375;0.17510986328125;15.065828651538945;12.709429938576312;1.0412647154388153;-0.85791015625;0.51513671875;0.109375;-39.5625;-19.125;37.9375;
1441975815946693;-0.48736572265625;0.44049072265625;0.73431396484375;0.17083740234375;15.003128447795007;12.704997345917043;1.046660521765469;-0.84521484375;0.57275390625;0.12939453125;-26.75;-14.8125;36.5625;
1441975815952694;-0.4884033203125;0.4404296875;0.73321533203125;0.17266845703125;15.02689027354334;12.710721651023189;1.0456350450473033;-0.83935546875;0.60791015625;0.11376953125;-11.25;-7.3125;22.1875;
1441975815974695;-0.49261474609375;0.4378662109375;0.7298583984375;0.18133544921875;15.139054758518316;12.704989583137722;1.0186972739765583;-0.98486328125;0.5556640625;0.0732421875;3.8125;-2.0625;-12.25;
1441975815997696;-0.49517822265625;0.43621826171875;0.72552490234375;0.1951904296875;15.272822310290481;12.682417104395704;0.9473905589459201;-1.19287109375;0.47119140625;0.08154296875;15.9375;-3.1875;-48.125;
1441975816012697;-0.4949951171875;0.4390869140625;0.7193603515625;0.21136474609375;15.38703744705286;12.68002552574104;0.8625181485982204;-1.2587890625;0.34228515625;0.1337890625;41.5;-16.6875;-55.8125;
1441975816034698;-0.50213623046875;0.4385986328125;0.71051025390625;0.22491455078125;15.563173553625285;12.720329531623328;0.8517524615957209;-1.146484375;0.38330078125;0.17578125;75.25;-19.625;-55.6875;
1441975816057700;-0.51068115234375;0.42938232421875;0.7059326171875;0.23760986328125;15.768305748711304;12.660907031828742;0.7875905005572762;-1.0087890625;0.1455078125;0.08154296875;51.0;16.875;-67.25;
1441975816080701;-0.52056884765625;0.4189453125;0.70501708984375;0.237548828125;15.891905376721256;12.634906227151296;0.8173006041626798;-1.693359375;0.77734375;0.74609375;2.9375;12.8125;-107.5;
1441975816094702;-0.52996826171875;0.4117431640625;0.69952392578125;0.245361328125;16.065901334436226;12.629053321975407;0.81681710145549;-1.380859375;0.14111328125;0.06591796875;-53.1875;22.625;-31.5;
1441975816117703;-0.5421142578125;0.40472412109375;0.69293212890625;0.2491455078125;16.23724960447604;12.68941165606369;0.8996064954507267;-0.85888671875;-0.208984375;0.306640625;3.25;40.25;-50.25;
1441975816140704;-0.5399169921875;0.39996337890625;0.70404052734375;0.22979736328125;16.07527441945736;12.644331060281509;0.9592231579120122;-2.2333984375;0.5361328125;0.12060546875;-19.0625;44.375;-64.375;
1441975816154705;-0.5296630859375;0.4073486328125;0.7113037109375;0.21795654296875;15.861208698499649;12.64698492653502;0.9726976797393335;-1.38330078125;0.87939453125;0.4736328125;-100.4375;0.1875;76.0;
1441975816186707;-0.5205078125;0.41571044921875;0.71661376953125;0.20660400390625;15.66085666037301;12.677077891362224;1.0066819567021872;-0.86376953125;0.73876953125;0.49609375;-3.6875;-0.8125;76.25;
1441975816192707;-0.51251220703125;0.422607421875;0.7213134765625;0.19580078125;15.481668108923316;12.699374362236547;1.0373166708227268;-1.005859375;0.80029296875;0.23974609375;-1.375;-8.9375;74.8125;
1441975816214709;-0.5010986328125;0.43280029296875;0.726806640625;0.182373046875;15.241606208104537;12.729126223193411;1.0680661403704335;-1.24658203125;0.7509765625;0.181640625;-6.6875;-11.6875;77.3125;
1441975816237710;-0.49163818359375;0.4410400390625;0.73260498046875;0.164306640625;14.992204970213004;12.763148673058197;1.1320654276432336;-1.27783203125;0.88427734375;0.20458984375;1.875;-19.0;115.375;
1441975816260711;-0.48681640625;0.44329833984375;0.73834228515625;0.14599609375;14.803170779468342;12.77275763903346;1.2040283886318228;-1.03466796875;0.77685546875;0.0458984375;-23.5;-4.5625;125.625;
1441975816274712;-0.48663330078125;0.44183349609375;0.74383544921875;0.12091064453125;14.618567115999257;12.793315168795973;1.3356577928006594;-0.9462890625;0.5771484375;-0.06591796875;-54.0;8.9375;100.6875;
1441975816297713;-0.4918212890625;0.437255859375;0.7476806640625;0.08868408203125;14.43928864515334;12.83563882180865;1.5364121231266141;-0.52197265625;0.42041015625;0.0966796875;-90.1875;46.625;105.9375;
1441975816320715;-0.5048828125;0.4276123046875;0.747802734375;0.05517578125;14.334870433871535;12.898128955003655;1.7904504359368116;-0.39404296875;0.49169921875;-0.0537109375;-124.3125;88.125;111.125;
1441975816334715;-0.5233154296875;0.41192626953125;0.74578857421875;0.01690673828125;14.260533518735183;12.964110791612047;2.0970884899973052;-0.3046875;0.673828125;-0.1796875;-146.0625;131.3125;77.8125;
1441975816357717;-0.54473876953125;0.3946533203125;0.73956298828125;-0.02386474609375;14.189574943170271;13.057071653449725;2.4466848854556735;-0.2080078125;0.73388671875;0.0205078125;-180.4375;173.3125;65.0;
1441975816380718;-0.568115234375;0.37249755859375;0.73138427734375;-0.05914306640625;14.190740174807033;13.141897763415972;2.786178470462408;0.08251953125;0.98095703125;0.11328125;-184.8125;206.3125;57.0;
1441975816394719;-0.59100341796875;0.348876953125;0.72174072265625;-0.0894775390625;14.225430137601519;13.228535963645294;3.1107659784930037;-0.1923828125;0.7412109375;0.03759765625;-183.375;207.5;20.5625;
1441975816417720;-0.61285400390625;0.3236083984375;0.7113037109375;-0.1168212890625;14.277931045041134;13.313782852904255;3.426192267724207;-0.4931640625;0.4853515625;0.12060546875;-168.75;201.3125;3.0625;
1441975816440721;-0.6319580078125;0.29449462890625;0.7027587890625;-0.14141845703125;14.360645188875367;13.3658584053108;3.7116023949552983;-0.62939453125;0.66015625;-0.0703125;-166.5;192.0625;-13.25;
1441975816454722;-0.6480712890625;0.27197265625;0.69305419921875;-0.16033935546875;14.420183483927604;13.440894282712645;3.9650696117600592;-1.0068359375;0.44677734375;-0.1123046875;-177.875;171.125;-27.3125;
1441975816477724;-0.662109375;0.25579833984375;0.6824951171875;-0.17437744140625;14.454175929862755;13.537603327236315;4.19107879314179;-1.10693359375;0.29345703125;-0.2265625;-132.0;147.0;-17.625;
1441975816500725;-0.67431640625;0.2447509765625;0.67242431640625;-0.182373046875;14.484179303308993;13.645286128987307;4.380094801947954;-1.099609375;0.38330078125;-0.0927734375;-87.8125;130.75;-11.0625;
1441975816514726;-0.68804931640625;0.22509765625;0.66314697265625;-0.19000244140625;14.579814575767148;13.74604803191325;4.597264637957994;-0.77783203125;0.384765625;-0.1689453125;-48.0;106.5;-15.9375;
1441975816537727;-0.700927734375;0.196533203125;0.65557861328125;-0.20074462890625;14.715224998064322;13.816711251126057;4.83449930999976;-0.6123046875;0.47509765625;-0.1513671875;-79.125;118.625;-56.9375;
1441975816560728;-0.7115478515625;0.16717529296875;0.6478271484375;-0.214599609375;14.823176829949542;13.873881560670672;5.073687472508777;-1.14306640625;0.60595703125;-0.2041015625;-128.5;121.9375;-78.3125;
1441975816574729;-0.72210693359375;0.14031982421875;0.638427734375;-0.22650146484375;14.914219887305954;13.96129545300128;5.323745301230583;-1.2197265625;0.4169921875;-0.24267578125;-146.5625;118.5;-64.125;
1441975816597730;-0.7330322265625;0.11431884765625;0.62982177734375;-0.2301025390625;15.05430094519035;14.091276973099847;5.576877423185203;-1.1455078125;0.18798828125;-0.369140625;-129.1875;118.375;-56.6875;
1441975816620732;-0.74139404296875;0.0916748046875;0.62445068359375;-0.2281494140625;15.213406762916952;14.218942563550746;5.789545571539584;-1.126953125;0.154296875;-0.34033203125;-99.0625;99.875;-62.6875;
1441975816634733;-0.74755859375;0.07684326171875;0.62261962890625;-0.21820068359375;15.38107141595243;14.353022606512782;5.9420431584089854;-1.3447265625;0.09228515625;-0.3310546875;-68.6875;72.0;-63.25;
1441975816666734;-0.7509765625;0.071533203125;0.6236572265625;-0.20489501953125;15.514554835056794;14.459445914782787;6.013573915783136;-1.39208984375;0.01708984375;-0.26806640625;-9.5;40.1875;-58.75;
1441975816680735;-0.75384521484375;0.07183837890625;0.62432861328125;-0.19195556640625;15.601399959626658;14.558441030899852;6.056553845214581;-1.19091796875;0.14501953125;-0.04248046875;42.1875;16.9375;-48.875;
1441975816694736;-0.7459716796875;0.092041015625;0.6319580078125;-0.1890869140625;15.522691509699168;14.40233935693504;5.80520129233408;-1.12451171875;0.39599609375;0.07763671875;66.3125;18.3125;-42.375;
1441975816717737;-0.74444580078125;0.100341796875;0.63330078125;-0.1861572265625;15.489940290849322;14.381960048288498;5.738376692814608;-1.24462890625;1.2265625;0.14208984375;88.8125;-62.9375;28.25;
1441975816740739;-0.74957275390625;0.1129150390625;0.63104248046875;-0.1649169921875;15.533480995094093;14.54736342247806;5.763070489259319;-0.34423828125;0.07568359375;0.1728515625;45.5;-8.0;29.125;
1441975816754739;-0.749755859375;0.1182861328125;0.6334228515625;-0.15045166015625;15.609879026920936;14.603749103402992;5.736965212257561;-0.7734375;0.322265625;-0.09716796875;143.125;2.9375;-23.8125;
1441975816777741;-0.74896240234375;0.122314453125;0.63580322265625;-0.140869140625;15.662517160903722;14.624912076024934;5.701678977891714;-0.97412109375;0.4345703125;-0.0888671875;82.5625;-19.25;-33.75;
1441975816800742;-0.74713134765625;0.12481689453125;0.63983154296875;-0.1298828125;15.74608377249967;14.63177142976352;5.652698768928767;-0.89453125;0.36865234375;-0.064453125;55.8125;-17.75;-19.8125;
1441975816814743;-0.74505615234375;0.12841796875;0.64349365234375;-0.11956787109375;15.81538922046828;14.631835500590373;5.595317805932288;-0.951171875;0.31201171875;-0.0517578125;53.875;-27.0625;-27.9375;
1441975816837744;-0.74285888671875;0.13311767578125;0.64691162109375;-0.10919189453125;15.876119099455753;14.62941771975539;5.530789142306361;-0.9521484375;0.310546875;-0.08447265625;54.1875;-29.25;-20.625;
1441975816860746;-0.7410888671875;0.1387939453125;0.649169921875;-0.10015869140625;15.913913880140301;14.631614574838855;5.472430729395049;-0.935546875;0.29248046875;-0.0712890625;58.6875;-29.1875;-16.4375;
1441975816874746;-0.7388916015625;0.14312744140625;0.651611328125;-0.09454345703125;15.937298649300784;14.608296259616672;5.4081869848568385;-0.8330078125;0.330078125;-0.08935546875;57.8125;-24.5625;-11.5;
1441975816897748;-0.73675537109375;0.14813232421875;0.65283203125;-0.095458984375;15.900692197049713;14.559045951944011;5.341965985722206;-0.8330078125;0.39453125;0.0107421875;40.625;-16.9375;-9.0;
1441975816920749;-0.73583984375;0.1492919921875;0.65252685546875;-0.10235595703125;15.83932963962205;14.51271896516022;5.319094836575196;-0.8046875;0.62890625;0.01708984375;18.875;-6.6875;3.0;
1441975816934750;-0.73455810546875;0.146240234375;0.65264892578125;-0.11431884765625;15.772851491366872;14.43846214686418;5.306640582106932;-0.73486328125;0.59814453125;-0.056640625;-21.125;6.125;10.375;
1441975816957751;-0.73291015625;0.141357421875;0.65203857421875;-0.13323974609375;15.664409217316857;14.337302489049813;5.303719784848842;-0.6728515625;0.5830078125;0.0078125;-57.5625;12.625;12.125;
1441975816980752;-0.73406982421875;0.1318359375;0.64813232421875;-0.1539306640625;15.563738733620166;14.291080205783695;5.382660643082599;-0.58544921875;0.67138671875;0.076171875;-91.4375;24.5625;23.875;
1441975816994753;-0.73724365234375;0.12054443359375;0.64105224609375;-0.176025390625;15.452762953710412;14.283259675058577;5.513769643136909;-0.52197265625;0.65087890625;0.037109375;-116.8125;46.125;32.8125;
1441975817018755;-0.740234375;0.1077880859375;0.63262939453125;-0.20068359375;15.328741754996194;14.267969540839653;5.655074192404926;-0.56689453125;0.63232421875;-0.06787109375;-125.9375;68.375;32.4375;
1441975817040756;-0.74346923828125;0.0958251953125;0.6224365234375;-0.22515869140625;15.192430860138737;14.262540521983878;5.80344430726478;-0.58935546875;0.56689453125;-0.0498046875;-141.875;76.6875;38.875;
1441975817056757;-0.74517822265625;0.08349609375;0.61297607421875;-0.24896240234375;15.069094367029985;14.236951696253744;5.931572928801241;-0.54248046875;0.55615234375;-0.17724609375;-137.25;82.1875;43.3125;
1441975817077758;-0.74542236328125;0.071533203125;0.6036376953125;-0.273681640625;14.9398759625828;14.190331866251107;6.042533771550805;-0.638671875;0.53173828125;-0.17041015625;-138.4375;74.0625;41.0625;
1441975817100759;-0.744384765625;0.06060791015625;0.594970703125;-0.297119140625;14.818064102559468;14.132737326249382;6.134175777263266;-0.591796875;0.50830078125;-0.17578125;-143.25;68.125;46.4375;
1441975817114760;-0.74285888671875;0.05078125;0.58709716796875;-0.31768798828125;14.713726824836012;14.078360871855894;6.213146096911239;-0.55029296875;0.53515625;-0.10693359375;-135.875;59.8125;45.375;
1441975817137761;-0.7418212890625;0.0428466796875;0.58038330078125;-0.333251953125;14.635575742400619;14.04217691843754;6.2809357259627365;-0.6025390625;0.50732421875;-0.12451171875;-121.3125;51.625;40.1875;
1441975817160763;-0.74212646484375;0.03546142578125;0.57342529296875;-0.34527587890625;14.574963505957697;14.032295419370268;6.357473408165309;-0.6787109375;0.44091796875;-0.123046875;-94.5625;41.4375;31.4375;
1441975817174763;-0.74169921875;0.0279541015625;0.5694580078125;-0.3533935546875;14.558027386468527;14.018372426444534;6.412328198100553;-0.681640625;0.52734375;-0.18896484375;-76.8125;41.5625;17.5;
1441975817197765;-0.74102783203125;0.02105712890625;0.56640625;-0.36004638671875;14.551455679265562;14.004088451113029;6.457636066689107;-0.8740234375;0.51318359375;-0.248046875;-65.25;24.0625;7.375;
1441975817220766;-0.740966796875;0.0159912109375;0.5643310546875;-0.36376953125;14.554760993779514;14.001259023134192;6.493166715993668;-0.90478515625;0.4892578125;-0.22216796875;-56.9375;19.0625;5.75;
1441975817242767;-0.74163818359375;0.0133056640625;0.56170654296875;-0.36639404296875;14.54312763011332;14.00985755075793;6.525670562204455;-1.0302734375;0.35400390625;-0.32470703125;-42.4375;8.0;14.75;
1441975817266769;-0.74163818359375;0.01409912109375;0.56256103515625;-0.3651123046875;14.550053301128909;14.01073352739768;6.5171015328792405;-1.03564453125;0.4052734375;-0.310546875;-27.6875;8.3125;19.8125;
1441975817280770;-0.74285888671875;0.01556396484375;0.5677490234375;-0.3544921875;14.634702889749484;14.04120809230963;6.4911342154080875;-1.0791015625;0.33056640625;-0.11474609375;5.8125;-4.375;20.8125;
1441975817294770;-0.7445068359375;0.02105712890625;0.57135009765625;-0.34478759765625;14.673923276410763;14.075347359621134;6.457503102087332;-1.35205078125;0.17529296875;-0.16162109375;47.0625;-22.125;2.75;
1441975817326772;-0.74688720703125;0.02264404296875;0.57171630859375;-0.3388671875;14.699592692483238;14.118339342392211;6.466919599543059;-1.42138671875;0.47216796875;-0.216796875;57.1875;-24.125;10.5625;
1441975817340773;-0.74945068359375;0.02899169921875;0.573974609375;-0.32867431640625;14.727570839942258;14.168704315234182;6.444618778392954;-1.30322265625;0.291015625;-0.39306640625;22.6875;-10.5625;18.25;
1441975817354774;-0.7515869140625;0.04217529296875;0.57806396484375;-0.31488037109375;14.739402323932818;14.216429810978315;6.375466150729087;-1.30615234375;0.38818359375;-0.298828125;61.25;-21.375;14.375;
1441975817377775;-0.7528076171875;0.05841064453125;0.5863037109375;-0.29339599609375;14.80492337683156;14.2687261452938;6.264011049246917;-1.3330078125;0.46923828125;-0.29443359375;104.5625;-38.9375;8.25;
1441975817400776;-0.753662109375;0.07879638671875;0.59613037109375;-0.26544189453125;14.89469862358772;14.335859979252543;6.123137500516117;-1.36572265625;0.43408203125;-0.2666015625;145.0;-66.6875;-10.875;
1441975817414777;-0.7508544921875;0.1011962890625;0.60791015625;-0.237548828125;14.986211887348668;14.357419996240905;5.930466853295751;-1.3388671875;0.6796875;-0.328125;186.0625;-84.5625;-21.3125;
1441975817437779;-0.7440185546875;0.12567138671875;0.6224365234375;-0.2078857421875;15.092183859469367;14.32918755543595;5.673499196449036;-1.4189453125;0.63427734375;-0.32958984375;186.375;-108.5625;-13.0;
1441975817460780;-0.73443603515625;0.1571044921875;0.6375732421875;-0.17132568359375;15.197504584476583;14.2919163665334;5.351302631764522;-1.34912109375;0.61181640625;-0.3486328125;193.75;-139.375;-12.375;
1441975817474781;-0.72100830078125;0.1949462890625;0.6522216796875;-0.12939453125;15.288212900947277;14.235345465903489;4.962048914523528;-1.28125;0.70361328125;-0.294921875;245.625;-164.3125;-8.4375;
1441975817497782;-0.70196533203125;0.2340087890625;0.6671142578125;-0.0863037109375;15.36611564514848;14.118358281584253;4.502596380019294;-1.11572265625;0.77587890625;-0.29638671875;288.0625;-188.1875;0.1875;
1441975817520783;-0.67572021484375;0.2724609375;0.68365478515625;-0.04205322265625;15.429199332754933;13.908739352365659;3.9467453799618744;-1.03759765625;0.86083984375;-0.3427734375;292.75;-213.4375;4.5625;
1441975817534784;-0.64471435546875;0.30877685546875;0.69921875;-7.32421875E-4;15.43194399613902;13.646123838008624;3.3551408968588396;-1.09716796875;0.8525390625;-0.35205078125;288.9375;-250.0;7.375;
1441975817557785;-0.6123046875;0.3426513671875;0.71160888671875;0.034912109375;15.35634869530831;13.401657076730908;2.8099088452111767;-0.990234375;0.796875;-0.296875;269.1875;-259.375;17.9375;
1441975817580787;-0.57855224609375;0.371337890625;0.7232666015625;0.06475830078125;15.22586387852264;13.16258382086545;2.3105508008394855;-0.85107421875;0.802734375;-0.32958984375;243.375;-244.5;33.375;
1441975817594787;-0.54510498046875;0.39947509765625;0.73095703125;0.094970703125;15.077872312007253;12.989137298746456;1.8711125506099329;-0.7822265625;0.845703125;-0.20556640625;203.8125;-235.25;40.6875;
1441975817617789;-0.51214599609375;0.42840576171875;0.73492431640625;0.11810302734375;14.865665427642458;12.899432345921566;1.532964968568385;-0.76806640625;0.70361328125;-0.1826171875;210.5625;-222.1875;37.625;
1441975817640790;-0.48004150390625;0.455810546875;0.73724365234375;0.134765625;14.61767968337487;12.859054830506263;1.2709814144607634;-0.73974609375;0.72314453125;-0.25439453125;199.1875;-192.9375;66.5;
1441975817654791;-0.45220947265625;0.4775390625;0.73907470703125;0.145263671875;14.383066896781159;12.839766327771972;1.0797118766822427;-0.630859375;0.97314453125;-0.173828125;176.9375;-168.1875;82.4375;
1441975817678792;-0.4276123046875;0.49560546875;0.73980712890625;0.155517578125;14.189394366235875;12.829950220065427;0.9149101572576734;-0.5732421875;0.89990234375;-0.11181640625;134.6875;-136.1875;82.625;
1441975817700794;-0.4019775390625;0.5179443359375;0.736328125;0.16717529296875;13.992174671090966;12.87077741225668;0.7665020111185203;-0.73193359375;0.6015625;-0.03076171875;119.625;-121.375;70.5625;
1441975817714794;-0.37481689453125;0.54193115234375;0.73046875;0.17926025390625;13.789819479453966;12.934201017853841;0.621783389892302;-0.70361328125;0.63330078125;-0.14697265625;153.0625;-117.25;74.1875;
1441975817737796;-0.35089111328125;0.56097412109375;0.72625732421875;0.18609619140625;13.593391028239354;12.985322803671268;0.5109482167372352;-0.75146484375;0.6806640625;-0.16162109375;169.1875;-117.6875;78.875;
1441975817759797;-0.330078125;0.5772705078125;0.72283935546875;0.18768310546875;13.39423394983443;13.038314600143433;0.4384418034267763;-0.69580078125;0.74951171875;-0.1611328125;128.5;-96.4375;80.9375;
1441975817774798;-0.31243896484375;0.59246826171875;0.7188720703125;0.185791015625;13.202102803515986;13.102826968691366;0.39889336692764865;-0.58349609375;0.759765625;-0.05224609375;102.25;-69.5;87.4375;
1441975817797799;-0.29644775390625;0.60882568359375;0.71270751953125;0.18267822265625;13.017176307407333;13.189019385600442;0.37822804280362393;-0.59375;0.73291015625;0.0302734375;88.0625;-45.8125;86.8125;
1441975817821800;-0.2816162109375;0.62530517578125;0.705078125;0.1800537109375;12.849025937650287;13.28294038317833;0.360741941987925;-0.646484375;0.8193359375;0.0244140625;96.125;-29.3125;87.1875;
1441975817837801;-0.26824951171875;0.64288330078125;0.69610595703125;0.17340087890625;12.661820763604293;13.395119110811205;0.3704755643624027;-0.66650390625;0.90380859375;0.0908203125;105.25;-21.125;81.8125;
1441975817865803;-0.2567138671875;0.656005859375;0.69091796875;0.162353515625;12.459431432464347;13.473965690499124;0.39263024993762247;-0.64794921875;0.94580078125;-0.02880859375;105.4375;1.8125;92.9375;
1441975817879804;-0.24554443359375;0.66436767578125;0.689453125;0.1513671875;12.266629850009874;13.511635303196005;0.401341252869831;-0.61181640625;1.05029296875;-0.00341796875;64.875;15.375;95.0625;
1441975817897805;-0.234130859375;0.67431640625;0.68634033203125;0.138916015625;12.058355583254441;13.563769091297523;0.4177229365920225;-0.55126953125;0.912109375;0.1025390625;39.0625;11.125;94.0625;
1441975817917806;-0.22125244140625;0.68731689453125;0.68084716796875;0.1226806640625;11.80302534298156;13.638816461879784;0.4467415789145955;-0.47607421875;0.86669921875;0.16552734375;46.3125;16.8125;103.6875;
1441975817939807;-0.20709228515625;0.69854736328125;0.67681884765625;0.10479736328125;11.526294718228852;13.695901738725194;0.4692812310215172;-0.36572265625;1.01953125;0.02685546875;62.125;30.4375;123.9375;
1441975817956808;-0.19287109375;0.70550537109375;0.67645263671875;0.0859375;11.24718367309927;13.717128191286259;0.4856173265663016;-0.3017578125;1.068359375;-0.029296875;47.5;28.375;133.875;
1441975817977809;-0.1778564453125;0.71209716796875;0.67608642578125;0.06402587890625;10.937251627382896;13.73570383766733;0.5090280451355405;-0.2109375;1.01904296875;0.04638671875;16.6875;25.75;134.5625;
1441975818007811;-0.16107177734375;0.71820068359375;0.6756591796875;0.04095458984375;10.60514598343668;13.74943184969682;0.5277263343574249;-0.17041015625;0.93115234375;0.0302734375;11.8125;34.25;150.1875;
1441975818017812;-0.143798828125;0.72259521484375;0.6759033203125;0.01678466796875;10.263012975304008;13.7519231702065;0.5468442547283044;-0.09814453125;0.98486328125;0.029296875;9.8125;32.25;160.75;
1441975818037813;-0.1265869140625;0.72418212890625;0.67779541015625;-0.00860595703125;9.915723192011555;13.735272443246352;0.5696526069287334;-0.01318359375;0.96728515625;0.0283203125;-0.4375;33.5;165.25;
1441975818059814;-0.10906982421875;0.72509765625;0.67901611328125;-0.03387451171875;9.568206294632951;13.717459029929294;0.5920878450043551;-0.00390625;0.91064453125;-0.00244140625;-19.75;37.125;168.6875;
1441975818074815;-0.091552734375;0.726318359375;0.6787109375;-0.05804443359375;9.22901885704765;13.706341506859559;0.6118797705564292;0.0341796875;0.7822265625;0.00634765625;-19.5;35.9375;169.625;
1441975818106817;-0.0738525390625;0.72662353515625;0.67822265625;-0.08111572265625;8.898556957582851;13.691741921734103;0.6277853400743528;0.02197265625;0.73828125;-0.02197265625;-12.1875;32.0;167.0;
1441975818136818;-0.05615234375;0.7247314453125;0.67889404296875;-0.103271484375;8.57879002337231;13.663333710269914;0.6419806560984662;0.01220703125;0.70703125;-0.0517578125;-14.6875;27.3125;163.6875;
1441975818142819;-0.03900146484375;0.72003173828125;0.68170166015625;-0.12353515625;8.283480077890802;13.615498596848193;0.6541815173502453;0.04296875;0.64697265625;-0.04296875;-27.875;24.0;158.8125;
1441975818157820;-0.023193359375;0.71502685546875;0.6842041015625;-0.1414794921875;8.017768336103217;13.56876895580965;0.6653063416215139;0.046875;0.6142578125;-0.0244140625;-46.5625;19.25;147.4375;
1441975818179821;-0.00836181640625;0.71246337890625;0.68414306640625;-0.15557861328125;7.786232860082425;13.545182976621593;0.6646978551140653;0.07275390625;0.52685546875;-0.0302734375;-45.5625;15.5625;132.625;
1441975818194822;0.00445556640625;0.71124267578125;0.6834716796875;-0.1641845703125;7.613432967316596;13.534808679195521;0.6490981958276231;0.07373046875;0.486328125;-0.0556640625;-24.5;1.625;116.375;
1441975818217823;0.014404296875;0.709716796875;0.68377685546875;-0.16876220703125;7.497373796509874;13.523357526075282;0.629010486048937;0.08154296875;0.46533203125;-0.09326171875;-19.75;-12.5625;88.625;
1441975818239824;0.0223388671875;0.7081298828125;0.68487548828125;-0.169921875;7.4259185048354475;13.511963947895424;0.6031146222012;0.046875;0.4091796875;-0.1171875;-24.0;-16.75;62.5625;
1441975818262826;0.02911376953125;0.70751953125;0.68585205078125;-0.16778564453125;7.389698441375429;13.5086069468942;0.5671330911800292;0.01416015625;0.34619140625;-0.087890625;-24.25;-23.25;41.375;
1441975818278827;0.034423828125;0.70849609375;0.68621826171875;-0.160888671875;7.402361607218376;13.518986420243111;0.5154446401743503;0.02978515625;0.3125;-0.07275390625;-18.125;-33.1875;22.25;
1441975818299828;0.0369873046875;0.71026611328125;0.68670654296875;-0.1500244140625;7.469633874203811;13.534970207045767;0.4579070370150277;0.046875;0.28564453125;-0.0732421875;-8.875;-48.25;-3.9375;
1441975818314829;0.03631591796875;0.7125244140625;0.68743896484375;-0.1353759765625;7.594403949600574;13.553493297739772;0.3981499536920828;0.0283203125;0.3017578125;-0.08544921875;-4.8125;-54.375;-29.5;
1441975818337830;0.031982421875;0.71484375;0.68841552734375;-0.11798095703125;7.771702269542514;13.57093705622799;0.34306438653189714;-0.02734375;0.30810546875;-0.0732421875;-1.4375;-57.5;-54.5625;
1441975818359831;0.02349853515625;0.71746826171875;0.689208984375;-0.09771728515625;8.005915933222033;13.58947622762086;0.29424025855346614;-0.087890625;0.322265625;-0.05224609375;1.8125;-54.625;-76.8125;
1441975818374832;0.0126953125;0.720458984375;0.689208984375;-0.0753173828125;8.275931382188414;13.6113369063041;0.24731409943779514;-0.16845703125;0.3701171875;-0.04443359375;6.6875;-50.0625;-99.875;
1441975818397833;-0.0015869140625;0.7232666015625;0.688720703125;-0.04888916015625;8.606959940642986;13.63328191970972;0.20016111500658587;-0.2265625;0.42919921875;-0.04541015625;14.3125;-51.125;-128.375;
1441975818419835;-0.01898193359375;0.724853515625;0.6883544921875;-0.01837158203125;8.997130386613078;13.647907411764699;0.15137028870958874;-0.28173828125;0.5009765625;-0.068359375;16.5;-53.5625;-158.0625;
1441975818434836;-0.03900146484375;0.725830078125;0.6865234375;0.016845703125;9.447413691176427;13.66317666268019;0.09624928056243079;-0.32958984375;0.5556640625;-0.0615234375;12.4375;-58.0;-186.9375;
1441975818465837;-0.06243896484375;0.725830078125;0.68267822265625;0.05548095703125;9.954457567144845;13.679091348469653;0.043260120343918386;-0.3505859375;0.57275390625;-0.0595703125;16.75;-67.25;-216.6875;
1441975818479838;-0.09014892578125;0.724853515625;0.6761474609375;0.09600830078125;10.513590531181816;13.699447956439121;0.002546477416342223;-0.34912109375;0.615234375;-0.0703125;21.75;-67.4375;-246.0;
1441975818494839;-0.120849609375;0.721435546875;0.66790771484375;0.13671875;11.102333608304773;13.71593194835707;17.9746437839072;-0.40234375;0.66796875;-0.0751953125;28.375;-58.0;-272.875;
1441975818517840;-0.1539306640625;0.71453857421875;0.65899658203125;0.17718505859375;11.713715697678685;13.721033610973258;17.956375957888586;-0.53076171875;0.56396484375;0.03857421875;26.625;-47.125;-286.6875;
1441975818539842;-0.187255859375;0.7056884765625;0.64739990234375;0.218505859375;12.342810651756988;13.727457858071118;17.936031229285767;-0.67041015625;0.6826171875;0.0263671875;13.875;-39.125;-299.0;
1441975818563843;-0.22021484375;0.69158935546875;0.6368408203125;0.2598876953125;12.979329948499183;13.70033660884577;17.901473363322825;-0.88671875;0.5537109375;-0.06201171875;16.1875;-41.8125;-305.3125;
1441975818577844;-0.2520751953125;0.673095703125;0.6263427734375;0.3016357421875;13.621243622867622;13.637971735928202;17.840456866095952;-1.0859375;0.578125;-0.20849609375;-8.75;-52.5;-307.5;
1441975818601845;-0.28515625;0.649658203125;0.6163330078125;0.341552734375;14.269034843834092;13.53235749009549;17.760955386385568;-1.12353515625;0.537109375;-0.197265625;-23.0;-65.5;-311.3125;
1441975818622846;-0.3193359375;0.62445068359375;0.60516357421875;0.37652587890625;14.896169636425546;13.410631894760234;17.68318112113981;-1.19384765625;0.51513671875;-0.14111328125;-46.8125;-62.875;-317.1875;
1441975818637847;-0.35223388671875;0.5999755859375;0.59088134765625;0.4083251953125;15.500017148033002;13.284003980616847;17.592682988578332;-1.25634765625;0.21142578125;0.00439453125;-57.375;-40.9375;-306.25;
1441975818659848;-0.38079833984375;0.576416015625;0.57440185546875;0.43890380859375;16.066499890836695;13.106642171633059;17.431889680714974;-1.427734375;-0.05419921875;-0.0078125;-46.6875;-27.125;-292.9375;
1441975818676849;-0.40509033203125;0.5552978515625;0.55657958984375;0.466552734375;16.573639122332818;12.855018734520788;17.18123476822363;-1.5888671875;-0.18115234375;0.04296875;-28.0;-31.0;-275.9375;
1441975818697851;-0.4266357421875;0.53753662109375;0.53765869140625;0.48974609375;17.019343490441006;12.505063716415107;16.82391280973836;-1.54541015625;-0.11474609375;0.1064453125;-11.0;-25.25;-253.9375;
1441975818719852;-0.44427490234375;0.52374267578125;0.517333984375;0.510498046875;17.398066272470178;11.867975710816449;16.15956010567137;-1.58642578125;-0.10400390625;0.05615234375;-0.0625;-9.5;-228.5;
1441975818742853;-0.4571533203125;0.51324462890625;0.4952392578125;0.53125;17.65857878988679;10.116901386968932;14.352824299478153;-1.646484375;-0.02978515625;0.01953125;21.3125;0.1875;-206.25;
1441975818757854;-0.46722412109375;0.5035400390625;0.4730224609375;0.55169677734375;17.606892101305068;7.258185834301876;11.428382192676773;-1.6953125;0.09423828125;-0.03125;50.125;-0.8125;-192.6875;
1441975818779855;-0.476806640625;0.49322509765625;0.451904296875;0.5701904296875;17.344156503219757;6.046961811024973;10.160125238618852;-1.69140625;0.20654296875;-0.09130859375;60.5625;-6.1875;-185.3125;
1441975818810857;-0.4876708984375;0.481689453125;0.432373046875;0.5858154296875;17.043563383241317;5.563592322297682;9.63927882014875;-1.61376953125;0.30322265625;-0.12939453125;52.125;-7.25;-180.375;
1441975818817857;-0.49896240234375;0.46875;0.41375732421875;0.60003662109375;16.72915684450886;5.325991449430453;9.375649584215003;-1.50537109375;0.33251953125;-0.154296875;32.375;-4.4375;-176.4375;
1441975818839859;-0.50982666015625;0.45562744140625;0.3951416015625;0.6134033203125;16.41439282865552;5.186907952242191;9.211804667977496;-1.47314453125;0.27587890625;-0.13330078125;21.25;-6.4375;-175.3125;
1441975818863860;-0.5191650390625;0.44287109375;0.37554931640625;0.6270751953125;16.09860763565795;5.107744137084394;9.098060540400924;-1.40673828125;0.23193359375;-0.095703125;19.8125;-5.375;-173.0;
1441975818877861;-0.52691650390625;0.429931640625;0.3555908203125;0.64111328125;15.782667132943908;5.073055488028681;9.021800397847382;-1.2666015625;0.21240234375;-0.1044921875;29.6875;-5.375;-171.8125;
1441975818901862;-0.533203125;0.41705322265625;0.3365478515625;0.654541015625;15.48124223797913;5.065440215947166;8.971863983755368;-1.18798828125;0.12109375;-0.11962890625;37.1875;-9.6875;-169.75;
1441975818922863;-0.53802490234375;0.40484619140625;0.3177490234375;0.66748046875;15.194371887608666;5.0710562809176025;8.930229879369692;-1.1962890625;0.0400390625;-0.103515625;38.625;-13.1875;-160.9375;
1441975818938864;-0.5419921875;0.39239501953125;0.2996826171875;0.6800537109375;14.915307651698026;5.088273556696012;8.90081218842431;-1.0869140625;0.0458984375;-0.083984375;43.3125;-13.25;-153.8125;
1441975818959866;-0.54443359375;0.3800048828125;0.28277587890625;0.69219970703125;14.651760849627752;5.119126954395644;8.884157744991855;-0.9814453125;0.00244140625;-0.06494140625;43.3125;-16.4375;-148.25;
1441975818982867;-0.54217529296875;0.36944580078125;0.265380859375;0.70648193359375;14.407534066876963;5.185719953688119;8.874789325440874;-0.9609375;-0.1435546875;-0.0263671875;45.5;-21.1875;-137.6875;
1441975818997868;-0.53662109375;0.3599853515625;0.24853515625;0.7215576171875;14.18378166506909;5.273773835143824;8.871586344910769;-0.919921875;-0.13671875;-0.01025390625;74.5625;-24.8125;-127.375;
1441975819019869;-0.53326416015625;0.35040283203125;0.23455810546875;0.73333740234375;13.982920831294402;5.336343914131574;8.868074021945155;-0.83447265625;0.02490234375;-0.01513671875;90.6875;-28.8125;-117.9375;
1441975819042870;-0.5322265625;0.34356689453125;0.22607421875;0.739990234375;13.851411033460268;5.366813753405178;8.865344248653383;-0.7880859375;0.06494140625;-0.02001953125;65.4375;-28.25;-106.3125;
1441975819057871;-0.52996826171875;0.3377685546875;0.21832275390625;0.74652099609375;13.737277427297462;5.4033304402331295;8.864367733220071;-0.74951171875;-0.0234375;0.00146484375;32.625;-27.625;-95.3125;
1441975819079872;-0.5245361328125;0.33367919921875;0.21099853515625;0.7542724609375;13.645017290695769;5.461759748271678;8.867915879212898;-0.7294921875;-0.07275390625;0.03857421875;36.375;-25.5625;-83.75;
1441975819102874;-0.51690673828125;0.33172607421875;0.20477294921875;0.7620849609375;13.58358617964668;5.531544495108814;8.873165892930658;-0.681640625;-0.05224609375;0.06201171875;53.75;-24.3125;-71.125;
1441975819125875;-0.5098876953125;0.33074951171875;0.2000732421875;0.7684326171875;13.54321043502342;5.592440138441706;8.878278929031696;-0.5673828125;0.08203125;0.0302734375;63.625;-21.75;-57.5625;
1441975819147876;-0.503662109375;0.33062744140625;0.197265625;0.7733154296875;13.524512695461778;5.644954682693417;8.886228347513459;-0.45751953125;0.17919921875;-0.02197265625;54.8125;-19.75;-47.0;
1441975819162877;-0.497802734375;0.33148193359375;0.1966552734375;0.77691650390625;13.530711346252504;5.693473330923919;8.900359897940454;-0.41162109375;0.2529296875;-0.06884765625;45.25;-19.6875;-37.5625;
1441975819177878;-0.4935302734375;0.3336181640625;0.1982421875;0.7783203125;13.564584770599302;5.726412613943468;8.915118945960584;-0.390625;0.3095703125;-0.09130859375;36.625;-19.625;-25.8125;
1441975819199879;-0.489501953125;0.338623046875;0.20220947265625;0.77764892578125;13.64433107501956;5.75074459292915;8.929237173101722;-0.37353515625;0.283203125;-0.0888671875;20.3125;-14.375;-10.8125;
1441975819222881;-0.48382568359375;0.34686279296875;0.20880126953125;0.77587890625;13.775726748942926;5.783351867297979;8.95042353909033;-0.46630859375;0.2646484375;-0.0986328125;13.3125;-6.5;7.1875;
1441975819237881;-0.47821044921875;0.357177734375;0.21746826171875;0.77227783203125;13.943752943365908;5.811733081223581;8.974797595880156;-0.54248046875;0.2744140625;-0.09130859375;15.3125;-0.4375;28.5;
1441975819259883;-0.47125244140625;0.37005615234375;0.2283935546875;0.767333984375;14.155328323121028;5.848260450101079;9.007964126343854;-0.5380859375;0.2646484375;-0.0888671875;8.375;6.9375;47.0625;
1441975819282884;-0.46026611328125;0.38409423828125;0.23968505859375;0.76361083984375;14.383262188974207;5.9228197868276995;9.060597014481587;-0.6083984375;0.14892578125;-0.10302734375;12.25;11.1875;72.6875;
1441975819297885;-0.44696044921875;0.40264892578125;0.25311279296875;0.75762939453125;14.676260384855137;6.012827913042446;9.12336594235348;-0.62353515625;0.30712890625;-0.17822265625;32.875;19.125;105.5625;
1441975819319886;-0.43255615234375;0.42462158203125;0.26995849609375;0.74810791015625;15.033247745996402;6.119530194251856;9.211869698268334;-0.68994140625;0.45458984375;-0.28125;38.375;33.5;133.125;
1441975819343888;-0.41497802734375;0.45013427734375;0.28839111328125;0.73614501953125;15.444405150574715;6.2730747714683375;9.339531229516327;-0.86669921875;0.52734375;-0.3486328125;31.5;44.25;162.375;
1441975819358888;-0.3963623046875;0.4766845703125;0.3065185546875;0.7222900390625;15.868643787984718;6.4763447736360025;9.514377138946507;-1.0478515625;0.60888671875;-0.36767578125;40.1875;55.4375;187.625;
1441975819379890;-0.388916015625;0.50115966796875;0.33514404296875;0.696533203125;16.352296896919288;6.672840296721423;9.788328185077589;-1.212890625;1.060546875;-0.470703125;42.625;73.75;210.6875;
1441975819419892;-0.37847900390625;0.5283203125;0.36932373046875;0.6641845703125;16.894853996137417;7.202684535515093;10.41180810486739;-1.63427734375;0.81884765625;-0.56201171875;-62.875;93.6875;239.75;
1441975819421892;-0.34625244140625;0.57000732421875;0.38909912109375;0.6353759765625;17.366331387602905;9.092889392767395;12.23144319342905;-2.04833984375;0.05615234375;-0.15673828125;-76.125;97.0625;284.6875;
1441975819439893;-0.31298828125;0.610107421875;0.41241455078125;0.59967041015625;17.1892139180742;12.252246366940387;15.34700637784751;-1.8212890625;0.30615234375;-0.224609375;88.1875;127.75;319.375;
1441975819462894;-0.295166015625;0.63665771484375;0.45843505859375;0.54522705078125;16.479199316857677;13.336308078044656;16.588574555610045;-2.29248046875;0.80078125;-0.3876953125;63.8125;142.5;353.25;
1441975819477895;-0.27978515625;0.6492919921875;0.5189208984375;0.48040771484375;15.610456378251406;13.49851012955114;17.02456947876545;-3.28955078125;0.42138671875;-0.162109375;-135.0;157.3125;398.125;
1441975819499896;-0.2425537109375;0.6773681640625;0.55340576171875;0.41949462890625;14.680947849368037;13.685542434344804;17.282265794650726;-3.65478515625;-0.72119140625;0.45751953125;-250.125;133.8125;438.3125;
1441975819522898;-0.19049072265625;0.71600341796875;0.5648193359375;0.36328125;13.734523338320265;13.915625528486787;17.414153365215856;-2.7841796875;-0.544921875;0.11181640625;-40.0625;138.125;461.3125;
1441975819538899;-0.14898681640625;0.74102783203125;0.578857421875;0.3057861328125;12.87364227255864;14.027251667217515;17.508320251895864;-2.4560546875;0.7490234375;-0.076171875;125.5625;130.5;463.0625;
1441975819559900;-0.12237548828125;0.7420654296875;0.61309814453125;0.24169921875;12.058378298332391;13.93876388632811;17.61698465093668;-2.16064453125;1.48291015625;-0.17822265625;47.1875;138.875;413.875;
1441975819590902;-0.114501953125;0.71722412109375;0.66412353515625;0.1771240234375;11.396514086507928;13.672816997313669;17.77712187265977;-2.70166015625;1.380859375;-0.31396484375;-150.4375;156.625;387.625;
1441975819598902;-0.11810302734375;0.66876220703125;0.72406005859375;0.1201171875;10.937357489921775;13.264359482217968;17.951469585486144;-2.61669921875;0.99560546875;-0.23828125;-339.8125;177.5;314.6875;
1441975819619903;-0.11474609375;0.6153564453125;0.77587890625;0.07781982421875;10.589447363549118;12.85033530556759;0.06096174959262964;-2.341796875;0.46240234375;-0.21533203125;-473.9375;160.0625;232.3125;
1441975819642905;-0.09979248046875;0.57281494140625;0.8118896484375;0.05194091796875;10.280066017949476;12.530307334831766;0.0881083563685995;-2.427734375;-0.7958984375;-0.583984375;-448.125;76.5;188.625;
1441975819658906;-0.079833984375;0.5745849609375;0.81396484375;0.02874755859375;9.938214094072071;12.532575864199636;0.13056022892750452;-2.06884765625;-1.60009765625;-0.0634765625;-327.25;-17.9375;156.125;
