1441975580267213;0.1854248046875;-0.716552734375;-0.4776611328125;-0.47332763671875;14.880879064312458;14.032029082059662;16.94499510387837;-2.7353515625;0.5732421875;-0.19873046875;124.3125;122.3125;420.9375;
1441975580283214;0.172119140625;-0.71197509765625;-0.5340576171875;-0.4222412109375;14.172651792540973;13.838529356758723;17.029218475240707;-2.861328125;1.16015625;-0.1513671875;-5.4375;108.5;385.0625;
1441975580304215;0.15771484375;-0.70172119140625;-0.58221435546875;-0.3792724609375;13.571352668926336;13.641448252372964;17.08057273002133;-2.9169921875;0.29150390625;0.33154296875;-263.0625;101.4375;343.625;
1441975580320216;0.1292724609375;-0.715087890625;-0.59588623046875;-0.34197998046875;13.00230088795177;13.709780009101188;17.154829600907775;-2.4326171875;-0.92236328125;0.5234375;-235.8125;58.625;297.25;
1441975580343217;0.09185791015625;-0.736572265625;-0.59259033203125;-0.3128662109375;12.473286682826238;13.856221135793803;17.167477308681736;-2.4384765625;-1.20654296875;0.00927734375;17.4375;71.9375;280.75;
1441975580364219;0.069580078125;-0.74169921875;-0.60235595703125;-0.286865234375;12.061833762044548;13.866599065294976;17.18215951804388;-2.03759765625;-0.19482421875;0.07275390625;139.0;36.1875;262.6875;
1441975580380220;0.04931640625;-0.74005126953125;-0.6192626953125;-0.2579345703125;11.62822919373174;13.82042875589308;17.202354307812886;-1.60498046875;-0.18212890625;0.20556640625;4.9375;43.125;227.9375;
1441975580403221;0.02984619140625;-0.744140625;-0.6248779296875;-0.23455810546875;11.27269670822283;13.839755176974915;17.217904996792917;-1.45458984375;-0.57421875;0.28076171875;-55.8125;43.4375;213.125;
1441975580432223;0.01220703125;-0.747802734375;-0.6298828125;-0.2095947265625;10.919812746971576;13.860941047366925;17.245765561401228;-1.30712890625;-0.39208984375;0.2216796875;15.75;38.5;197.9375;
1441975580441223;1.8310546875E-4;-0.74371337890625;-0.64263916015625;-0.18438720703125;10.593056222140198;13.816786502300584;17.287516471234568;-1.11572265625;0.0751953125;0.16943359375;14.0625;50.75;189.9375;
1441975580463224;-0.00177001953125;-0.72802734375;-0.6669921875;-0.15850830078125;10.320457628883894;13.676731164322034;17.365046095319776;-0.9765625;0.34814453125;0.05517578125;-55.0;61.125;171.8125;
1441975580484226;0.007080078125;-0.7005615234375;-0.70050048828125;-0.13616943359375;10.157750705492923;13.446175324067791;17.468124551996794;-0.84521484375;0.45556640625;0.05126953125;-158.3125;87.75;141.6875;
1441975580500226;0.0245361328125;-0.66644287109375;-0.73565673828125;-0.11895751953125;10.122367291373061;13.176336022232725;17.58289899187435;-0.7470703125;0.4619140625;0.0498046875;-251.9375;102.9375;90.5;
1441975580523228;0.04541015625;-0.6363525390625;-0.76312255859375;-0.103515625;10.159755842427737;12.952571027008212;17.706485447175734;-0.79296875;0.2431640625;0.12744140625;-290.6875;111.0;37.375;
1441975580544229;0.06878662109375;-0.61260986328125;-0.78228759765625;-0.08990478515625;10.257736662970915;12.788199584872286;17.83442093892628;-0.83349609375;0.21240234375;0.13671875;-246.9375;121.0625;13.125;
1441975580560230;0.09393310546875;-0.5953369140625;-0.7939453125;-0.0802001953125;10.416057525414232;12.680735573541408;17.954187573650202;-0.8583984375;0.37255859375;0.13525390625;-190.0625;130.1875;-8.125;
1441975580589232;0.12213134765625;-0.58135986328125;-0.8011474609375;-0.07342529296875;10.632160791487301;12.607111665494275;0.07270231494910978;-0.833984375;0.48828125;0.11962890625;-135.375;130.0625;-33.875;
1441975580606233;0.15557861328125;-0.56646728515625;-0.8062744140625;-0.07025146484375;10.929513142674988;12.541613884122926;0.1912737464102599;-0.69482421875;0.63720703125;0.0654296875;-106.875;138.0;-61.75;
1441975580620233;0.19427490234375;-0.5506591796875;-0.80859375;-0.07220458984375;11.318473213351119;12.487823684749527;0.3034561114501161;-0.6357421875;0.81298828125;0.07177734375;-104.875;151.3125;-100.0;
1441975580643235;0.23431396484375;-0.53399658203125;-0.80853271484375;-0.07928466796875;11.761613804434887;12.441703424500906;0.3957937888988079;-0.7529296875;0.85888671875;0.02685546875;-98.875;160.5;-142.1875;
1441975580666236;0.27294921875;-0.518310546875;-0.8055419921875;-0.089599609375;12.218034975815728;12.41204414937943;0.4711910202885097;-0.9423828125;0.662109375;0.06982421875;-88.5625;152.125;-169.875;
1441975580680237;0.31298828125;-0.50439453125;-0.79815673828125;-0.103271484375;12.713890244683991;12.412821567710184;0.5454728497372568;-0.91455078125;0.5498046875;0.15185546875;-67.875;140.8125;-181.0625;
1441975580703238;0.3543701171875;-0.4912109375;-0.7864990234375;-0.120849609375;13.254070628786556;12.440578635054345;0.619284238251834;-0.93505859375;0.69384765625;0.1826171875;-42.875;146.0625;-203.0;
1441975580726239;0.3917236328125;-0.478271484375;-0.7734375;-0.14013671875;13.772873016917819;12.474633539018601;0.6789248909162053;-1.20849609375;0.6484375;0.09130859375;-21.3125;147.1875;-224.0625;
1441975580747241;0.42388916015625;-0.46844482421875;-0.758544921875;-0.1597900390625;14.24429919012694;12.533375356561042;0.735175645805183;-1.5078125;0.44921875;0.1044921875;-9.125;127.0;-216.8125;
1441975580763242;0.45147705078125;-0.46429443359375;-0.73944091796875;-0.1839599609375;14.698120003428496;12.63958524600441;0.7834998982557195;-1.560546875;0.4091796875;0.09326171875;15.0625;109.75;-199.4375;
1441975580786243;0.47430419921875;-0.46600341796875;-0.71563720703125;-0.21405029296875;15.143646712507223;12.799069750090096;0.8242651390687907;-1.5322265625;0.30712890625;0.1005859375;66.75;94.9375;-197.5;
1441975580807244;0.49151611328125;-0.4710693359375;-0.68902587890625;-0.2486572265625;15.571764367522595;12.988134758171281;0.8512450715563111;-1.53515625;0.33056640625;0.09326171875;124.6875;78.5;-201.8125;
1441975580823245;0.50396728515625;-0.4761962890625;-0.66156005859375;-0.28570556640625;15.98643031882471;13.178580539287614;0.8613276301270295;-1.55322265625;0.4560546875;0.08447265625;164.9375;55.6875;-203.375;
1441975580846246;0.51275634765625;-0.47998046875;-0.63409423828125;-0.32354736328125;16.390598181529473;13.360875004333131;0.8592179334620043;-1.52099609375;0.50439453125;0.06494140625;181.0625;33.875;-204.125;
1441975580867247;0.5177001953125;-0.48370361328125;-0.605712890625;-0.3621826171875;16.78194217889672;13.553202063479578;0.8553699754565376;-1.50048828125;0.47314453125;0.0927734375;184.6875;16.875;-202.0625;
1441975580883248;0.51953125;-0.486572265625;-0.57720947265625;-0.40032958984375;17.1585956761901;13.759362176066244;0.8632176002151927;-1.43505859375;0.38525390625;0.0869140625;196.5625;3.8125;-197.1875;
1441975580906250;0.51873779296875;-0.48779296875;-0.550048828125;-0.4364013671875;17.512241320141655;13.97489924899123;0.8898574490913262;-1.3818359375;0.3447265625;0.0712890625;198.875;-7.5625;-190.5625;
1441975580927251;0.5172119140625;-0.4864501953125;-0.52593994140625;-0.46826171875;17.83652778937314;14.341528653649023;1.0949958542465208;-1.330078125;0.33203125;0.07177734375;189.4375;-17.875;-179.9375;
1441975580943252;0.51605224609375;-0.4830322265625;-0.50543212890625;-0.49493408203125;17.87075038388606;4.600518775994528;9.225203418072153;-1.24169921875;0.28662109375;0.0634765625;162.0;-24.3125;-164.8125;
1441975580966253;0.51654052734375;-0.4776611328125;-0.48919677734375;-0.51556396484375;17.62124970651322;4.941702341565275;9.47756531188027;-1.13818359375;0.2275390625;0.07373046875;128.75;-24.875;-146.6875;
1441975580987254;0.5198974609375;-0.4698486328125;-0.4781494140625;-0.52947998046875;17.409918013743013;5.002040572561705;9.498363838552184;-1.11083984375;0.18701171875;0.0498046875;89.1875;-22.0;-127.5;
1441975581003255;0.52484130859375;-0.46124267578125;-0.473388671875;-0.53643798828125;17.261232148022177;5.030110955193811;9.53168785499075;-1.08203125;0.12744140625;0.029296875;39.5625;-18.9375;-108.25;
1441975581026257;0.53265380859375;-0.4515380859375;-0.4722900390625;-0.5379638671875;17.14504145840945;4.981208342442977;9.525568420093487;-1.00390625;0.08447265625;0.03466796875;-5.4375;-16.4375;-87.25;
1441975581047258;0.54168701171875;-0.4420166015625;-0.47418212890625;-0.53515625;17.066919373920733;4.897710264830914;9.508940009150706;-0.94775390625;0.00732421875;0.0166015625;-43.1875;-9.875;-67.75;
1441975581063259;0.5504150390625;-0.4332275390625;-0.478759765625;-0.52935791015625;17.027353227934558;4.819222387682369;9.51070469539756;-0.970703125;-0.025390625;0.01123046875;-67.125;-4.4375;-48.0;
1441975581086260;0.5587158203125;-0.42572021484375;-0.48492431640625;-0.5211181640625;17.021611885974227;4.72466816729434;9.503091961354263;-0.9541015625;-0.0244140625;0.00537109375;-80.1875;-3.5625;-29.4375;
1441975581108261;0.56597900390625;-0.4197998046875;-0.4923095703125;-0.510986328125;17.049055480981053;4.619879751672382;9.48665182284949;-0.9169921875;-0.05224609375;-0.01171875;-87.125;-1.0;-10.3125;
1441975581123262;0.57208251953125;-0.41485595703125;-0.5006103515625;-0.50006103515625;17.09795751561547;4.523531136721707;9.477391645285868;-0.8759765625;-0.02587890625;-0.02490234375;-88.1875;1.25;5.125;
1441975581146263;0.576416015625;-0.4111328125;-0.50958251953125;-0.48895263671875;17.168094412112183;4.44977438357966;9.484549611589276;-0.89501953125;-0.04443359375;-0.0224609375;-87.3125;0.4375;17.625;
1441975581167265;0.57794189453125;-0.40960693359375;-0.51837158203125;-0.47918701171875;17.25732977522647;4.423195678188723;9.519987709182937;-0.896484375;-0.0673828125;-0.013671875;-80.375;-2.1875;30.625;
1441975581183266;0.57666015625;-0.41094970703125;-0.526123046875;-0.470947265625;17.36404546219674;4.427063944907073;9.562127420700824;-0.88427734375;-0.0625;0.00341796875;-61.9375;-5.4375;40.75;
1441975581206267;0.57391357421875;-0.4141845703125;-0.53314208984375;-0.4635009765625;17.481340459109187;4.441305256479108;9.600529617805677;-0.8828125;-0.02783203125;-0.013671875;-37.9375;-7.375;48.3125;
1441975581227268;0.5706787109375;-0.41790771484375;-0.53973388671875;-0.45654296875;17.598838993540525;4.476377414381487;9.654331779092278;-0.8759765625;0.01611328125;-0.0390625;-23.5;-7.875;51.6875;
1441975581243269;0.5667724609375;-0.421630859375;-0.54620361328125;-0.45025634765625;17.714363096819206;4.618771394662728;9.81131471523324;-0.88427734375;0.02587890625;-0.048828125;-18.3125;-8.6875;52.5;
1441975581266270;0.56207275390625;-0.4256591796875;-0.5518798828125;-0.44537353515625;17.820165913416314;5.034134324103564;10.23184332327642;-0.87890625;0.0146484375;-0.02978515625;-14.4375;-10.625;53.5625;
1441975581287271;0.55645751953125;-0.430419921875;-0.55633544921875;-0.4422607421875;17.904049905498432;6.375689557384812;11.565244721150515;-0.8603515625;-0.0146484375;-0.033203125;-4.875;-13.5625;53.6875;
1441975581303272;0.54925537109375;-0.43658447265625;-0.55975341796875;-0.44091796875;17.907973499903353;9.796120140932759;14.960841878733095;-0.822265625;-0.06689453125;-0.037109375;8.6875;-15.5;54.1875;
1441975581326274;0.54150390625;-0.44451904296875;-0.5615234375;-0.44036865234375;17.834334375963536;11.522514798153773;16.648732432954965;-0.7861328125;-0.06689453125;-0.01025390625;25.25;-16.5;55.125;
1441975581347275;0.53466796875;-0.4520263671875;-0.56243896484375;-0.43988037109375;17.754379924303624;12.136629345566897;17.225647805115994;-0.77197265625;-0.0078125;-0.02783203125;38.8125;-12.0625;52.3125;
1441975581363276;0.52874755859375;-0.45794677734375;-0.563232421875;-0.43994140625;17.68475057618592;12.349956413095402;17.407057305137823;-0.83056640625;0.04296875;-0.04443359375;37.375;-9.125;43.5625;
1441975581386277;0.52337646484375;-0.46295166015625;-0.56317138671875;-0.44122314453125;17.6325656093126;12.420037072471494;17.443471110540425;-0.89453125;0.06787109375;-0.037109375;32.25;-10.5625;33.6875;
1441975581407278;0.51824951171875;-0.467529296875;-0.56201171875;-0.44384765625;17.59673265927749;12.428642939633098;17.413332549140208;-0.9169921875;0.056640625;-0.0205078125;33.4375;-10.875;24.8125;
1441975581423279;0.51287841796875;-0.47265625;-0.55950927734375;-0.44781494140625;17.571795104340545;12.434299076231225;17.370224213532772;-0.90966796875;0.0234375;0.0048828125;38.5625;-10.0;18.4375;
1441975581454281;0.5076904296875;-0.47808837890625;-0.5560302734375;-0.4522705078125;17.55584141704165;12.464004491734848;17.34662249034534;-0.90087890625;0.0126953125;0.0244140625;48.625;-7.5625;13.75;
1441975581467282;0.50347900390625;-0.48284912109375;-0.55267333984375;-0.4560546875;17.545990825266266;12.510610297149244;17.346948100690256;-0.8955078125;0.02099609375;0.025390625;53.0625;-4.4375;9.8125;
1441975581483283;0.50103759765625;-0.48602294921875;-0.55010986328125;-0.45849609375;17.543990308982952;12.561581797214863;17.367422210040928;-0.89453125;0.03369140625;0.0078125;46.375;-3.0;6.9375;
1441975581505284;0.49969482421875;-0.488037109375;-0.54833984375;-0.45989990234375;17.544542488219182;12.608746915357244;17.39584379874661;-0.8876953125;0.03076171875;-0.005859375;30.5625;-0.6875;3.8125;
1441975581527285;0.49884033203125;-0.4892578125;-0.54718017578125;-0.4609375;17.54593980258537;12.630799353236759;17.40562774677928;-0.88134765625;0.02197265625;-0.0068359375;18.6875;0.0;3.625;
1441975581543286;0.49761962890625;-0.49072265625;-0.5458984375;-0.462158203125;17.54534936437744;12.650573897912107;17.41052023214358;-0.8720703125;0.00634765625;0.01171875;12.1875;0.375;3.75;
1441975581565287;0.49615478515625;-0.49273681640625;-0.54449462890625;-0.46331787109375;17.541374971896243;12.694904635682267;17.437505623863807;-0.8515625;0.01123046875;0.00830078125;15.0;-0.25;4.125;
1441975581588289;0.4945068359375;-0.4952392578125;-0.54296875;-0.4642333984375;17.533728623538767;12.76870772113506;17.492397431232295;-0.853515625;0.02880859375;0.0087890625;17.625;0.75;5.0625;
1441975581617290;0.4927978515625;-0.4971923828125;-0.5418701171875;-0.46514892578125;17.52498292991682;12.803486724713565;17.510906987385304;-0.85107421875;0.05322265625;-4.8828125E-4;18.75;1.9375;5.5625;
1441975581650292;0.49102783203125;-0.4986572265625;-0.541259765625;-0.46624755859375;17.515496627093775;12.794888569618152;17.488124178641353;-0.85546875;0.076171875;0.00732421875;16.0625;-0.375;4.0625;
1441975581654292;0.4888916015625;-0.49993896484375;-0.54071044921875;-0.4676513671875;17.505133783049065;12.75740120951809;17.435244299353045;-0.83740234375;0.0830078125;0.025390625;14.25;-2.375;3.1875;
1441975581663293;0.48626708984375;-0.5015869140625;-0.53997802734375;-0.469482421875;17.4928120481298;12.7142759819793;17.372515240637505;-0.8203125;0.08837890625;0.04736328125;15.4375;-3.6875;2.5;
1441975581685294;0.4835205078125;-0.50341796875;-0.53900146484375;-0.47149658203125;17.481184044245325;12.677447533956295;17.31398193593246;-0.8046875;0.1142578125;0.05126953125;19.3125;-4.5625;1.1875;
1441975581716296;0.4803466796875;-0.50531005859375;-0.5380859375;-0.4737548828125;17.4666593106208;12.626402494802194;17.23930925085363;-0.83544921875;0.12890625;0.052734375;21.625;-4.375;0.25;
1441975581729297;0.47833251953125;-0.50689697265625;-0.53729248046875;-0.47503662109375;17.456787519438215;12.620964989518232;17.21759256156913;-0.84130859375;0.13623046875;0.0478515625;23.25;-7.1875;0.75;
1441975581745298;0.4774169921875;-0.50677490234375;-0.5377197265625;-0.4755859375;17.44969900037015;12.5704123199634;17.164417492315405;-0.84228515625;0.1357421875;0.0146484375;16.0625;-4.1875;-0.1875;
1441975581768299;0.47662353515625;-0.5057373046875;-0.538818359375;-0.47625732421875;17.442102657736964;12.470067132910936;17.066000497852553;-0.8828125;0.11181640625;0.017578125;2.3125;-6.4375;-0.625;
1441975581789300;0.47515869140625;-0.5050048828125;-0.53961181640625;-0.4775390625;17.432080651381273;12.357811653542141;16.950250067992243;-0.87646484375;0.05810546875;0.04443359375;-2.5;-9.375;2.0;
1441975581805301;0.4727783203125;-0.505615234375;-0.53948974609375;-0.47943115234375;17.41907248215332;12.282452492498825;16.860536881925988;-0.9091796875;0.0263671875;0.06982421875;3.4375;-10.0;4.3125;
1441975581830303;0.4691162109375;-0.50726318359375;-0.5391845703125;-0.48162841796875;17.395184075035107;12.226921751017366;16.782601368173104;-0.98388671875;0.01220703125;0.0439453125;14.125;-10.6875;7.9375;
1441975581849304;0.46441650390625;-0.50982666015625;-0.5390625;-0.483642578125;17.358721569627214;12.202124561822489;16.73084401027321;-0.98291015625;0.00146484375;0.056640625;22.375;-11.75;13.75;
1441975581865305;0.45977783203125;-0.51312255859375;-0.53900146484375;-0.484619140625;17.317399147748016;12.237907860680338;16.740885538415746;-0.92138671875;0.0205078125;0.072265625;27.125;-10.875;19.0;
1441975581888306;0.4560546875;-0.5155029296875;-0.5404052734375;-0.4840087890625;17.26995088115448;12.278091146858682;16.76933086692686;-0.89794921875;0.0771484375;0.06591796875;25.75;-6.375;20.4375;
1441975581909307;0.453857421875;-0.51611328125;-0.54345703125;-0.4820556640625;17.22274505267056;12.291839121356814;16.789385641011325;-0.916015625;0.12841796875;0.0615234375;11.9375;-6.125;21.5;
1441975581924308;0.4525146484375;-0.5155029296875;-0.54736328125;-0.47955322265625;17.177435311537025;12.28096600224417;16.794814427415684;-0.90869140625;0.1181640625;0.07080078125;-5.875;-6.0;22.125;
1441975581939309;0.4510498046875;-0.51513671875;-0.55078125;-0.47735595703125;17.135045817777723;12.27398272059412;16.80081115272222;-0.935546875;0.0888671875;0.083984375;-15.875;-6.4375;23.375;
1441975581970311;0.4490966796875;-0.51531982421875;-0.553466796875;-0.47589111328125;17.095047573340246;12.268460622450876;16.801084450955457;-0.9677734375;0.0615234375;0.07275390625;-12.6875;-7.3125;24.5625;
1441975581984311;0.44677734375;-0.51641845703125;-0.554931640625;-0.47515869140625;17.060997705310278;12.279505698988585;16.808628785180765;-0.99462890625;0.04833984375;0.0595703125;-5.5;-8.5625;24.875;
1441975581999312;0.44403076171875;-0.5179443359375;-0.55621337890625;-0.474609375;17.024388063546358;12.294995530834669;16.817106502904295;-1.00537109375;0.041015625;0.03173828125;3.875;-8.875;23.625;
1441975582021313;0.44140625;-0.5194091796875;-0.5576171875;-0.47381591796875;16.9871969045472;12.312745335352739;16.82942093868852;-0.990234375;0.0498046875;0.03662109375;7.1875;-8.1875;24.375;
1441975582046315;0.43878173828125;-0.520751953125;-0.55902099609375;-0.47320556640625;16.95092143431556;12.323239442279204;16.834300728783315;-0.9560546875;0.0595703125;0.0498046875;5.875;-6.875;24.625;
1441975582059316;0.435791015625;-0.52215576171875;-0.56011962890625;-0.4730224609375;16.9151752677759;12.327115529949053;16.82922315462916;-0.96337890625;0.0595703125;0.07763671875;6.25;-6.25;24.0;
1441975582081317;0.43243408203125;-0.52398681640625;-0.560791015625;-0.47332763671875;16.88013708399551;12.332779115718662;16.821008313195854;-0.9794921875;0.05322265625;0.09521484375;9.625;-6.8125;24.125;
1441975582104318;0.4285888671875;-0.5262451171875;-0.56097412109375;-0.47412109375;16.84525780639492;12.340104611488588;16.8089993348517;-0.99267578125;0.0615234375;0.09326171875;14.625;-7.125;23.75;
1441975582119319;0.42474365234375;-0.5289306640625;-0.56072998046875;-0.47491455078125;16.812334068698586;12.359647337993458;16.80673554905265;-0.99267578125;0.072265625;0.099609375;20.0;-7.75;23.0;
1441975582141320;0.4212646484375;-0.53173828125;-0.56036376953125;-0.4752197265625;16.78114846545286;12.392129235090948;16.819152768148513;-0.97998046875;0.08837890625;0.1005859375;22.3125;-5.5;21.75;
1441975582164322;0.4185791015625;-0.5340576171875;-0.56036376953125;-0.47503662109375;16.7531759550205;12.423475087354246;16.83658467469663;-0.96484375;0.1123046875;0.095703125;20.9375;-2.5625;20.8125;
1441975582187323;0.4169921875;-0.53546142578125;-0.56060791015625;-0.474609375;16.733662536663704;12.444948854395353;16.851358472866774;-0.95361328125;0.13037109375;0.09033203125;15.0;-0.8125;18.75;
1441975582201324;0.41595458984375;-0.5360107421875;-0.56097412109375;-0.474365234375;16.720538230115228;12.44969002925169;16.853267661250282;-0.958984375;0.13427734375;0.091796875;7.4375;0.375;14.9375;
1441975582224325;0.41522216796875;-0.536376953125;-0.5611572265625;-0.4744873046875;16.712956966036348;12.448774600135732;16.84935856585591;-0.974609375;0.12451171875;0.10888671875;3.75;0.0;11.6875;
1441975582239326;0.41448974609375;-0.53668212890625;-0.5609130859375;-0.47503662109375;16.71004332010357;12.443925958518285;16.83922591208096;-0.9697265625;0.1220703125;0.10009765625;3.6875;-0.6875;9.125;
1441975582261327;0.4136962890625;-0.537353515625;-0.56011962890625;-0.47589111328125;16.710613526578776;12.445369262184805;16.831693697177407;-0.97412109375;0.111328125;0.0966796875;5.8125;-1.6875;7.125;
1441975582284329;0.41265869140625;-0.5380859375;-0.55902099609375;-0.47723388671875;16.7129785909778;12.441695784006543;16.81587825271618;-0.99609375;0.10888671875;0.083984375;9.25;-1.375;6.1875;
1441975582299329;0.41143798828125;-0.53900146484375;-0.55755615234375;-0.47894287109375;16.717276113541747;12.437763320037574;16.796638044701808;-0.99365234375;0.11181640625;0.0859375;12.375;-2.5625;4.6875;
1441975582321331;0.41021728515625;-0.53997802734375;-0.555908203125;-0.4808349609375;16.723344091526187;12.433561036633115;16.77590280415977;-0.9775390625;0.10498046875;0.0849609375;15.3125;-3.0625;3.1875;
1441975582344332;0.40887451171875;-0.540771484375;-0.55438232421875;-0.48284912109375;16.72844419516811;12.422311083292984;16.74829301694307;-0.970703125;0.1181640625;0.0751953125;16.5625;-3.5;1.5625;
1441975582360333;0.40771484375;-0.54132080078125;-0.55291748046875;-0.48486328125;16.735115410120557;12.406835689374809;16.71786618426217;-0.9619140625;0.12841796875;0.0869140625;16.1875;-4.25;0.1875;
1441975582390335;0.40673828125;-0.54156494140625;-0.5513916015625;-0.48712158203125;16.74515151610008;12.382937707032246;16.679552050414454;-0.9501953125;0.1416015625;0.0869140625;14.625;-4.4375;-1.75;
1441975582404335;0.40582275390625;-0.54180908203125;-0.5498046875;-0.4893798828125;16.755970483610113;12.35932233223921;16.64152309988979;-0.947265625;0.1396484375;0.09326171875;13.9375;-5.0;-3.8125;
1441975582419336;0.4051513671875;-0.5419921875;-0.54815673828125;-0.49163818359375;16.769203204077613;12.335637093977173;16.60414415087865;-0.93994140625;0.1533203125;0.0908203125;13.9375;-4.8125;-5.8125;
1441975582450338;0.405029296875;-0.54193115234375;-0.54620361328125;-0.4940185546875;16.78983234645556;12.309381517518844;16.565268194171324;-0.93310546875;0.16796875;0.09130859375;12.875;-4.0;-8.0625;
1441975582464339;0.4052734375;-0.54150390625;-0.54412841796875;-0.49652099609375;16.81525160654124;12.275163937811303;16.5198405670646;-0.9541015625;0.1640625;0.07470703125;11.75;-3.9375;-11.1875;
1441975582479340;0.4058837890625;-0.54071044921875;-0.5421142578125;-0.49908447265625;16.843852020795783;12.23174405189266;16.467338277305952;-0.97705078125;0.16064453125;0.0732421875;10.25;-4.1875;-13.625;
1441975582501341;0.40673828125;-0.53973388671875;-0.54010009765625;-0.5015869140625;16.874267299279843;12.184175320334617;16.41209578313841;-0.97607421875;0.15380859375;0.0751953125;8.0625;-4.5625;-15.4375;
1441975582524342;0.4078369140625;-0.53875732421875;-0.53778076171875;-0.5042724609375;16.90903964539364;12.133353000734356;16.352918923734396;-0.97265625;0.1474609375;0.07373046875;6.5625;-4.125;-16.875;
1441975582547344;0.4088134765625;-0.5379638671875;-0.53509521484375;-0.50714111328125;16.945258704197393;12.081454245469764;16.29019807016615;-0.97314453125;0.12548828125;0.0703125;7.4375;-3.25;-17.9375;
1441975582561344;0.409423828125;-0.53753662109375;-0.53216552734375;-0.51019287109375;16.979750892606564;12.030654628428726;16.2252425033298;-0.9794921875;0.10888671875;0.083984375;9.75;-2.25;-17.9375;
1441975582584346;0.4100341796875;-0.53729248046875;-0.52935791015625;-0.51287841796875;17.011921104960887;11.98751319905127;16.168819539930055;-0.98974609375;0.10791015625;0.08154296875;13.4375;-2.375;-17.75;
1441975582600347;0.41082763671875;-0.53692626953125;-0.527099609375;-0.51495361328125;17.040107169862278;11.948949790421038;16.12118528196888;-0.98876953125;0.11279296875;0.0751953125;12.375;-1.5;-16.4375;
1441975582621348;0.412109375;-0.53619384765625;-0.52545166015625;-0.516357421875;17.066643236644403;11.911695582910777;16.08100381038977;-0.98291015625;0.1162109375;0.06640625;8.25;-0.6875;-14.375;
1441975582645349;0.41363525390625;-0.53515625;-0.52435302734375;-0.517333984375;17.09039770625485;11.871838668244573;16.04260846050035;-0.98095703125;0.10693359375;0.0693359375;2.125;-0.0625;-12.75;
1441975582659350;0.4150390625;-0.5343017578125;-0.52362060546875;-0.51788330078125;17.109334859123532;11.843107945005285;16.016739488477487;-0.97216796875;0.09326171875;0.07958984375;-1.5;0.75;-10.625;
1441975582681351;0.41632080078125;-0.53363037109375;-0.523193359375;-0.51800537109375;17.124032535637635;11.827037820280806;16.00474583920019;-0.96142578125;0.10302734375;0.08154296875;-3.0;1.6875;-8.6875;
1441975582704353;0.4176025390625;-0.53302001953125;-0.52301025390625;-0.51776123046875;17.136228255182907;11.820170368152203;16.003519836487456;-0.9619140625;0.119140625;0.0810546875;-4.25;2.5;-6.9375;
1441975582719353;0.4189453125;-0.53240966796875;-0.5230712890625;-0.5172119140625;17.146592078678726;11.81982936001636;16.010570239133276;-0.96240234375;0.12939453125;0.07421875;-5.9375;2.5;-5.5625;
1441975582741355;0.42034912109375;-0.53167724609375;-0.5233154296875;-0.5166015625;17.156068340877944;11.81680213111018;16.016168397972212;-0.96630859375;0.12939453125;0.0634765625;-7.4375;2.625;-4.375;
1441975582764356;0.4215087890625;-0.53106689453125;-0.5235595703125;-0.51593017578125;17.163308428961138;11.818301146577838;16.025389266562758;-0.97900390625;0.1123046875;0.06396484375;-8.5;2.25;-3.125;
1441975582778357;0.42230224609375;-0.53070068359375;-0.52392578125;-0.51531982421875;17.166461870661173;11.823702201880225;16.036945150098656;-0.978515625;0.10595703125;0.06494140625;-7.75;2.0625;-1.4375;
1441975582801358;0.4228515625;-0.53045654296875;-0.52435302734375;-0.51470947265625;17.16700164949385;11.831675357451783;16.050188580439958;-0.9765625;0.10986328125;0.07568359375;-6.25;2.125;0.1875;
1441975582824359;0.4232177734375;-0.5303955078125;-0.52471923828125;-0.51409912109375;17.16630640193349;11.844784439711777;16.06733356684413;-0.98095703125;0.103515625;0.0791015625;-5.0;1.75;1.9375;
1441975582839360;0.42333984375;-0.5302734375;-0.52545166015625;-0.513427734375;17.160717562773367;11.854751483886306;16.082036996663472;-0.99169921875;0.09228515625;0.0693359375;-3.875;0.8125;3.625;
1441975582861362;0.42327880859375;-0.5302734375;-0.5264892578125;-0.51239013671875;17.150500535291517;11.874974561164752;16.108030957050033;-0.98779296875;0.0830078125;0.07666015625;-4.3125;0.4375;6.1875;
1441975582884363;0.423095703125;-0.53021240234375;-0.52783203125;-0.51123046875;17.136738620965918;11.893686557441223;16.133565688636434;-0.984375;0.08837890625;0.080078125;-5.3125;0.125;8.75;
1441975582907364;0.4227294921875;-0.5301513671875;-0.52935791015625;-0.50994873046875;17.11978223143353;11.912907344340525;16.159945259041383;-0.994140625;0.0810546875;0.0791015625;-6.3125;-0.3125;10.875;
1441975582921365;0.4222412109375;-0.53021240234375;-0.53118896484375;-0.5084228515625;17.09883257778616;11.937955391364461;16.193037856037563;-0.9892578125;0.07763671875;0.08447265625;-6.625;-0.8125;13.1875;
1441975582944366;0.421630859375;-0.53021240234375;-0.53326416015625;-0.50677490234375;17.07476777714213;11.96085491537334;16.22485296571288;-0.984375;0.08056640625;0.08544921875;-7.3125;-1.0625;15.125;
1441975582959367;0.42083740234375;-0.5302734375;-0.53533935546875;-0.50518798828125;17.049158758726445;11.981848678052959;16.25388159447382;-0.97998046875;0.0830078125;0.08642578125;-8.25;-1.4375;16.6875;
1441975582983368;0.419921875;-0.53045654296875;-0.537353515625;-0.50360107421875;17.022759943498027;12.004479936417107;16.28366708129147;-0.98095703125;0.08349609375;0.08544921875;-7.3125;-2.0625;17.4375;
1441975583005370;0.41900634765625;-0.530517578125;-0.53948974609375;-0.50201416015625;16.995549469836792;12.021980345751224;16.309026191324797;-0.99462890625;0.091796875;0.08154296875;-6.5;-2.75;17.625;
1441975583018370;0.41815185546875;-0.530517578125;-0.54156494140625;-0.50042724609375;16.969329374528794;12.037581271797364;16.33265819497396;-0.99853515625;0.1044921875;0.0791015625;-7.375;-3.4375;17.3125;
1441975583041372;0.417236328125;-0.530517578125;-0.5435791015625;-0.49908447265625;16.943612487130725;12.047519426682424;16.349590337412938;-0.9931640625;0.10595703125;0.07958984375;-7.3125;-3.5;17.0625;
1441975583064373;0.41632080078125;-0.5306396484375;-0.545166015625;-0.49798583984375;16.921441376962708;12.05767494776842;16.36445448676699;-0.982421875;0.11376953125;0.09130859375;-6.375;-3.4375;16.0;
1441975583078374;0.4154052734375;-0.53070068359375;-0.54638671875;-0.497314453125;16.903103864986566;12.060297694959086;16.369680893083853;-0.984375;0.119140625;0.0830078125;-4.1875;-3.5;13.9375;
1441975583102375;0.41448974609375;-0.53082275390625;-0.54736328125;-0.49688720703125;16.887081448795815;12.061139633727912;16.371552918299006;-0.986328125;0.115234375;0.08154296875;-2.625;-4.1875;12.0625;
1441975583132377;0.4136962890625;-0.5308837890625;-0.54791259765625;-0.496826171875;16.876213353214624;12.057075007485764;16.366762647835795;-0.9853515625;0.12353515625;0.08056640625;-0.6875;-4.375;10.5;
1441975583139377;0.412841796875;-0.53094482421875;-0.54840087890625;-0.49700927734375;16.865897785541215;12.048762642296872;16.356682544885103;-0.98779296875;0.11181640625;0.0732421875;0.5625;-5.0625;8.3125;
1441975583162379;0.41204833984375;-0.53082275390625;-0.548583984375;-0.49755859375;16.859467730051296;12.032152607890376;16.33706933518413;-0.98681640625;0.123046875;0.07421875;1.6875;-5.75;6.8125;
1441975583185380;0.4111328125;-0.531005859375;-0.5482177734375;-0.49853515625;16.856634508434404;12.01735011200152;16.315230146031663;-0.98828125;0.11767578125;0.0771484375;3.0625;-6.4375;4.875;
1441975583200381;0.41009521484375;-0.531005859375;-0.5477294921875;-0.4998779296875;16.854716002452353;11.992388832071947;16.281996235527863;-1.00341796875;0.123046875;0.064453125;6.1875;-7.125;2.75;
1441975583231383;0.408935546875;-0.53106689453125;-0.547119140625;-0.50146484375;16.85303991569271;11.964684798627625;16.24444524360682;-0.9892578125;0.11181640625;0.07275390625;7.6875;-8.0;1.625;
1441975583252384;0.40765380859375;-0.531494140625;-0.54608154296875;-0.50323486328125;16.853362296713964;11.94352769230137;16.210280834299176;-0.9677734375;0.111328125;0.091796875;9.625;-7.5;0.875;
1441975583259384;0.4063720703125;-0.531982421875;-0.54486083984375;-0.5050048828125;16.85487567691185;11.924642353381829;16.177671647739558;-0.96728515625;0.11865234375;0.08642578125;12.3125;-6.875;-0.3125;
1441975583290386;0.4053955078125;-0.5321044921875;-0.54388427734375;-0.5067138671875;16.857278058117313;11.898398483826666;16.1405280150371;-0.9677734375;0.125;0.080078125;12.9375;-6.6875;-1.3125;
1441975583304387;0.40460205078125;-0.531982421875;-0.54339599609375;-0.50799560546875;16.856833936396598;11.872713362896285;16.10780530109396;-0.96142578125;0.1201171875;0.087890625;10.4375;-6.5625;-1.5625;
1441975583327388;0.40411376953125;-0.5316162109375;-0.543212890625;-0.509033203125;16.856313641745174;11.845465818292746;16.07669611552474;-0.94580078125;0.12353515625;0.0966796875;6.3125;-6.1875;-1.0;
1441975583341389;0.404052734375;-0.53118896484375;-0.5430908203125;-0.5096435546875;16.858120250580114;11.825337538664355;16.055514703347562;-0.927734375;0.1240234375;0.1015625;3.5;-5.25;-0.875;
1441975583364390;0.40435791015625;-0.530517578125;-0.543212890625;-0.5098876953125;16.86066459413533;11.806217693568795;16.038852195791403;-0.93505859375;0.1396484375;0.0947265625;0.9375;-3.875;-1.8125;
1441975583388392;0.4052734375;-0.52947998046875;-0.54376220703125;-0.509765625;16.864753596685546;11.784979693711358;16.02520216826926;-0.943359375;0.15869140625;0.09130859375;-3.0625;-2.875;-3.0;
1441975583401392;0.40667724609375;-0.52801513671875;-0.5443115234375;-0.509521484375;16.872973247033613;11.757251684757051;16.008036913936582;-0.93310546875;0.16845703125;0.087890625;-8.5;-2.3125;-4.25;
1441975583424394;0.40826416015625;-0.526611328125;-0.5445556640625;-0.50946044921875;16.8852337057817;11.728464775346943;15.988773351672862;-0.92529296875;0.14599609375;0.08984375;-10.9375;-1.5;-4.875;
1441975583440395;0.40972900390625;-0.52545166015625;-0.54437255859375;-0.5096435546875;16.899851388594207;11.701394230344203;15.968233158990188;-0.92919921875;0.123046875;0.087890625;-9.875;-1.0;-5.6875;
1441975583461396;0.41119384765625;-0.52459716796875;-0.54388427734375;-0.5098876953125;16.916672866130465;11.68056420804384;15.95200861479535;-0.94384765625;0.11962890625;0.08642578125;-7.0625;-0.3125;-6.0625;
1441975583483397;0.41253662109375;-0.52392578125;-0.54327392578125;-0.5101318359375;16.933270606669428;11.66373982497291;15.938553134771327;-0.96533203125;0.1142578125;0.07568359375;-4.875;0.125;-6.125;
1441975583498398;0.41357421875;-0.5233154296875;-0.5426025390625;-0.5106201171875;16.948005603169406;11.642844778664324;15.919089301544638;-0.984375;0.10791015625;0.072265625;-3.8125;0.0;-5.5;
1441975583521399;0.414306640625;-0.5230712890625;-0.54168701171875;-0.51129150390625;16.962084187084667;11.626917585421817;15.901435225005233;-0.99609375;0.0947265625;0.0791015625;-1.5625;-0.4375;-4.4375;
1441975583545401;0.41455078125;-0.523193359375;-0.54058837890625;-0.5120849609375;16.97343108580184;11.617120401551137;15.886557869401116;-1.01708984375;0.08837890625;0.0810546875;1.25;-0.6875;-3.4375;
1441975583567402;0.41436767578125;-0.5238037109375;-0.53936767578125;-0.51287841796875;16.981960772456276;11.619070059969953;15.880439117327315;-1.00927734375;0.0810546875;0.0849609375;5.3125;-0.375;-1.9375;
1441975583581403;0.41375732421875;-0.52471923828125;-0.538330078125;-0.5135498046875;16.985260538247402;11.630144268768527;15.88221069672444;-0.9912109375;0.08935546875;0.09375;8.25;0.5;-0.25;
1441975583603404;0.4130859375;-0.52557373046875;-0.53765869140625;-0.51397705078125;16.984974270607403;11.643662418560519;15.888180493470333;-0.9814453125;0.09765625;0.10205078125;9.625;1.0625;1.5625;
1441975583621405;0.41253662109375;-0.52618408203125;-0.53753662109375;-0.51385498046875;16.98091131840887;11.661069903999154;15.902232515609906;-0.97216796875;0.10498046875;0.10205078125;7.625;0.5;3.0625;
1441975583641406;0.41229248046875;-0.52655029296875;-0.537841796875;-0.51336669921875;16.975767002729118;11.678884914318306;15.920565706022069;-0.95751953125;0.12109375;0.10693359375;3.6875;0.8125;4.1875;
1441975583664407;0.412353515625;-0.526611328125;-0.53839111328125;-0.51263427734375;16.971101304754608;11.693722576952606;15.939078445652639;-0.95849609375;0.13232421875;0.103515625;-0.125;1.3125;4.375;
1441975583687409;0.41259765625;-0.5264892578125;-0.53912353515625;-0.51190185546875;16.966653763723837;11.703518499603451;15.954151423395327;-0.94775390625;0.12939453125;0.1044921875;-3.5;1.375;4.375;
1441975583701410;0.412841796875;-0.5264892578125;-0.53955078125;-0.51123046875;16.964522297360965;11.716089936893027;15.970581529870405;-0.94140625;0.138671875;0.11572265625;-4.75;1.875;3.5;
1441975583724411;0.4132080078125;-0.52642822265625;-0.5399169921875;-0.51055908203125;16.963889662857685;11.727579508168152;15.9862808124806;-0.9453125;0.1474609375;0.10986328125;-3.75;2.4375;2.0625;
1441975583747412;0.4139404296875;-0.52606201171875;-0.54022216796875;-0.510009765625;16.967146325477643;11.73004924666696;15.99437834354214;-0.95068359375;0.16162109375;0.10400390625;-4.125;2.375;0.4375;
1441975583761413;0.4149169921875;-0.5255126953125;-0.54022216796875;-0.509765625;16.97533089549599;11.723421106069255;15.992858573919232;-0.94775390625;0.1494140625;0.103515625;-5.375;2.25;-1.375;
1441975583783414;0.41571044921875;-0.52508544921875;-0.53997802734375;-0.5098876953125;16.98429356891788;11.712667890559347;15.984589090829157;-0.9541015625;0.1318359375;0.10107421875;-5.0625;2.125;-2.75;
1441975583799415;0.41632080078125;-0.5247802734375;-0.53948974609375;-0.5101318359375;16.99365502228675;11.702888265120816;15.975342621295393;-0.95166015625;0.12451171875;0.103515625;-2.625;1.9375;-3.625;
1441975583821416;0.41680908203125;-0.52459716796875;-0.53900146484375;-0.510498046875;17.002095196916308;11.693122662975929;15.965071802541875;-0.9609375;0.12939453125;0.10302734375;-0.5625;1.375;-4.1875;
1441975583844418;0.417236328125;-0.52435302734375;-0.53839111328125;-0.51104736328125;17.011205141090098;11.67808571801329;15.948645936707257;-0.9677734375;0.13037109375;0.0966796875;0.4375;0.9375;-4.1875;
1441975583859419;0.41754150390625;-0.52410888671875;-0.53778076171875;-0.51171875;17.01941104495726;11.659930824407656;15.928400942524384;-0.97265625;0.12060546875;0.1025390625;1.0625;0.5;-4.0625;
1441975583881420;0.41754150390625;-0.524169921875;-0.53717041015625;-0.51226806640625;17.02473479027302;11.651600759527893;15.916564097306727;-0.97802734375;0.109375;0.10498046875;2.1875;-0.125;-3.5625;
1441975583904421;0.41741943359375;-0.524169921875;-0.53668212890625;-0.5128173828125;17.028100782664264;11.641065845469573;15.902690606534671;-0.966796875;0.1162109375;0.10107421875;3.375;-0.0625;-2.5625;
1441975583918422;0.4173583984375;-0.5242919921875;-0.53643798828125;-0.5130615234375;17.029708651392077;11.639531456501391;15.89923495492966;-0.96728515625;0.119140625;0.10986328125;3.3125;-0.125;-1.875;
1441975583941423;0.41748046875;-0.52410888671875;-0.5364990234375;-0.51300048828125;17.03025314493701;11.636146224886799;15.89706966327916;-0.96142578125;0.13525390625;0.10546875;1.5625;0.25;-1.25;
1441975583965425;0.41790771484375;-0.5238037109375;-0.53668212890625;-0.5128173828125;17.03234402001904;11.632186809741748;15.896280702973979;-0.970703125;0.13916015625;0.1044921875;-1.125;0.25;-1.0;
1441975583978425;0.41827392578125;-0.52337646484375;-0.53692626953125;-0.5126953125;17.03355601727474;11.62348054647758;15.89091285438956;-0.9755859375;0.1337890625;0.09765625;-3.3125;0.1875;-1.0;
1441975584001427;0.4185791015625;-0.52313232421875;-0.53704833984375;-0.51263427734375;17.035204595638067;11.618424173915344;15.887974585716169;-0.9677734375;0.12939453125;0.1142578125;-3.3125;0.5625;-1.0625;
1441975584025428;0.41876220703125;-0.5230712890625;-0.537109375;-0.51251220703125;17.036163760135675;11.61953268407263;15.89031739610107;-0.9599609375;0.13134765625;0.10888671875;-1.875;0.875;-1.125;
1441975584041429;0.419189453125;-0.52276611328125;-0.537353515625;-0.51214599609375;17.037566678019786;11.619464986422912;15.894106890339762;-0.97607421875;0.1484375;0.10888671875;-1.5;0.9375;-1.5625;
1441975584061430;0.41998291015625;-0.52215576171875;-0.53765869140625;-0.5118408203125;17.04176180661453;11.610250482384926;15.890698723320599;-0.98486328125;0.15478515625;0.0986328125;-4.0;0.8125;-1.875;
1441975584092432;0.42059326171875;-0.5216064453125;-0.5377197265625;-0.5118408203125;17.046595029662548;11.596321562566075;15.880289698879661;-0.9736328125;0.1376953125;0.099609375;-5.9375;0.4375;-2.5625;
1441975584099432;0.42083740234375;-0.521484375;-0.5374755859375;-0.51202392578125;17.050756464078162;11.589953960236453;15.873753388971819;-0.96875;0.1171875;0.10595703125;-3.6875;0.5;-2.125;
1441975584121434;0.42083740234375;-0.52142333984375;-0.53741455078125;-0.5120849609375;17.0512991014296;11.58718538891084;15.870802872622223;-0.96484375;0.11279296875;0.0986328125;0.3125;0.3125;-1.625;
1441975584144435;0.42083740234375;-0.52142333984375;-0.5374755859375;-0.5120849609375;17.05083563926852;11.586975096301401;15.870774525036769;-0.9599609375;0.115234375;0.10302734375;0.875;-0.1875;-0.625;
1441975584158436;0.4208984375;-0.52117919921875;-0.53778076171875;-0.51190185546875;17.048866594378655;11.583876179437896;15.869948265273546;-0.955078125;0.123046875;0.1064453125;-0.625;-0.6875;0.5;
1441975584181437;0.4207763671875;-0.52099609375;-0.53826904296875;-0.51171875;17.04394067946761;11.581650296950901;15.869826390029983;-0.955078125;0.1181640625;0.1015625;-2.3125;-0.8125;1.1875;
1441975584204438;0.4205322265625;-0.52105712890625;-0.53857421875;-0.511474609375;17.039260095632464;11.587619323723816;15.876483836991586;-0.94482421875;0.12646484375;0.10595703125;-2.0625;-0.8125;1.75;
1441975584219439;0.42047119140625;-0.52117919921875;-0.538818359375;-0.51116943359375;17.03651307133192;11.596769307560667;15.88668591971239;-0.95947265625;0.1455078125;0.10400390625;-0.8125;-0.3125;1.3125;
1441975584242440;0.420654296875;-0.52105712890625;-0.53912353515625;-0.5108642578125;17.03541869716766;11.599598924800627;15.892152197815085;-0.96923828125;0.1484375;0.087890625;-1.3125;-0.375;0.6875;
1441975584272442;0.42083740234375;-0.5208740234375;-0.53924560546875;-0.5107421875;17.035941216870842;11.597382377916457;15.891689185379445;-0.9736328125;0.13720703125;0.09326171875;-2.5625;-0.4375;0.375;
1441975584288443;0.4208984375;-0.5208740234375;-0.53924560546875;-0.5107421875;17.036460515685352;11.597417056111578;15.891905511597717;-0.97802734375;0.12060546875;0.0966796875;-1.9375;-0.25;0.4375;
1441975584301444;0.42083740234375;-0.52093505859375;-0.53924560546875;-0.51068115234375;17.035856687479704;11.600314044150245;15.894620851613228;-0.98095703125;0.11669921875;0.09912109375;-0.375;-0.1875;0.875;
1441975584332446;0.4207763671875;-0.5208740234375;-0.53948974609375;-0.51055908203125;17.03335306256447;11.600616886465293;15.89597583312255;-0.98095703125;0.1171875;0.09765625;0.1875;-0.25;1.3125;
1441975584340446;0.4207763671875;-0.52081298828125;-0.539794921875;-0.51025390625;17.030685173269724;11.60485366849903;15.902135365750485;-0.97314453125;0.115234375;0.107421875;-0.75;-0.0625;2.125;
1441975584361447;0.4207763671875;-0.52081298828125;-0.540283203125;-0.509765625;17.0263868158503;11.614030411586285;15.914118033167266;-0.96923828125;0.119140625;0.107421875;-1.6875;0.3125;2.625;
1441975584384449;0.42108154296875;-0.52069091796875;-0.54083251953125;-0.509033203125;17.02393042169545;11.625511053836112;15.930509273025443;-0.96240234375;0.12939453125;0.107421875;-2.8125;0.75;2.75;
1441975584401450;0.42156982421875;-0.52044677734375;-0.54150390625;-0.5081787109375;17.021962944678673;11.636277085245908;15.947770519580796;-0.958984375;0.1376953125;0.09716796875;-4.625;1.25;2.4375;
1441975584421451;0.42218017578125;-0.52008056640625;-0.5421142578125;-0.5074462890625;17.02168064872307;11.641593117476924;15.959762821031742;-0.9599609375;0.13916015625;0.1005859375;-6.375;1.625;1.8125;
1441975584452453;0.42291259765625;-0.5196533203125;-0.54254150390625;-0.5068359375;17.024000461190234;11.643527749834538;15.968022606793998;-0.95751953125;0.1337890625;0.10595703125;-6.5625;1.9375;1.0;
1441975584460453;0.423583984375;-0.519287109375;-0.54290771484375;-0.5062255859375;17.026237795171287;11.647200457881628;15.977488736714761;-0.955078125;0.12548828125;0.10009765625;-6.1875;1.875;0.4375;
1441975584489455;0.42431640625;-0.518798828125;-0.543212890625;-0.50567626953125;17.029583385814238;11.646785035557352;15.983037119816611;-0.966796875;0.1298828125;0.1005859375;-5.6875;1.875;0.125;
1441975584503455;0.4251708984375;-0.518310546875;-0.54364013671875;-0.505126953125;17.03304422753623;11.64602696993018;15.988964143235263;-0.9765625;0.12548828125;0.09716796875;-5.8125;1.6875;-0.25;
1441975584521456;0.42584228515625;-0.51788330078125;-0.5439453125;-0.504638671875;17.03593276514562;11.645744468626237;15.994123864727017;-0.970703125;0.12353515625;0.1005859375;-6.5625;1.875;-0.3125;
1441975584549458;0.4266357421875;-0.51739501953125;-0.544189453125;-0.50421142578125;17.04042947782224;11.64294711233574;15.996948550401155;-0.98486328125;0.1279296875;0.1005859375;-5.5;1.5;-0.5;
1441975584565459;0.4273681640625;-0.5167236328125;-0.54473876953125;-0.503662109375;17.042007636089295;11.636901384645668;15.998098826055488;-0.99755859375;0.123046875;0.09375;-5.625;1.1875;-0.3125;
1441975584586460;0.4281005859375;-0.5159912109375;-0.5452880859375;-0.503173828125;17.043694306890576;11.627898996437807;15.996292438303698;-0.9736328125;0.1142578125;0.10107421875;-7.1875;0.75;0.5;
1441975584601461;0.42828369140625;-0.51568603515625;-0.5457763671875;-0.5028076171875;17.041176663190377;11.62663576910099;15.998888371412958;-0.96435546875;0.09814453125;0.10693359375;-6.75;0.5625;1.125;
1441975584623462;0.4283447265625;-0.515625;-0.54632568359375;-0.50225830078125;17.03680890858842;11.635308784272503;16.011069814957775;-0.95947265625;0.1083984375;0.11279296875;-3.5;0.8125;2.5;
1441975584649464;0.42852783203125;-0.51519775390625;-0.54718017578125;-0.50152587890625;17.031062242867396;11.637615143305949;16.01968435534139;-0.955078125;0.1279296875;0.10107421875;-3.4375;0.25;2.875;
1441975584669465;0.428955078125;-0.5146484375;-0.54815673828125;-0.500732421875;17.026432810745142;11.637954464834072;16.027922186407856;-0.96044921875;0.13623046875;0.1025390625;-6.25;-0.25;2.9375;
1441975584684466;0.429443359375;-0.51409912109375;-0.54888916015625;-0.5001220703125;17.024426091358265;11.635301356744614;16.03211482258036;-0.96337890625;0.12841796875;0.099609375;-7.875;-0.1875;2.75;
1441975584706467;0.4295654296875;-0.513671875;-0.5494384765625;-0.49981689453125;17.02107199511059;11.6292279611537;16.03007377615461;-0.9736328125;0.11474609375;0.1025390625;-6.5625;-0.3125;2.375;
1441975584721468;0.4295654296875;-0.51348876953125;-0.5498046875;-0.49951171875;17.017954839582274;11.62987745898586;16.033173795972203;-0.9658203125;0.11376953125;0.103515625;-4.0;-1.0;2.5;
1441975584743469;0.42962646484375;-0.5133056640625;-0.55029296875;-0.49920654296875;17.014436376583664;11.630080469967833;16.03636273438211;-0.96728515625;0.1201171875;0.095703125;-2.5;-0.9375;2.4375;
1441975584767471;0.4296875;-0.51300048828125;-0.55078125;-0.4989013671875;17.010971392041046;11.62724971198064;16.0368631708015;-0.97216796875;0.1201171875;0.09521484375;-2.9375;-1.375;2.625;
1441975584781471;0.4296875;-0.51275634765625;-0.5511474609375;-0.498779296875;17.00814249923473;11.622363330707874;16.034082546403674;-0.970703125;0.1171875;0.095703125;-3.25;-1.5;2.625;
1441975584803473;0.429443359375;-0.51275634765625;-0.55133056640625;-0.49871826171875;17.004599420621002;11.622641365379275;16.03435517273516;-0.97509765625;0.10205078125;0.09521484375;-2.0;-1.75;3.0;
1441975584826474;0.42901611328125;-0.51300048828125;-0.551513671875;-0.49871826171875;16.99948242760782;11.627355075443688;16.03766495622223;-0.9736328125;0.099609375;0.09375;-0.0625;-1.875;3.75;
1441975584841475;0.4283447265625;-0.5133056640625;-0.5516357421875;-0.498779296875;16.992807733706325;11.632151011007819;16.039820074046585;-0.96533203125;0.1083984375;0.09228515625;1.75;-1.875;4.3125;
1441975584863476;0.42767333984375;-0.51373291015625;-0.5516357421875;-0.4989013671875;16.987084739135742;11.639060887149279;16.043214038788317;-0.97705078125;0.11474609375;0.0986328125;2.6875;-2.0;4.375;
1441975584886477;0.42681884765625;-0.5142822265625;-0.55145263671875;-0.499267578125;16.981483660271806;11.644200954042283;16.04273163285662;-0.97314453125;0.11181640625;0.09375;3.6875;-2.1875;4.4375;
1441975584901478;0.42578125;-0.51507568359375;-0.551025390625;-0.4998779296875;16.976411928302962;11.650797443760853;16.04107573678271;-0.9697265625;0.1083984375;0.0966796875;5.5;-2.5;4.1875;
1441975584923479;0.42474365234375;-0.51605224609375;-0.55029296875;-0.50054931640625;16.973640676317675;11.66174346152806;16.04218610023766;-0.98681640625;0.11865234375;0.1005859375;8.375;-2.0;3.375;
1441975584955481;0.42376708984375;-0.51678466796875;-0.549560546875;-0.50140380859375;16.97177938613133;11.663071040209733;16.03402854051321;-0.9990234375;0.126953125;0.09423828125;9.8125;-1.9375;2.4375;
1441975584961482;0.4227294921875;-0.51751708984375;-0.548828125;-0.5023193359375;16.96949101086735;11.663054439059149;16.02417533442322;-0.98876953125;0.11083984375;0.10498046875;9.5;-1.9375;2.125;
1441975584983483;0.42169189453125;-0.51837158203125;-0.548095703125;-0.50311279296875;16.96696837248635;11.668514751802517;16.019798655127083;-0.97265625;0.1083984375;0.11572265625;10.0;-1.4375;2.0625;
1441975585006484;0.42095947265625;-0.518798828125;-0.5478515625;-0.5035400390625;16.963018369426955;11.669840236635032;16.01584980281408;-0.962890625;0.13134765625;0.10791015625;9.875;-1.125;1.3125;
1441975585021485;0.4207763671875;-0.5186767578125;-0.548095703125;-0.50360107421875;16.959768458809826;11.664462774427076;16.010823347543635;-0.96044921875;0.15869140625;0.11279296875;5.125;-1.1875;0.0625;
1441975585043486;0.42132568359375;-0.5179443359375;-0.5484619140625;-0.50341796875;16.96172326206987;11.650099603877683;16.001725418006682;-0.95458984375;0.17919921875;0.1201171875;-0.625;-0.625;-2.0;
1441975585066488;0.42242431640625;-0.516845703125;-0.54876708984375;-0.50335693359375;16.969099813617238;11.625192657137424;15.984207507433206;-0.9453125;0.1748046875;0.10986328125;-5.75;-0.25;-4.5625;
1441975585082489;0.423828125;-0.51568603515625;-0.5487060546875;-0.50347900390625;16.982039021278833;11.596211054474335;15.962091233610803;-0.953125;0.1669921875;0.1171875;-7.625;0.5;-7.0625;
1441975585103490;0.425537109375;-0.514404296875;-0.54852294921875;-0.50347900390625;16.998296089945452;11.56683955467217;15.94080776622082;-0.95849609375;0.1669921875;0.1162109375;-7.375;1.5;-9.5625;
1441975585135492;0.42755126953125;-0.51287841796875;-0.54833984375;-0.5035400390625;17.017179630312135;11.529309407209205;15.91277503001607;-0.94775390625;0.16064453125;0.10888671875;-8.625;2.375;-11.0;
1441975585149492;0.42974853515625;-0.51116943359375;-0.54827880859375;-0.50341796875;17.036388860391906;11.489637398193839;15.884524151913917;-0.9541015625;0.14697265625;0.115234375;-9.875;2.875;-11.5625;
1441975585163493;0.4320068359375;-0.50927734375;-0.548583984375;-0.503173828125;17.053079662945674;11.445644144761644;15.854060113266723;-0.96142578125;0.13671875;0.1025390625;-12.125;2.1875;-11.4375;
1441975585186494;0.43438720703125;-0.5072021484375;-0.54901123046875;-0.502685546875;17.069500439963328;11.40089331792901;15.824756063255636;-0.96826171875;0.134765625;0.10107421875;-14.25;1.4375;-10.625;
1441975585202495;0.43646240234375;-0.50537109375;-0.54949951171875;-0.502197265625;17.082760937276788;11.361463889768729;15.799367533723762;-0.962890625;0.11279296875;0.09912109375;-15.625;1.25;-8.9375;
1441975585223497;0.43817138671875;-0.50408935546875;-0.54986572265625;-0.5015869140625;17.09380557272022;11.339518305344939;15.788827816277202;-0.95703125;0.10302734375;0.1044921875;-14.5;1.4375;-7.125;
1441975585246498;0.439697265625;-0.5028076171875;-0.55059814453125;-0.500732421875;17.100324044780056;11.32263005246474;15.784570232827418;-0.96826171875;0.115234375;0.0888671875;-11.75;1.4375;-5.25;
1441975585262499;0.44134521484375;-0.5013427734375;-0.55181884765625;-0.49945068359375;17.103842734626014;11.310022016087231;15.788099283562719;-0.97607421875;0.12353515625;0.09521484375;-12.75;0.8125;-3.6875;
1441975585283500;0.44293212890625;-0.49981689453125;-0.55328369140625;-0.49798583984375;17.104858009716047;11.299810758519587;15.795250948440499;-0.98095703125;0.12255859375;0.09033203125;-16.3125;0.4375;-1.8125;
1441975585306501;0.4443359375;-0.49859619140625;-0.554443359375;-0.49658203125;17.106777964751387;11.2972250478012;15.80757261679945;-0.9736328125;0.1142578125;0.09814453125;-17.6875;0.6875;-0.0625;
1441975585322502;0.44537353515625;-0.497802734375;-0.555419921875;-0.49542236328125;17.107244048018064;11.301084144119129;15.822830830813734;-0.982421875;0.111328125;0.0947265625;-14.75;1.0;0.75;
1441975585343503;0.446044921875;-0.4971923828125;-0.55645751953125;-0.4942626953125;17.104159885921536;11.310124495942953;15.841868442747561;-0.98974609375;0.0986328125;0.0869140625;-11.375;0.5;2.25;
1441975585366505;0.4464111328125;-0.4969482421875;-0.55743408203125;-0.49310302734375;17.098986250160127;11.329362107010404;15.868999181820806;-0.97509765625;0.09521484375;0.09521484375;-9.625;0.3125;4.3125;
1441975585382506;0.4464111328125;-0.49688720703125;-0.5584716796875;-0.49188232421875;17.090138132371827;11.354709561450884;15.901016677669517;-0.9736328125;0.09326171875;0.09033203125;-7.5;-0.0625;5.9375;
1441975585404507;0.4461669921875;-0.4969482421875;-0.55963134765625;-0.49072265625;17.07824767661347;11.38097839205821;15.933078381331702;-0.962890625;0.09912109375;0.09130859375;-6.375;-0.375;7.625;
1441975585426508;0.44573974609375;-0.49737548828125;-0.56060791015625;-0.4896240234375;17.066127609268285;11.415221535969808;15.970833133832341;-0.96875;0.10693359375;0.09619140625;-5.625;-0.6875;8.5;
1441975585442509;0.4449462890625;-0.49810791015625;-0.56121826171875;-0.4888916015625;17.05386924920566;11.449058774057201;16.004149171979062;-0.9794921875;0.10693359375;0.09619140625;-2.8125;-0.4375;9.5625;
1441975585463510;0.44384765625;-0.49908447265625;-0.56158447265625;-0.488525390625;17.041106585917877;11.480622604611403;16.03185651683799;-0.98193359375;0.08837890625;0.09716796875;0.9375;-0.625;10.1875;
1441975585494512;0.4422607421875;-0.50048828125;-0.56182861328125;-0.48822021484375;17.02494281306353;11.520801355268436;16.065022640847744;-0.97607421875;0.0791015625;0.09912109375;4.6875;-1.1875;11.3125;
1441975585502513;0.4403076171875;-0.5020751953125;-0.562255859375;-0.4879150390625;17.004050665307822;11.563088215308577;16.099242028727865;-0.96630859375;0.08349609375;0.10107421875;7.625;-1.375;12.8125;
1441975585525514;0.43829345703125;-0.50372314453125;-0.56256103515625;-0.48760986328125;16.9833549686858;11.605712759939761;16.13309656370094;-0.96240234375;0.10302734375;0.109375;8.75;-1.8125;13.5;
1441975585554516;0.436279296875;-0.50537109375;-0.56280517578125;-0.4874267578125;16.963145055480226;11.64456100709268;16.162644186792203;-0.97265625;0.1123046875;0.1083984375;9.4375;-1.75;13.4375;
1441975585562516;0.43414306640625;-0.50689697265625;-0.56292724609375;-0.487548828125;16.943281751806296;11.673426830356433;16.180977527873374;-0.9775390625;0.119140625;0.1083984375;10.0625;-1.9375;13.125;
1441975585583517;0.43194580078125;-0.50860595703125;-0.56298828125;-0.48773193359375;16.92326356726624;11.704555704871426;16.20051646284695;-0.97021484375;0.10302734375;0.11474609375;11.0625;-2.75;12.625;
1441975585606519;0.42987060546875;-0.51025390625;-0.56304931640625;-0.48779296875;16.904026155829975;11.736026993914717;16.221272748541132;-0.955078125;0.125;0.1201171875;12.25;-2.3125;11.8125;
1441975585622519;0.4283447265625;-0.51141357421875;-0.5631103515625;-0.48785400390625;16.889783197136335;11.757051373490862;16.23456602235155;-0.95703125;0.16015625;0.1171875;11.125;-1.5625;9.1875;
1441975585643521;0.42730712890625;-0.5120849609375;-0.56304931640625;-0.48809814453125;16.88133361886706;11.765202752049234;16.236917879251592;-0.96630859375;0.17529296875;0.119140625;7.875;-1.4375;5.9375;
1441975585666522;0.42669677734375;-0.51251220703125;-0.5626220703125;-0.4886474609375;16.880022235358354;11.764945186542587;16.230861873303514;-0.9580078125;0.17626953125;0.1220703125;5.6875;-1.0;2.25;
1441975585682523;0.42645263671875;-0.51287841796875;-0.56170654296875;-0.48956298828125;16.886192495871057;11.759587797555202;16.218479738582595;-0.9619140625;0.16943359375;0.12353515625;6.0;-0.375;-1.0625;
1441975585703524;0.42633056640625;-0.5128173828125;-0.560791015625;-0.49072265625;16.8941799495201;11.740203966291155;16.19294897557407;-0.958984375;0.1494140625;0.1142578125;6.8125;0.0;-3.625;
1441975585726525;0.4266357421875;-0.512451171875;-0.55999755859375;-0.4918212890625;16.904930915744206;11.715053353882583;16.164291383758812;-0.955078125;0.14306640625;0.125;5.9375;-0.1875;-5.5;
1441975585742526;0.427001953125;-0.51190185546875;-0.55926513671875;-0.49285888671875;16.915656405145448;11.686259812568446;16.133042186042072;-0.95654296875;0.142578125;0.12158203125;3.3125;-0.4375;-6.8125;
1441975585772528;0.427490234375;-0.51123046875;-0.55828857421875;-0.49420166015625;16.929675040531606;11.649159224900837;16.092609930072577;-0.95751953125;0.14208984375;0.12451171875;1.9375;-0.625;-7.875;
1441975585786529;0.427734375;-0.5108642578125;-0.5572509765625;-0.49560546875;16.941834327562635;11.61686675846375;16.055056865096414;-0.958984375;0.125;0.1220703125;2.9375;-1.0625;-8.5625;
1441975585804530;0.42816162109375;-0.51055908203125;-0.55615234375;-0.49676513671875;16.9554980983523;11.590656491464522;16.02446315426351;-0.95849609375;0.13720703125;0.125;4.5;-0.8125;-8.75;
1441975585823531;0.42877197265625;-0.510009765625;-0.555419921875;-0.49761962890625;16.967532588155233;11.563085103360851;15.995669022043861;-0.96826171875;0.1494140625;0.109375;3.875;-0.1875;-9.375;
1441975585846532;0.4296875;-0.50909423828125;-0.55474853515625;-0.49847412109375;16.981678192683066;11.525960221853898;15.959427990322451;-0.9716796875;0.16357421875;0.10986328125;0.6875;-0.3125;-10.0625;
1441975585862533;0.43072509765625;-0.508056640625;-0.55401611328125;-0.4993896484375;16.99723186498319;11.483704162603175;15.918406652788914;-0.97705078125;0.15087890625;0.1083984375;-1.8125;-0.75;-10.625;
1441975585883534;0.4315185546875;-0.50738525390625;-0.5531005859375;-0.50048828125;17.012060226266495;11.44577009097333;15.878903186647015;-0.97607421875;0.12939453125;0.11279296875;-1.75;-0.5;-10.5;
1441975585906536;0.43206787109375;-0.5069580078125;-0.55218505859375;-0.50146484375;17.024545335397054;11.415666883597964;15.846174062915384;-0.97119140625;0.125;0.11474609375;0.75;-0.125;-9.9375;
1441975585939538;0.43255615234375;-0.50653076171875;-0.55145263671875;-0.50225830078125;17.034857585928545;11.388521460660089;15.817278313308451;-0.96875;0.12890625;0.1103515625;2.125;-0.125;-8.75;
1441975585943538;0.43304443359375;-0.50616455078125;-0.55084228515625;-0.50286865234375;17.044036361241353;11.366279542677676;15.793988079664764;-0.96923828125;0.12548828125;0.109375;1.375;-0.375;-7.5625;
1441975585966539;0.43328857421875;-0.50579833984375;-0.550537109375;-0.50335693359375;17.048669100094372;11.346051201340742;15.773235630464805;-0.97314453125;0.12451171875;0.0947265625;0.6875;-0.9375;-6.0;
1441975585982540;0.43341064453125;-0.50543212890625;-0.55047607421875;-0.503662109375;17.050244106204385;11.329544414967057;15.75707972499397;-0.97265625;0.11962890625;0.103515625;-0.125;-1.5;-4.375;
1441975586003541;0.43341064453125;-0.50537109375;-0.55047607421875;-0.50384521484375;17.05033048176296;11.32374427785637;15.75093316618922;-0.966796875;0.12158203125;0.109375;-0.375;-1.4375;-2.75;
1441975586026543;0.43328857421875;-0.50543212890625;-0.55047607421875;-0.5037841796875;17.049274353499296;11.326866665323925;15.753700214091335;-0.96630859375;0.130859375;0.10986328125;-0.0625;-0.9375;-1.5625;
1441975586042543;0.4332275390625;-0.5054931640625;-0.550537109375;-0.5037841796875;17.04831108143524;11.328401569533838;15.755061924114084;-0.97509765625;0.14453125;0.10546875;0.25;-0.5;-1.125;
1441975586063545;0.433349609375;-0.50531005859375;-0.55078125;-0.5035400390625;17.047284440429006;11.32870760211668;15.757646441164386;-0.96826171875;0.14306640625;0.11181640625;-1.0;-0.25;-0.8125;
1441975586086546;0.43328857421875;-0.505126953125;-0.55108642578125;-0.50347900390625;17.04433923681028;11.324903556222466;15.755245932819701;-0.95849609375;0.12744140625;0.10498046875;-2.5;-0.6875;-0.25;
1441975586119548;0.43316650390625;-0.50518798828125;-0.55126953125;-0.50335693359375;17.04185294036286;11.32906514361324;15.759758405910741;-0.9638671875;0.119140625;0.1103515625;-1.4375;-1.1875;0.4375;
1441975586123548;0.43280029296875;-0.505126953125;-0.5516357421875;-0.50323486328125;17.035843340107473;11.33000248275626;15.761215755392874;-0.97119140625;0.126953125;0.10009765625;-0.5;-1.375;1.1875;
1441975586146549;0.432373046875;-0.50537109375;-0.5517578125;-0.5032958984375;17.031387830445404;11.335062588790914;15.76452127308856;-0.97265625;0.12646484375;0.1162109375;-0.375;-1.5;1.5;
1441975586170551;0.431640625;-0.5059814453125;-0.55169677734375;-0.5032958984375;17.02579028921056;11.351363872288127;15.776780201916106;-0.97314453125;0.125;0.11767578125;1.5625;-1.0;2.0625;
1441975586185552;0.4310302734375;-0.506591796875;-0.5517578125;-0.503173828125;17.02019884432071;11.369869118408326;15.792300083013924;-0.96533203125;0.13330078125;0.11767578125;4.0625;-0.125;2.375;
1441975586206553;0.43084716796875;-0.5068359375;-0.55218505859375;-0.502685546875;17.01508605404739;11.386035199201373;15.80986996133116;-0.95703125;0.13720703125;0.11328125;3.0625;0.125;2.6875;
1441975586222554;0.43109130859375;-0.506591796875;-0.552978515625;-0.5018310546875;17.010430839585478;11.396850594448416;15.82682493125603;-0.95947265625;0.13720703125;0.10302734375;-1.4375;-0.25;2.9375;
1441975586245555;0.4312744140625;-0.50634765625;-0.5537109375;-0.50103759765625;17.00574594781371;11.406374776521798;15.841960766848596;-0.95849609375;0.12646484375;0.10400390625;-5.8125;0.0;3.4375;
1441975586266556;0.43133544921875;-0.5062255859375;-0.55438232421875;-0.5003662109375;17.000584043614055;11.416329702671705;15.856301396718921;-0.96484375;0.12255859375;0.1103515625;-5.4375;0.125;3.625;
1441975586282557;0.43133544921875;-0.50640869140625;-0.554931640625;-0.49969482421875;16.995830061744627;11.433986821403215;15.876943923690312;-0.96728515625;0.12744140625;0.11376953125;-4.125;0.25;3.375;
1441975586305559;0.431396484375;-0.5064697265625;-0.55548095703125;-0.4989013671875;16.991430754749413;11.451110118578939;15.89792509801968;-0.96875;0.1435546875;0.10791015625;-3.125;0.625;3.125;
1441975586334560;0.4317626953125;-0.50616455078125;-0.5560302734375;-0.49822998046875;16.989732428231267;11.456543460048637;15.908798082317679;-0.966796875;0.15478515625;0.11083984375;-3.75;1.0625;2.0625;
1441975586342561;0.43231201171875;-0.50567626953125;-0.556640625;-0.4976806640625;16.989262281810543;11.454693883133785;15.91327004768307;-0.97216796875;0.1416015625;0.111328125;-5.1875;0.75;1.375;
1441975586365562;0.43267822265625;-0.50518798828125;-0.55718994140625;-0.49713134765625;16.987687493248572;11.453015340626143;15.917205944693787;-0.966796875;0.11962890625;0.1142578125;-6.375;0.5625;1.4375;
1441975586389563;0.4329833984375;-0.5050048828125;-0.5577392578125;-0.4964599609375;16.985454461991356;11.46135968502857;15.930465201378171;-0.96533203125;0.11669921875;0.12451171875;-5.5625;0.875;1.9375;
1441975586402564;0.433349609375;-0.5047607421875;-0.55828857421875;-0.49578857421875;16.98373438350335;11.468189067219239;15.94256061127819;-0.96728515625;0.1279296875;0.11376953125;-4.625;0.875;2.375;
1441975586425565;0.43365478515625;-0.50445556640625;-0.55889892578125;-0.49505615234375;16.980959467940313;11.474602763853516;15.954590225394693;-0.9677734375;0.12841796875;0.10791015625;-4.875;0.75;2.4375;
1441975586454567;0.43389892578125;-0.504150390625;-0.5594482421875;-0.49462890625;16.97845804686606;11.474658175267447;15.959034805255623;-0.962890625;0.1220703125;0.10986328125;-5.5625;0.5;2.8125;
1441975586462567;0.433837890625;-0.5042724609375;-0.5596923828125;-0.49432373046875;16.97573584886833;11.483275155333025;15.968705041516039;-0.96240234375;0.1103515625;0.1181640625;-4.125;0.25;3.125;
1441975586485569;0.43365478515625;-0.50445556640625;-0.55987548828125;-0.49407958984375;16.972481668470937;11.49216923045277;15.97777421839727;-0.96337890625;0.1142578125;0.10986328125;-1.0;0.1875;3.0;
1441975586506570;0.43353271484375;-0.50445556640625;-0.5601806640625;-0.4937744140625;16.968778027542072;11.497534014803438;15.98454259300583;-0.97998046875;0.1298828125;0.111328125;0.125;-0.125;2.8125;
1441975586522571;0.43353271484375;-0.50433349609375;-0.56048583984375;-0.49359130859375;16.966281954907565;11.497447086841722;15.98621125773181;-0.9794921875;0.13232421875;0.11181640625;-1.25;-0.4375;2.375;
1441975586545572;0.43341064453125;-0.5042724609375;-0.5606689453125;-0.4935302734375;16.96379635160854;11.496606726920053;15.98589724789437;-0.9697265625;0.12451171875;0.1171875;-1.75;-0.5;1.8125;
1441975586574574;0.43328857421875;-0.5042724609375;-0.560791015625;-0.4935302734375;16.961833255139073;11.496146954306157;15.985437475280472;-0.96923828125;0.12841796875;0.1201171875;-0.5;-0.3125;1.3125;
1441975586582574;0.4332275390625;-0.50408935546875;-0.56103515625;-0.49346923828125;16.95942936295558;11.492243149314463;15.982762333999581;-0.96630859375;0.1298828125;0.12109375;0.0;-0.1875;1.0;
1441975586605576;0.4332275390625;-0.50390625;-0.56121826171875;-0.493408203125;16.958005819883176;11.488576752550719;15.9803246771206;-0.9501953125;0.12841796875;0.12646484375;-0.9375;-0.3125;1.0;
1441975586626577;0.4334716796875;-0.503662109375;-0.5615234375;-0.4931640625;16.957546091906877;11.48697302462708;15.98170590168416;-0.96630859375;0.13525390625;0.12158203125;-1.375;-0.3125;0.25;
1441975586642578;0.4339599609375;-0.50299072265625;-0.56182861328125;-0.4930419921875;16.959371467373586;11.472795896121106;15.972093612867734;-0.9765625;0.15576171875;0.109375;-3.0625;-0.3125;-1.0;
1441975586665579;0.4344482421875;-0.50225830078125;-0.56195068359375;-0.49322509765625;16.9628977665095;11.451307249753695;15.953940731084092;-0.9755859375;0.14306640625;0.1171875;-5.0;-0.625;-2.375;
1441975586694581;0.4346923828125;-0.501953125;-0.5616455078125;-0.49365234375;16.967753445751118;11.435993517225775;15.938100237789483;-0.9697265625;0.12109375;0.12939453125;-3.25;-0.5;-2.875;
1441975586702581;0.4349365234375;-0.501708984375;-0.56146240234375;-0.493896484375;16.971475718161425;11.425524612969594;15.927806823633192;-0.9619140625;0.11865234375;0.1240234375;0.3125;0.0625;-2.8125;
1441975586726583;0.43524169921875;-0.501220703125;-0.5616455078125;-0.493896484375;16.97269479505668;11.413263594153081;15.918354678408939;-0.9609375;0.1240234375;0.115234375;-0.375;-0.375;-2.375;
1441975586746584;0.4356689453125;-0.50054931640625;-0.56207275390625;-0.49371337890625;16.972916318411237;11.399774154145808;15.909780760487495;-0.958984375;0.1328125;0.1181640625;-3.0625;-0.5625;-1.6875;
1441975586762585;0.43597412109375;-0.5;-0.56243896484375;-0.49359130859375;16.972606212462022;11.388116640923409;15.901985433218542;-0.9619140625;0.13134765625;0.12158203125;-4.875;-0.6875;-1.25;
1441975586785586;0.436279296875;-0.49957275390625;-0.56268310546875;-0.49359130859375;16.973330838812753;11.37712284138755;15.89379946653829;-0.9638671875;0.13623046875;0.1220703125;-4.1875;-0.875;-1.375;
1441975586806587;0.4365234375;-0.4991455078125;-0.56280517578125;-0.4935302734375;16.974389224863206;11.367733942245426;15.88686933075288;-0.962890625;0.134765625;0.11572265625;-2.9375;-1.0;-1.6875;
1441975586822588;0.436767578125;-0.498779296875;-0.56298828125;-0.4935302734375;16.975041064496313;11.358358261242612;15.879775175712442;-0.9638671875;0.13134765625;0.1103515625;-2.625;-1.0;-1.625;
1441975586845589;0.43695068359375;-0.49847412109375;-0.56317138671875;-0.49346923828125;16.975122498083962;11.35177293280897;15.87529640641742;-0.966796875;0.1376953125;0.1181640625;-2.4375;-0.8125;-1.5625;
1441975586866591;0.43719482421875;-0.49810791015625;-0.5633544921875;-0.493408203125;16.975711218489185;11.343679396486388;15.869660514345329;-0.97021484375;0.1357421875;0.1181640625;-2.3125;-0.75;-1.3125;
1441975586882592;0.4373779296875;-0.49774169921875;-0.56353759765625;-0.493408203125;16.97581872333923;11.334320986539655;15.862408649038175;-0.96533203125;0.12890625;0.11474609375;-2.5;-0.8125;-1.0;
1441975586905593;0.4373779296875;-0.49755859375;-0.563720703125;-0.4932861328125;16.974297415846017;11.332093104957647;15.86158693366446;-0.96435546875;0.1220703125;0.11865234375;-2.3125;-0.9375;-0.5;
1441975586926594;0.43743896484375;-0.49749755859375;-0.56396484375;-0.49310302734375;16.972819594859313;11.333924212353852;15.864997085318278;-0.95751953125;0.12548828125;0.1171875;-1.5;-0.8125;0.1875;
1441975586942595;0.43743896484375;-0.49737548828125;-0.56427001953125;-0.49285888671875;16.97029430265149;11.335472916782193;15.86847784203158;-0.96240234375;0.12939453125;0.107421875;-1.5625;-0.8125;0.5625;
1441975586965596;0.43756103515625;-0.49725341796875;-0.5645751953125;-0.49261474609375;16.968815978923242;11.336935181503701;15.8722212252052;-0.95654296875;0.13720703125;0.1171875;-2.1875;-0.5625;0.625;
1441975586986597;0.43756103515625;-0.4971923828125;-0.56475830078125;-0.492431640625;16.967272946216337;11.338915363095838;15.875431360099276;-0.962890625;0.1328125;0.119140625;-2.25;-0.25;0.5625;
1441975587008599;0.43768310546875;-0.4971923828125;-0.56488037109375;-0.4921875;16.967199009662167;11.343703695149497;15.881624113323147;-0.96630859375;0.126953125;0.1201171875;-1.3125;-0.0625;0.75;
1441975587025600;0.4378662109375;-0.4971923828125;-0.5650634765625;-0.4918212890625;16.96708114781362;11.350884632533166;15.890911673865453;-0.9697265625;0.12890625;0.11328125;-1.25;0.125;0.9375;
1441975587047601;0.43804931640625;-0.49700927734375;-0.56549072265625;-0.4913330078125;16.964979503351355;11.355656609487193;15.899371554381615;-0.97119140625;0.13134765625;0.10888671875;-2.375;0.1875;1.1875;
1441975587068602;0.438232421875;-0.49676513671875;-0.56591796875;-0.49090576171875;16.96291840315315;11.357668910514231;15.905071948760972;-0.958984375;0.13037109375;0.11474609375;-3.375;0.0625;1.25;
1441975587085603;0.43853759765625;-0.49652099609375;-0.5662841796875;-0.49041748046875;16.9623089162424;11.361049541937199;15.912491984559908;-0.9619140625;0.13916015625;0.126953125;-3.75;0.8125;0.875;
1441975587106604;0.43896484375;-0.49639892578125;-0.5665283203125;-0.48992919921875;16.963677104486745;11.367607361599624;15.922734896065615;-0.95166015625;0.134765625;0.125;-3.875;1.1875;0.5;
1441975587128606;0.4395751953125;-0.4962158203125;-0.56671142578125;-0.48931884765625;16.966947576946517;11.375412875852241;15.935104792960288;-0.95947265625;0.13671875;0.1123046875;-3.875;1.3125;0.125;
1441975587145607;0.4403076171875;-0.49554443359375;-0.56719970703125;-0.48876953125;16.968981716544356;11.36945206486949;15.936165959144619;-0.978515625;0.14208984375;0.10302734375;-4.5;1.375;-0.25;
1441975587167608;0.4410400390625;-0.49481201171875;-0.56768798828125;-0.48834228515625;16.971124052177746;11.359439805861259;15.932997681304826;-0.96630859375;0.123046875;0.11376953125;-7.125;0.6875;-0.25;
1441975587188609;0.4412841796875;-0.49462890625;-0.56787109375;-0.48809814453125;16.971596421446623;11.359659089796265;15.935674462543084;-0.95556640625;0.0986328125;0.125;-6.5625;0.4375;0.5625;
1441975587205610;0.44122314453125;-0.49481201171875;-0.56805419921875;-0.4876708984375;16.969303523828227;11.372592700763315;15.949666000913053;-0.947265625;0.099609375;0.12451171875;-2.125;1.3125;2.125;
1441975587227611;0.4412841796875;-0.49481201171875;-0.5687255859375;-0.4869384765625;16.964048853059865;11.38612343531815;15.967409759245204;-0.95458984375;0.11962890625;0.119140625;-0.9375;1.0;3.0;
1441975587248612;0.44158935546875;-0.49456787109375;-0.5693359375;-0.48614501953125;16.96126046463644;11.395159741938578;15.982068618999412;-0.95556640625;0.130859375;0.1162109375;-3.9375;0.4375;3.6875;
1441975587265613;0.44171142578125;-0.49444580078125;-0.56988525390625;-0.48553466796875;16.957534218222843;11.403376473376305;15.994325664207436;-0.96337890625;0.111328125;0.11181640625;-5.0625;0.5;4.1875;
1441975587287615;0.4417724609375;-0.4945068359375;-0.57025146484375;-0.48492431640625;16.95463337555541;11.416391621785229;16.010155306130702;-0.96337890625;0.12109375;0.1240234375;-4.0;0.9375;3.6875;
1441975587308616;0.44195556640625;-0.49462890625;-0.57049560546875;-0.484375;16.953732882831066;11.429936534153606;16.026157986162527;-0.97607421875;0.138671875;0.11865234375;-2.625;1.125;2.6875;
1441975587325617;0.4423828125;-0.49456787109375;-0.57061767578125;-0.48394775390625;16.95598884603644;11.437113647150467;16.036316443813902;-0.974609375;0.14501953125;0.1142578125;-2.25;1.4375;1.5;
1441975587347618;0.44287109375;-0.49432373046875;-0.57049560546875;-0.48382568359375;16.960984827103957;11.434465782462624;16.03577510661518;-0.97265625;0.13671875;0.1103515625;-2.9375;1.375;0.0625;
1441975587368619;0.4432373046875;-0.4942626953125;-0.57037353515625;-0.48370361328125;16.964906584968535;11.436117840974784;16.038652818438138;-0.9638671875;0.1162109375;0.1142578125;-2.1875;1.5625;-0.5625;
1441975587385620;0.443603515625;-0.49420166015625;-0.57025146484375;-0.48358154296875;16.968827714315083;11.437787105066937;16.041547651334916;-0.96142578125;0.11865234375;0.11767578125;-0.9375;1.625;-0.5;
1441975587407622;0.4439697265625;-0.49407958984375;-0.5703125;-0.4832763671875;16.97116505400843;11.441256845026132;16.047474783328223;-0.9697265625;0.119140625;0.11328125;-1.0;1.5625;-0.125;
1441975587428623;0.44439697265625;-0.493896484375;-0.5704345703125;-0.48297119140625;16.973575581805928;11.443109514613983;16.052308030674542;-0.9658203125;0.12548828125;0.11376953125;-2.5625;1.4375;0.0625;
1441975587445624;0.44476318359375;-0.4937744140625;-0.57037353515625;-0.4827880859375;16.97697383293206;11.444451778969151;16.055405462777692;-0.97021484375;0.12548828125;0.11376953125;-3.0;1.375;-0.0625;
1441975587467625;0.445068359375;-0.49371337890625;-0.57025146484375;-0.482666015625;16.980369267107474;11.446159930464518;16.058166704946263;-0.96435546875;0.11962890625;0.11328125;-1.625;1.375;-0.125;
1441975587488626;0.4454345703125;-0.4937744140625;-0.57012939453125;-0.48248291015625;16.984184655632877;11.452183491479822;16.065236421903517;-0.9619140625;0.12451171875;0.11572265625;-0.875;1.6875;-0.5;
1441975587505627;0.4459228515625;-0.49365234375;-0.570068359375;-0.48223876953125;16.98854915622896;11.454976521767522;16.070307433108933;-0.9716796875;0.13720703125;0.11083984375;-1.1875;2.0;-1.0;
1441975587527628;0.44647216796875;-0.493408203125;-0.5699462890625;-0.48211669921875;16.994074238040515;11.452449196407699;16.07005791260541;-0.97314453125;0.14013671875;0.11572265625;-2.125;2.1875;-1.75;
1441975587548630;0.447021484375;-0.49310302734375;-0.56976318359375;-0.48211669921875;17.00022149813733;11.445971490358781;16.06550687855076;-0.9716796875;0.12890625;0.1162109375;-2.3125;2.0;-2.1875;
1441975587565631;0.4473876953125;-0.4931640625;-0.5694580078125;-0.48211669921875;17.005635667602416;11.448795016861073;16.068323082481374;-0.96630859375;0.1123046875;0.11376953125;-1.75;1.6875;-1.75;
1441975587587632;0.44769287109375;-0.49310302734375;-0.56927490234375;-0.4820556640625;17.009563617848208;11.449476808879682;16.069706742829514;-0.9638671875;0.12109375;0.109375;-0.125;1.8125;-1.25;
1441975587608633;0.44793701171875;-0.49298095703125;-0.56927490234375;-0.48193359375;17.01153145087076;11.449294400388592;16.070928060149864;-0.97021484375;0.11962890625;0.107421875;-0.6875;1.375;-0.6875;
1441975587625634;0.44793701171875;-0.49298095703125;-0.56927490234375;-0.48199462890625;17.01160548378169;11.447954734529352;16.06940920932835;-0.96533203125;0.115234375;0.11572265625;-1.1875;0.9375;0.125;
1441975587648635;0.44793701171875;-0.49322509765625;-0.56915283203125;-0.48187255859375;17.012313078167132;11.457146821855199;16.077899456137896;-0.9794921875;0.1220703125;0.1142578125;0.375;0.875;0.1875;
1441975587668636;0.447998046875;-0.4931640625;-0.56915283203125;-0.48193359375;17.012925798682847;11.454333351914261;16.075257742975353;-0.98291015625;0.13525390625;0.10791015625;0.75;1.0;-0.1875;
1441975587685637;0.44793701171875;-0.493408203125;-0.56878662109375;-0.48211669921875;17.015324301910173;11.45766081544484;16.076128814628277;-0.9658203125;0.12158203125;0.11279296875;0.25;0.625;-0.6875;
1441975587707639;0.44769287109375;-0.4937744140625;-0.568359375;-0.48248291015625;17.016812013479008;11.460083020386882;16.074511919743127;-0.95703125;0.1123046875;0.11376953125;2.4375;1.0625;-0.3125;
1441975587728640;0.447509765625;-0.49407958984375;-0.568115234375;-0.482666015625;17.017231321113766;11.464409283389461;16.076202868080784;-0.9580078125;0.1142578125;0.11376953125;4.1875;0.8125;0.125;
1441975587745641;0.44732666015625;-0.49432373046875;-0.568115234375;-0.48260498046875;17.01552143740168;11.471700517429177;16.082441364794793;-0.9658203125;0.12255859375;0.10986328125;2.75;0.375;0.375;
1441975587767642;0.4471435546875;-0.49444580078125;-0.5679931640625;-0.48272705078125;17.01499583535363;11.472349341249853;16.0815144120292;-0.958984375;0.1328125;0.11181640625;1.125;0.25;0.625;
1441975587788643;0.44683837890625;-0.49481201171875;-0.56756591796875;-0.483154296875;17.01604014448004;11.473387669791935;16.07816286647899;-0.95947265625;0.1240234375;0.11572265625;1.5625;0.375;0.125;
1441975587805644;0.44635009765625;-0.49542236328125;-0.56707763671875;-0.48358154296875;17.015909356623247;11.480588600521282;16.079570357792957;-0.95751953125;0.11767578125;0.11376953125;4.0625;0.1875;0.0;
1441975587827646;0.44586181640625;-0.49603271484375;-0.5665283203125;-0.4840087890625;17.016237175787005;11.488017396685471;16.081033250563962;-0.9580078125;0.1259765625;0.1083984375;6.125;0.0625;0.0625;
1441975587848647;0.44537353515625;-0.49658203125;-0.5660400390625;-0.48443603515625;17.016123865407273;11.493694309462146;16.081095010940352;-0.97119140625;0.1259765625;0.11083984375;5.9375;0.1875;0.1875;
1441975587865648;0.44482421875;-0.49725341796875;-0.5654296875;-0.4849853515625;17.01652771996343;11.50013203814901;16.08068657934065;-0.98291015625;0.1259765625;0.10107421875;5.5625;-0.25;0.375;
1441975587887649;0.44366455078125;-0.498046875;-0.56494140625;-0.48583984375;17.011163557868294;11.501845988061314;16.072924561510785;-0.9853515625;0.1123046875;0.10205078125;7.0;-0.5;0.875;
1441975587908650;0.4410400390625;-0.50006103515625;-0.56451416015625;-0.48663330078125;16.992344250278578;11.533205458285613;16.087443585263316;-0.97802734375;0.1142578125;0.11865234375;9.3125;-2.125;2.3125;
1441975587925651;0.43988037109375;-0.50103759765625;-0.56494140625;-0.4862060546875;16.97824006056812;11.562890087566439;16.113446972902125;-0.9501953125;0.16357421875;0.08642578125;16.625;-5.75;6.5;
1441975587947652;0.4393310546875;-0.50091552734375;-0.56610107421875;-0.4854736328125;16.963841022571064;11.569861874773263;16.124638299910025;-0.9462890625;0.177734375;0.08642578125;3.625;-2.125;5.25;
1441975587968654;0.43994140625;-0.5003662109375;-0.56658935546875;-0.48486328125;16.964739377659804;11.568304953024116;16.12957870884227;-0.9609375;0.17626953125;0.11474609375;-4.1875;-2.5625;4.3125;
1441975587985655;0.4412841796875;-0.499755859375;-0.56683349609375;-0.4840087890625;16.97337650672144;11.57242706216026;16.14247418044287;-0.94677734375;0.11376953125;0.10693359375;-6.375;0.8125;1.375;
1441975588007656;0.44140625;-0.49993896484375;-0.5667724609375;-0.48382568359375;16.974501791246812;11.581092474648212;16.1513129805824;-0.96875;0.10693359375;0.10302734375;-8.375;4.125;0.125;
1441975588028657;0.4415283203125;-0.500244140625;-0.56689453125;-0.48321533203125;16.973505837111336;11.600863188626871;16.17266569222994;-0.9619140625;0.14306640625;0.1171875;-0.125;2.0625;0.125;
1441975588044658;0.44207763671875;-0.50042724609375;-0.5670166015625;-0.48236083984375;16.975766544117214;11.623570036412591;16.199234339807457;-0.9609375;0.169921875;0.103515625;-1.6875;2.5625;0.3125;
1441975588066659;0.44384765625;-0.49945068359375;-0.56781005859375;-0.4808349609375;16.98298576612807;11.631905886584965;16.222136294857165;-0.96142578125;0.16162109375;0.083984375;-3.9375;2.6875;0.3125;
1441975588089661;0.4459228515625;-0.49774169921875;-0.56903076171875;-0.479248046875;16.990010184320504;11.622570772763146;16.231755908252598;-0.95068359375;0.1474609375;0.0869140625;-14.375;4.25;-1.4375;
1441975588104661;0.44793701171875;-0.49603271484375;-0.57012939453125;-0.47784423828125;16.997747226381836;11.609776628561525;16.236861263482893;-0.974609375;0.13720703125;0.09814453125;-19.0;3.125;-1.75;
1441975588126663;0.44976806640625;-0.49432373046875;-0.5709228515625;-0.47686767578125;17.006922889212177;11.588762253993329;16.231116522323006;-0.94970703125;0.12548828125;0.12255859375;-17.5;4.375;-2.0625;
1441975588149664;0.45037841796875;-0.4935302734375;-0.57147216796875;-0.4765625;17.008023884748987;11.574399681373514;16.22324111736787;-0.97705078125;0.11767578125;0.12646484375;-15.0;3.3125;-3.0;
1441975588164665;0.45068359375;-0.4935302734375;-0.5716552734375;-0.47601318359375;17.008357288068282;11.586052970350604;16.237881523043047;-0.98046875;0.134765625;0.1240234375;-6.625;0.375;-1.3125;
1441975588186666;0.45147705078125;-0.49334716796875;-0.5718994140625;-0.4752197265625;17.012081254483732;11.599222631404086;16.256835791901807;-0.96484375;0.14892578125;0.0947265625;-2.875;1.5;-0.0625;
1441975588209667;0.45263671875;-0.49249267578125;-0.57232666015625;-0.47442626953125;17.018016200319884;11.595723327831992;16.262638820179394;-0.974609375;0.154296875;0.08740234375;-5.875;2.5;-0.8125;
1441975588225668;0.4534912109375;-0.4915771484375;-0.5728759765625;-0.47393798828125;17.02100328924378;11.582741549048542;16.257725862829275;-0.974609375;0.13623046875;0.09521484375;-9.4375;1.75;-2.0;
1441975588246670;0.453857421875;-0.4913330078125;-0.57305908203125;-0.4735107421875;17.022206913954307;11.585923717783958;16.264426932432077;-0.95849609375;0.1201171875;0.111328125;-7.9375;1.0625;-1.0625;
1441975588269671;0.4542236328125;-0.4912109375;-0.57366943359375;-0.47259521484375;17.01929301254918;11.60076796534943;16.285065031940334;-0.95947265625;0.12548828125;0.10107421875;-3.4375;1.125;0.5;
1441975588285672;0.4549560546875;-0.4908447265625;-0.5745849609375;-0.47119140625;17.016504988123;11.6194115807662;16.313542383503606;-0.9609375;0.14501953125;0.099609375;-5.875;1.6875;2.125;
1441975588306673;0.45611572265625;-0.49017333984375;-0.57562255859375;-0.46942138671875;17.015959051744268;11.63880693585375;16.346291779451317;-0.953125;0.1376953125;0.09716796875;-9.5625;2.625;3.625;
1441975588329674;0.45733642578125;-0.48895263671875;-0.5772705078125;-0.46746826171875;17.01149736139965;11.645357514699718;16.370237810382907;-0.970703125;0.14453125;0.10205078125;-12.8125;4.375;2.75;
1441975588345675;0.45904541015625;-0.486572265625;-0.57965087890625;-0.46533203125;17.00647080876081;11.624578116122755;16.37423479263136;-0.986328125;0.1572265625;0.0966796875;-17.125;1.3125;2.8125;
1441975588366676;0.46014404296875;-0.485107421875;-0.58148193359375;-0.463623046875;17.00032169999904;11.618432202343488;16.38565372530574;-0.96630859375;0.1220703125;0.12060546875;-24.5625;0.3125;3.25;
1441975588389678;0.46002197265625;-0.4854736328125;-0.5821533203125;-0.4625244140625;16.991837495686074;11.646642423827299;16.417570403738345;-0.966796875;0.1103515625;0.146484375;-16.8125;2.4375;5.125;
1441975588411679;0.4599609375;-0.4859619140625;-0.58282470703125;-0.46112060546875;16.982994678015523;11.683838544941356;16.459191613221396;-0.9765625;0.13623046875;0.10791015625;-3.3125;2.1875;6.875;
1441975588426680;0.46026611328125;-0.48602294921875;-0.58380126953125;-0.4595947265625;16.975056114767355;11.712136785506685;16.49540554013485;-0.97412109375;0.15087890625;0.09130859375;-3.875;2.3125;7.1875;
1441975588449681;0.46051025390625;-0.48541259765625;-0.585205078125;-0.45819091796875;16.96446322881895;11.718820708719162;16.512662287695598;-0.97802734375;0.13671875;0.08349609375;-7.625;1.4375;7.5;
1441975588465682;0.46038818359375;-0.48480224609375;-0.58660888671875;-0.45709228515625;16.951451962930047;11.71785385790258;16.52035077207898;-0.96484375;0.12451171875;0.09765625;-10.375;-0.8125;7.375;
1441975588486683;0.46014404296875;-0.4847412109375;-0.58770751953125;-0.4560546875;16.939093262060553;11.729620376395273;16.53776562416704;-0.96240234375;0.123046875;0.1162109375;-8.375;-1.8125;7.5625;
1441975588509685;0.459716796875;-0.485107421875;-0.5882568359375;-0.455322265625;16.929323910459658;11.747520387928871;16.557106293217625;-0.9697265625;0.1416015625;0.10791015625;-5.0625;-1.0;7.125;
1441975588525685;0.45941162109375;-0.4854736328125;-0.58880615234375;-0.45458984375;16.920537021733654;11.765528705433788;16.576887255096914;-0.97509765625;0.142578125;0.103515625;-1.0;0.0;6.6875;
1441975588546687;0.45928955078125;-0.48529052734375;-0.58935546875;-0.4541015625;16.9145977915096;11.766950562225787;16.58150412478133;-0.98681640625;0.14208984375;0.09326171875;-1.6875;-0.5;6.3125;
1441975588569688;0.4588623046875;-0.48541259765625;-0.5897216796875;-0.4539794921875;16.907879812048638;11.768148631425104;16.582536451049847;-0.98876953125;0.109375;0.10205078125;-2.75;-1.4375;6.3125;
1441975588585689;0.45843505859375;-0.48577880859375;-0.58990478515625;-0.45379638671875;16.902007597175515;11.77704836539012;16.590218097301122;-0.97216796875;0.0986328125;0.10009765625;0.5;-2.125;6.75;
1441975588606690;0.45794677734375;-0.486328125;-0.590087890625;-0.45343017578125;16.89490328251847;11.79311651132053;16.604902206044063;-0.95703125;0.1103515625;0.0986328125;1.5;-0.9375;5.875;
1441975588629691;0.4576416015625;-0.48681640625;-0.5904541015625;-0.4527587890625;16.88730226931735;11.812879845149364;16.625386312866212;-0.95556640625;0.14794921875;0.10791015625;1.5625;0.5;5.0625;
1441975588645692;0.45745849609375;-0.48663330078125;-0.59100341796875;-0.452392578125;16.881140204042303;11.811454931038634;16.62662152551989;-0.958984375;0.1611328125;0.0947265625;-0.4375;0.5;4.9375;
1441975588666694;0.45684814453125;-0.48681640625;-0.5911865234375;-0.45257568359375;16.87488269256957;11.80851811811811;16.621413769577156;-0.98095703125;0.14697265625;0.11083984375;-2.5;-1.375;3.75;
1441975588689695;0.45623779296875;-0.4871826171875;-0.5908203125;-0.4532470703125;16.873552159458974;11.804069232233624;16.611165804838596;-0.966796875;0.14892578125;0.119140625;2.4375;-2.0;2.75;
1441975588705696;0.45562744140625;-0.4881591796875;-0.58990478515625;-0.45416259765625;16.875921622648374;11.811776832690747;16.60899272130359;-0.9599609375;0.1494140625;0.11962890625;5.6875;-0.875;0.0625;
1441975588726697;0.455078125;-0.489013671875;-0.58856201171875;-0.45538330078125;16.88283768080137;11.814157287588369;16.599941595892204;-0.96728515625;0.16162109375;0.10693359375;9.8125;0.125;-1.4375;
1441975588749698;0.45465087890625;-0.4898681640625;-0.58721923828125;-0.45672607421875;16.891086734769043;11.814652711672279;16.588971635120373;-0.98046875;0.15673828125;0.0966796875;11.1875;-0.25;-3.5;
1441975588765699;0.45428466796875;-0.49053955078125;-0.5858154296875;-0.4581298828125;16.900700036104634;11.810495769715555;16.573719087725333;-0.97216796875;0.14404296875;0.09619140625;11.25;-0.375;-3.875;
1441975588786700;0.4539794921875;-0.4910888671875;-0.58477783203125;-0.459228515625;16.90758480223056;11.80719344326404;16.561779161147918;-0.96728515625;0.13037109375;0.0888671875;10.625;-0.5;-3.875;
1441975588809702;0.453857421875;-0.49127197265625;-0.5841064453125;-0.45989990234375;16.912811922330313;11.802201637665128;16.552041934015644;-0.95361328125;0.13427734375;0.0888671875;8.4375;-0.875;-3.0;
1441975588825703;0.4542236328125;-0.49114990234375;-0.5838623046875;-0.4600830078125;16.918274515523645;11.798820954440355;16.5488137410054;-0.9462890625;0.1435546875;0.091796875;4.625;-0.875;-2.5;
1441975588846704;0.454833984375;-0.49066162109375;-0.5836181640625;-0.46026611328125;16.926282086231684;11.78803572430559;16.539950792682408;-0.95068359375;0.16259765625;0.09765625;-0.4375;0.6875;-3.6875;
1441975588869705;0.4554443359375;-0.490234375;-0.5831298828125;-0.460693359375;16.936549299690093;11.775205582051342;16.527456084493323;-0.9501953125;0.16015625;0.11181640625;-2.1875;1.625;-5.0625;
1441975588885706;0.4556884765625;-0.49029541015625;-0.582275390625;-0.46148681640625;16.946605423626526;11.767044310465756;16.51505384080416;-0.9609375;0.15966796875;0.11376953125;-0.5;1.75;-6.4375;
1441975588906707;0.45611572265625;-0.49053955078125;-0.5811767578125;-0.46221923828125;16.959606564076687;11.766359166561287;16.509594796793895;-0.96435546875;0.16943359375;0.107421875;4.1875;1.375;-7.0;
1441975588929709;0.45654296875;-0.4908447265625;-0.57989501953125;-0.4630126953125;16.9740105525682;11.766942606478398;16.504535755422616;-0.96337890625;0.1708984375;0.09521484375;4.125;2.25;-7.625;
1441975588945710;0.45733642578125;-0.49102783203125;-0.57861328125;-0.463623046875;16.99123552548502;11.769723411935708;16.503597170184808;-0.97119140625;0.1708984375;0.09033203125;5.3125;2.8125;-8.4375;
1441975588966711;0.45867919921875;-0.49066162109375;-0.57769775390625;-0.46380615234375;17.010127876344516;11.767967483065192;16.50356621582429;-0.97265625;0.16015625;0.0732421875;3.3125;3.0625;-8.375;
1441975588990712;0.46014404296875;-0.4898681640625;-0.57720947265625;-0.4638671875;17.02717615819062;11.755884486133944;16.496363671561813;-0.9677734375;0.14501953125;0.076171875;-1.875;3.875;-8.1875;
1441975589011713;0.4610595703125;-0.48931884765625;-0.5767822265625;-0.464111328125;17.03924499840007;11.743062394725289;16.48579848636853;-0.96630859375;0.1318359375;0.0927734375;-5.125;3.6875;-7.375;
1441975589028714;0.461669921875;-0.4891357421875;-0.57623291015625;-0.46435546875;17.04918549731675;11.7388992648896;16.481620494867606;-0.96533203125;0.13134765625;0.10498046875;-2.375;2.75;-6.1875;
1441975589051716;0.46234130859375;-0.489013671875;-0.5758056640625;-0.46429443359375;17.057997065729353;11.74254772109352;16.48648852694487;-0.9609375;0.14599609375;0.0947265625;-0.25;2.5625;-5.3125;
1441975589065716;0.4630126953125;-0.48883056640625;-0.57562255859375;-0.464111328125;17.064812509794184;11.745848012995577;16.492227679885147;-0.97021484375;0.1572265625;0.09521484375;-1.1875;3.125;-5.0;
1441975589086718;0.4639892578125;-0.48834228515625;-0.57562255859375;-0.463623046875;17.07255361528305;11.748290039602448;16.500278039557724;-0.9677734375;0.1640625;0.0966796875;-2.625;3.25;-4.75;
1441975589109719;0.4649658203125;-0.48779296875;-0.57574462890625;-0.46307373046875;17.079335468845024;11.749798363566374;16.508095160182936;-0.9658203125;0.15771484375;0.0986328125;-5.625;3.6875;-4.5;
1441975589124720;0.46575927734375;-0.48724365234375;-0.57598876953125;-0.46258544921875;17.083816180885147;11.748342829467799;16.51259735887427;-0.9736328125;0.1591796875;0.09912109375;-6.375;3.4375;-4.0;
1441975589148721;0.46649169921875;-0.48681640625;-0.57611083984375;-0.46209716796875;17.088527814730387;11.750713480020998;16.520057396028687;-0.9580078125;0.15234375;0.10546875;-6.125;3.125;-3.5;
1441975589169722;0.46697998046875;-0.48663330078125;-0.57623291015625;-0.461669921875;17.091002080065905;11.757108784806338;16.52995679863433;-0.95166015625;0.1435546875;0.0966796875;-4.6875;3.0;-2.625;
1441975589184723;0.46746826171875;-0.48638916015625;-0.57659912109375;-0.4610595703125;17.091336334688172;11.764480597370088;16.54223400442425;-0.9716796875;0.1533203125;0.09375;-3.6875;2.3125;-1.75;
1441975589208725;0.4681396484375;-0.48583984375;-0.5770263671875;-0.4603271484375;17.092890875130088;11.767034575185734;16.551645938577312;-0.96875;0.150390625;0.0908203125;-5.0;1.8125;-0.75;
1441975589229726;0.468505859375;-0.4854736328125;-0.57745361328125;-0.4598388671875;17.092195324126834;11.767351042806276;16.556700948712443;-0.98046875;0.13330078125;0.09521484375;-6.6875;2.0625;0.0;
1441975589245727;0.46856689453125;-0.48553466796875;-0.57769775390625;-0.45941162109375;17.089833402863444;11.777446820442103;16.56873249553898;-0.974609375;0.11376953125;0.09912109375;-4.625;1.4375;1.4375;
1441975589268728;0.4681396484375;-0.48590087890625;-0.57806396484375;-0.458984375;17.082041093808456;11.79229562622837;16.583599128802668;-0.96728515625;0.1181640625;0.099609375;-1.4375;1.5625;2.75;
1441975589289729;0.4678955078125;-0.48614501953125;-0.57861328125;-0.458251953125;17.073854896332648;11.810208209174897;16.603815982454517;-0.96533203125;0.13330078125;0.10107421875;0.125;0.625;4.125;
1441975589304730;0.46795654296875;-0.48602294921875;-0.57958984375;-0.45709228515625;17.06455919093549;11.82630026853095;16.626601646618358;-0.95947265625;0.1318359375;0.0869140625;-2.0625;0.375;5.0625;
1441975589328731;0.46783447265625;-0.48583984375;-0.580810546875;-0.4559326171875;17.052017952706684;11.83769344586619;16.645039630433324;-0.962890625;0.13623046875;0.08251953125;-6.375;0.0625;5.5625;
1441975589356733;0.4677734375;-0.4853515625;-0.58209228515625;-0.45477294921875;17.040017329270754;11.840936437332545;16.656583507905058;-0.9697265625;0.14013671875;0.08154296875;-7.0625;-1.375;6.4375;
1441975589366734;0.46759033203125;-0.48516845703125;-0.5830078125;-0.4539794921875;17.03009987151173;11.845790053959842;16.666381728806638;-0.97607421875;0.13818359375;0.091796875;-8.0625;-1.5;5.9375;
1441975589388735;0.46710205078125;-0.48529052734375;-0.58367919921875;-0.45355224609375;17.019857025061864;11.850480142899992;16.672493146290858;-0.97705078125;0.12890625;0.08642578125;-4.8125;-2.0;5.9375;
1441975589409736;0.46630859375;-0.4857177734375;-0.58404541015625;-0.4534912109375;17.009736205932143;11.855521703952594;16.67526671342867;-0.97802734375;0.13134765625;0.0888671875;-1.375;-2.0625;5.3125;
1441975589424737;0.46563720703125;-0.486083984375;-0.5843505859375;-0.453369140625;17.00101376503436;11.861346735705128;16.67935895435342;-0.974609375;0.138671875;0.09130859375;2.0625;-2.4375;4.875;
1441975589448738;0.4649658203125;-0.486328125;-0.584716796875;-0.4532470703125;16.992050792410016;11.86373000797477;16.68054463239937;-0.97314453125;0.1376953125;0.08984375;1.875;-2.1875;4.375;
1441975589469739;0.46466064453125;-0.48638916015625;-0.58514404296875;-0.45306396484375;16.98583494225931;11.864303056955578;16.68181871708861;-0.9697265625;0.14501953125;0.08837890625;1.125;-2.5;3.9375;
1441975589491741;0.46441650390625;-0.48626708984375;-0.58551025390625;-0.452880859375;16.980874889909426;11.86130575277383;16.680077484003796;-0.96875;0.13623046875;0.0810546875;-0.8125;-2.4375;3.25;
1441975589508742;0.46417236328125;-0.48614501953125;-0.58587646484375;-0.452880859375;16.976392626958912;11.854599669895459;16.674072474745824;-0.966796875;0.134765625;0.0849609375;-1.3125;-2.375;2.75;
1441975589529743;0.46380615234375;-0.48614501953125;-0.5859375;-0.45306396484375;16.97337735065459;11.848741702246326;16.66683183153587;-0.96142578125;0.1337890625;0.09326171875;-0.8125;-2.125;1.9375;
1441975589551744;0.4632568359375;-0.4864501953125;-0.5858154296875;-0.45343017578125;16.97013917420169;11.846819139747057;16.66105290647101;-0.96484375;0.1376953125;0.09326171875;1.25;-2.0;1.1875;
1441975589568745;0.46295166015625;-0.4864501953125;-0.58587646484375;-0.4537353515625;16.96793740947846;11.838830883852728;16.65147739019062;-0.96923828125;0.1396484375;0.087890625;3.625;-2.4375;1.125;
1441975589589746;0.4627685546875;-0.486328125;-0.5858154296875;-0.4541015625;16.967977129165387;11.82819759566615;16.639441718078846;-0.9677734375;0.14501953125;0.0908203125;1.375;-2.375;0.125;
1441975589611748;0.46258544921875;-0.4862060546875;-0.585693359375;-0.45458984375;16.968749576243717;11.815509965979098;16.6248162765888;-0.970703125;0.13818359375;0.0927734375;1.1875;-2.4375;-0.5;
1441975589628749;0.4625244140625;-0.48602294921875;-0.58544921875;-0.45513916015625;16.971649742485965;11.801473832757111;16.608842379658114;-0.97900390625;0.13671875;0.095703125;1.8125;-2.0625;-1.0625;
1441975589649750;0.46240234375;-0.48583984375;-0.58526611328125;-0.4556884765625;16.973565143620164;11.786693699983402;16.592124531711484;-0.9814453125;0.13232421875;0.09423828125;1.5;-1.8125;-1.75;
1441975589671751;0.4620361328125;-0.48583984375;-0.5849609375;-0.45648193359375;16.974615954892723;11.77100922957502;16.57221416686575;-0.9697265625;0.13525390625;0.09912109375;1.8125;-2.125;-1.75;
1441975589689752;0.46160888671875;-0.486083984375;-0.58453369140625;-0.4571533203125;16.975395382606223;11.764128685649487;16.56024043532877;-0.982421875;0.1337890625;0.103515625;3.875;-2.3125;-1.6875;
1441975589709753;0.46148681640625;-0.48602294921875;-0.58416748046875;-0.45782470703125;16.978687062140192;11.750763110961085;16.54370111816659;-0.990234375;0.1484375;0.0888671875;4.875;-2.5;-1.9375;
1441975589731754;0.4613037109375;-0.48590087890625;-0.5838623046875;-0.45855712890625;16.981204820580842;11.733974671556764;16.523739145830234;-0.982421875;0.13671875;0.09521484375;2.6875;-2.0;-2.5625;
1441975589748755;0.4609375;-0.486083984375;-0.5833740234375;-0.4593505859375;16.98324391731867;11.723603249562329;16.50809058904799;-0.9765625;0.1318359375;0.10546875;3.0;-2.0;-2.25;
1441975589769757;0.4605712890625;-0.4862060546875;-0.5830078125;-0.46002197265625;16.984173166747105;11.713519612304708;16.493615183218168;-0.97412109375;0.13330078125;0.0966796875;5.1875;-2.0625;-1.875;
1441975589791758;0.4603271484375;-0.48614501953125;-0.5828857421875;-0.46051025390625;16.984138037364314;11.701789099014155;16.479596842420754;-0.986328125;0.140625;0.0986328125;4.1875;-2.125;-1.6875;
1441975589808759;0.46014404296875;-0.48590087890625;-0.5830078125;-0.4608154296875;16.98262029190254;11.68825342955004;16.46571051130889;-0.982421875;0.13671875;0.09814453125;1.9375;-2.5;-1.0625;
1441975589829760;0.4598388671875;-0.48583984375;-0.5831298828125;-0.4610595703125;16.97972086765495;11.680020892979577;16.45642597732458;-0.96728515625;0.12939453125;0.09521484375;0.125;-2.6875;-0.125;
1441975589851761;0.45941162109375;-0.48590087890625;-0.583251953125;-0.4613037109375;16.975648290608433;11.674368432454513;16.4490201463643;-0.95947265625;0.12353515625;0.10205078125;1.0;-2.5;1.0625;
1441975589868762;0.45892333984375;-0.48583984375;-0.58355712890625;-0.46142578125;16.969583702688304;11.66717276448853;16.441139896955395;-0.962890625;0.130859375;0.09814453125;1.5;-2.625;1.4375;
1441975589889764;0.45855712890625;-0.48565673828125;-0.583984375;-0.46142578125;16.963523960811216;11.659363428932844;16.43404879289395;-0.9580078125;0.13671875;0.10107421875;0.5625;-3.0;1.75;
1441975589911765;0.4581298828125;-0.48553466796875;-0.58441162109375;-0.46142578125;16.956878165071245;11.65289722459748;16.427950159143265;-0.95068359375;0.13720703125;0.1015625;-0.8125;-3.0;1.875;
1441975589928766;0.4578857421875;-0.4854736328125;-0.58489990234375;-0.46112060546875;16.950655179822682;11.654281555339706;16.431105129940917;-0.939453125;0.13232421875;0.1064453125;-0.6875;-2.8125;2.25;
1441975589949767;0.45794677734375;-0.485107421875;-0.5855712890625;-0.4605712890625;16.945486476658978;11.653331695994448;16.434916114944716;-0.93359375;0.1455078125;0.099609375;-1.6875;-1.9375;2.25;
1441975589971768;0.4583740234375;-0.48431396484375;-0.58648681640625;-0.4598388671875;16.941689020499005;11.645856027522013;16.435709267727194;-0.94384765625;0.1533203125;0.09765625;-4.8125;-1.375;1.6875;
1441975589987769;0.4591064453125;-0.4832763671875;-0.58740234375;-0.45904541015625;16.940603214978626;11.63482908073217;16.434705020310687;-0.94091796875;0.14208984375;0.1083984375;-8.4375;-1.0;1.3125;
1441975590010770;0.45977783203125;-0.4822998046875;-0.58837890625;-0.45806884765625;16.938123868695648;11.628393035031547;16.43866136373504;-0.92138671875;0.12353515625;0.1044921875;-9.75;-0.3125;1.375;
1441975590031772;0.4605712890625;-0.48150634765625;-0.58935546875;-0.4569091796875;16.936133586427292;11.630153284173716;16.45114615725484;-0.91455078125;0.12451171875;0.115234375;-10.25;0.5625;1.875;
1441975590047773;0.461669921875;-0.4803466796875;-0.590576171875;-0.4554443359375;16.934690480155844;11.629069009957881;16.46431266861769;-0.92724609375;0.13671875;0.099609375;-10.75;0.875;2.375;
1441975590070774;0.46307373046875;-0.47906494140625;-0.59173583984375;-0.453857421875;16.93616454443233;11.628801470763761;16.479698342310733;-0.9560546875;0.13623046875;0.10693359375;-13.8125;1.375;2.5625;
1441975590091775;0.46453857421875;-0.477783203125;-0.5927734375;-0.452392578125;16.9393058027032;11.626981568492964;16.492994282271376;-0.97607421875;0.1240234375;0.095703125;-15.5;1.625;2.5625;
1441975590107776;0.465576171875;-0.47686767578125;-0.5936279296875;-0.45111083984375;16.94015547123716;11.629742123791114;16.50755197658922;-0.98095703125;0.1103515625;0.0986328125;-14.6875;1.8125;2.75;
1441975590130777;0.46649169921875;-0.47613525390625;-0.59442138671875;-0.44989013671875;16.940336919884206;11.6354914668126;16.523860596613908;-0.982421875;0.10693359375;0.1025390625;-11.5625;1.625;3.8125;
1441975590151778;0.46722412109375;-0.47552490234375;-0.5953369140625;-0.4486083984375;16.93778900752537;11.643974452973438;16.54255246709545;-0.978515625;0.1123046875;0.09619140625;-10.0625;1.5625;4.0625;
1441975590167779;0.4677734375;-0.47503662109375;-0.59619140625;-0.4473876953125;16.934106026436236;11.653740234403259;16.56131351270195;-0.96533203125;0.1123046875;0.09130859375;-9.6875;0.75;5.25;
1441975590190781;0.46826171875;-0.4747314453125;-0.596923828125;-0.44622802734375;16.930683707685066;11.666904222874093;16.582234736387395;-0.99267578125;0.126953125;0.09912109375;-8.875;0.5625;5.0625;
1441975590211782;0.4688720703125;-0.47412109375;-0.59759521484375;-0.44537353515625;16.929785155835074;11.667834886009405;16.5910851908545;-0.990234375;0.13623046875;0.0869140625;-7.625;0.5;4.5625;
1441975590227783;0.46917724609375;-0.47393798828125;-0.59783935546875;-0.44482421875;16.929570776040432;11.67402719177224;16.60099426499384;-0.98046875;0.115234375;0.1064453125;-7.4375;0.5;3.5625;
1441975590250784;0.46923828125;-0.47418212890625;-0.59783935546875;-0.444580078125;16.929209291377735;11.6845772673173;16.61170638934715;-0.97021484375;0.11279296875;0.10888671875;-3.5;1.375;3.375;
1441975590271785;0.46929931640625;-0.47442626953125;-0.597900390625;-0.44415283203125;16.9279608911992;11.698320207812053;16.626338040133927;-0.9521484375;0.12109375;0.115234375;0.375;2.25;2.875;
1441975590287786;0.4697265625;-0.4742431640625;-0.5982666015625;-0.44342041015625;16.92741907423064;11.707746950897457;16.640694456265376;-0.95263671875;0.13671875;0.10888671875;-0.4375;2.0;2.6875;
1441975590310788;0.470458984375;-0.4736328125;-0.5987548828125;-0.44256591796875;16.928851595704387;11.710255747462034;16.65096137274039;-0.955078125;0.14453125;0.103515625;-5.0;1.8125;2.0625;
1441975590331789;0.47113037109375;-0.47308349609375;-0.5989990234375;-0.44207763671875;16.93233308842511;11.708338464577572;16.654674117379866;-0.9609375;0.138671875;0.11279296875;-7.25;2.25;1.125;
1441975590355790;0.4716796875;-0.4727783203125;-0.598876953125;-0.4420166015625;16.938126392677088;11.705476816062248;16.6540747234543;-0.9580078125;0.1298828125;0.11376953125;-5.5;2.3125;-0.0625;
1441975590378791;0.4720458984375;-0.47283935546875;-0.598388671875;-0.4422607421875;16.94525342597284;11.706614501076572;16.65394584116556;-0.96044921875;0.134765625;0.11865234375;-2.0;2.625;-1.5;
1441975590391792;0.47247314453125;-0.472900390625;-0.59771728515625;-0.44256591796875;16.954371503780184;11.707973616344715;16.653527079430532;-0.958984375;0.14306640625;0.12353515625;1.4375;3.25;-3.0;
1441975590407793;0.4730224609375;-0.47283935546875;-0.59710693359375;-0.44287109375;16.964244404073376;11.706570360106483;16.651207710319134;-0.955078125;0.15283203125;0.1142578125;1.75;3.1875;-4.4375;
1441975590430794;0.473876953125;-0.47247314453125;-0.5965576171875;-0.443115234375;16.976521728134212;11.69998882616617;16.645810503131166;-0.9638671875;0.158203125;0.10986328125;0.875;3.0625;-5.25;
1441975590451796;0.474853515625;-0.47186279296875;-0.59613037109375;-0.443359375;16.989266136709634;11.687099855343746;16.635505557207143;-0.966796875;0.146484375;0.1044921875;-1.5;2.9375;-6.125;
1441975590467797;0.4757080078125;-0.4713134765625;-0.5955810546875;-0.44378662109375;17.002194991605528;11.67184601287035;16.621435354022807;-0.97265625;0.1435546875;0.10693359375;-2.5625;2.5625;-6.5;
1441975590490798;0.47637939453125;-0.470947265625;-0.594970703125;-0.4442138671875;17.01376491205508;11.660395935625463;16.609957762949154;-0.974609375;0.1357421875;0.109375;-1.5625;2.1875;-6.4375;
1441975590519800;0.4769287109375;-0.470703125;-0.59442138671875;-0.4447021484375;17.0238195134586;11.64951517669165;16.59832223043715;-0.97265625;0.13671875;0.0986328125;-0.0625;1.875;-6.0625;
1441975590527800;0.47723388671875;-0.470458984375;-0.59393310546875;-0.4451904296875;17.031355067611077;11.6370901090404;16.584658863611537;-0.97021484375;0.1337890625;0.1015625;0.5625;1.4375;-5.5;
1441975590550801;0.4774169921875;-0.470458984375;-0.593505859375;-0.44561767578125;17.036961345565853;11.63111318018518;16.576716629194735;-0.96044921875;0.14111328125;0.11328125;1.1875;1.375;-4.9375;
1441975590571803;0.47772216796875;-0.4703369140625;-0.5931396484375;-0.44586181640625;17.042901686134606;11.626098382450271;16.571163408024713;-0.95703125;0.142578125;0.10546875;1.5625;1.3125;-4.3125;
1441975590587803;0.47796630859375;-0.47015380859375;-0.59307861328125;-0.4459228515625;17.045760434635607;11.621393332590802;16.567319364163673;-0.95458984375;0.14794921875;0.10693359375;0.4375;1.4375;-4.0;
1441975590610805;0.478271484375;-0.4698486328125;-0.593017578125;-0.4459228515625;17.049151325362573;11.615144248000343;16.562658235328517;-0.95458984375;0.154296875;0.10986328125;-0.9375;1.1875;-3.875;
1441975590631806;0.478759765625;-0.4693603515625;-0.59307861328125;-0.44580078125;17.05314400715135;11.606817158760512;16.557668266206065;-0.958984375;0.16259765625;0.107421875;-2.0;0.9375;-4.25;
1441975590647807;0.47943115234375;-0.46868896484375;-0.59332275390625;-0.44561767578125;17.05740828113617;11.594624316669663;16.550533495080533;-0.9638671875;0.16455078125;0.10400390625;-3.625;1.1875;-4.625;
1441975590670808;0.47998046875;-0.46807861328125;-0.5933837890625;-0.445556640625;17.062166055655684;11.581843162582127;16.541438679043676;-0.958984375;0.1572265625;0.11279296875;-5.3125;1.25;-4.8125;
1441975590691809;0.48065185546875;-0.4676513671875;-0.59326171875;-0.4454345703125;17.068971439635973;11.576656204162813;16.53939918483488;-0.9765625;0.15673828125;0.11376953125;-3.8125;1.375;-4.875;
1441975590707810;0.4813232421875;-0.46710205078125;-0.59332275390625;-0.4451904296875;17.074312385335983;11.569913301399419;16.537041580851668;-0.98583984375;0.15478515625;0.10009765625;-3.625;1.5625;-4.875;
1441975590730812;0.48193359375;-0.466552734375;-0.59326171875;-0.4451904296875;17.080520962562478;11.557973605008867;16.528248772383083;-0.9755859375;0.15625;0.09765625;-4.5;1.25;-4.875;
1441975590751813;0.48236083984375;-0.4661865234375;-0.59320068359375;-0.44512939453125;17.084858940403024;11.551556354899207;16.52411854845069;-0.978515625;0.13427734375;0.1005859375;-3.625;1.0625;-4.125;
1441975590767814;0.48260498046875;-0.46588134765625;-0.59332275390625;-0.445068359375;17.086221524598844;11.544987630523144;16.519647517537457;-0.9716796875;0.13232421875;0.095703125;-2.25;0.75;-2.8125;
1441975590790815;0.482666015625;-0.4656982421875;-0.5936279296875;-0.44476318359375;17.084078053351107;11.54564880313469;16.52278501705928;-0.96728515625;0.12939453125;0.10205078125;-2.1875;0.0625;-1.4375;
1441975590811816;0.482666015625;-0.4654541015625;-0.5941162109375;-0.44427490234375;17.07977146202388;11.5476437869115;16.528334627739536;-0.9677734375;0.13330078125;0.09912109375;-2.5625;-0.25;0.125;
1441975590827817;0.4825439453125;-0.46533203125;-0.5947265625;-0.44384765625;17.073511180507268;11.550240667473927;16.533917836016844;-0.96435546875;0.1318359375;0.103515625;-3.625;-0.4375;1.3125;
1441975590850818;0.4822998046875;-0.4654541015625;-0.59515380859375;-0.44342041015625;17.067308191851726;11.559822054243163;16.54492721368866;-0.96337890625;0.12890625;0.103515625;-3.0;-1.0;2.5625;
1441975590871820;0.48187255859375;-0.46563720703125;-0.595703125;-0.44293212890625;17.058453028613236;11.570832802293161;16.55720614097174;-0.9541015625;0.13330078125;0.09375;-1.5;-0.875;2.8125;
1441975590887821;0.48162841796875;-0.4656982421875;-0.5963134765625;-0.4422607421875;17.050443182437792;11.582892644430395;16.572122621537606;-0.9599609375;0.1455078125;0.09814453125;-1.25;-1.1875;3.0;
1441975590909822;0.4814453125;-0.465576171875;-0.59698486328125;-0.4417724609375;17.043076825578684;11.585862699713049;16.578269289599298;-0.96142578125;0.154296875;0.09130859375;-2.875;-1.125;2.6875;
1441975590931823;0.4813232421875;-0.465576171875;-0.5972900390625;-0.44146728515625;17.03916126634509;11.590292507296049;16.58412773530642;-0.9599609375;0.14599609375;0.1044921875;-3.3125;-1.25;2.0;
1441975590947824;0.48114013671875;-0.46575927734375;-0.59747314453125;-0.4412841796875;17.035661873898164;11.597136527999615;16.590971756009992;-0.96240234375;0.13525390625;0.09619140625;-1.5625;-0.75;1.6875;
1441975590969825;0.48095703125;-0.46600341796875;-0.59759521484375;-0.4410400390625;17.032401483470807;11.607183412110173;16.60085892849113;-0.9580078125;0.13525390625;0.1025390625;0.125;-0.125;1.5;
1441975590991827;0.48101806640625;-0.4661865234375;-0.59771728515625;-0.44061279296875;17.0308652188124;11.620569524167117;16.615483874570394;-0.958984375;0.1396484375;0.0986328125;0.1875;0.25;1.5625;
1441975591007827;0.48114013671875;-0.46612548828125;-0.5980224609375;-0.44012451171875;17.028660030677194;11.62820307666634;16.625944809382972;-0.96435546875;0.13623046875;0.08984375;-1.125;0.4375;1.5625;
1441975591029829;0.48138427734375;-0.4659423828125;-0.598388671875;-0.43951416015625;17.02691471101741;11.63549715585053;16.637305352263482;-0.96435546875;0.138671875;0.09912109375;-3.0;0.6875;1.5625;
1441975591053830;0.4815673828125;-0.46600341796875;-0.59857177734375;-0.43902587890625;17.025932233343557;11.647137096193736;16.65123311009015;-0.9619140625;0.13330078125;0.103515625;-3.75;1.3125;1.5625;
1441975591075831;0.48175048828125;-0.466064453125;-0.5986328125;-0.4385986328125;17.025965346367915;11.658254665763078;16.664129569158497;-0.9638671875;0.1298828125;0.10302734375;-2.1875;1.8125;1.75;
1441975591089832;0.48199462890625;-0.46612548828125;-0.59869384765625;-0.43817138671875;17.02649294206529;11.66963323158538;16.677446413124546;-0.97021484375;0.1337890625;0.10205078125;-1.5;2.0625;1.3125;
1441975591113834;0.482177734375;-0.46630859375;-0.5987548828125;-0.437744140625;17.026311495442695;11.683780025457192;16.692991537907087;-0.96728515625;0.12890625;0.1025390625;-1.75;1.9375;1.4375;
1441975591127834;0.48236083984375;-0.46649169921875;-0.59881591796875;-0.437255859375;17.02595731452363;11.699237663862313;16.710037849093194;-0.9658203125;0.13427734375;0.0986328125;-1.25;2.125;1.3125;
1441975591149836;0.48236083984375;-0.46673583984375;-0.598876953125;-0.4368896484375;17.024246726854507;11.712713604021994;16.724053777863514;-0.96533203125;0.1376953125;0.09814453125;-1.125;2.3125;1.625;
1441975591173837;0.482421875;-0.46697998046875;-0.59893798828125;-0.43646240234375;17.022871166309805;11.727738212100746;16.739967975030087;-0.95556640625;0.1318359375;0.1083984375;-0.4375;2.1875;2.0625;
1441975591187838;0.48248291015625;-0.46734619140625;-0.59912109375;-0.435791015625;17.01975811374723;11.750008461006374;16.763826986257854;-0.96875;0.13818359375;0.1025390625;-0.6875;2.25;2.25;
1441975591209839;0.482666015625;-0.46728515625;-0.59954833984375;-0.43505859375;17.016401249751482;11.761781643939255;16.779667463330178;-0.97998046875;0.1533203125;0.09228515625;-1.5;2.125;2.375;
1441975591233840;0.48284912109375;-0.46734619140625;-0.59979248046875;-0.4344482421875;17.0144560927822;11.775248091977335;16.79596208258993;-0.9755859375;0.1513671875;0.1005859375;-3.625;1.5625;2.0;
1441975591247841;0.4827880859375;-0.46759033203125;-0.5999755859375;-0.43408203125;17.011226588543103;11.78715442392407;16.808567497548726;-0.97119140625;0.140625;0.095703125;-2.9375;1.5;2.3125;
1441975591269842;0.48223876953125;-0.46820068359375;-0.5999755859375;-0.43389892578125;17.005086000337165;11.80283054482725;16.821478923282164;-0.95361328125;0.1240234375;0.1025390625;-0.25;1.6875;3.5;
1441975591293844;0.4813232421875;-0.46929931640625;-0.60003662109375;-0.4337158203125;16.99454504546787;11.827504918000537;16.841068126125023;-0.947265625;0.115234375;0.1064453125;3.0;0.9375;5.0625;
1441975591307845;0.48016357421875;-0.470703125;-0.600341796875;-0.43304443359375;16.978199457784157;11.865413082063597;16.874461860479663;-0.95166015625;0.13427734375;0.10009765625;5.625;0.4375;6.75;
1441975591329846;0.4791259765625;-0.4722900390625;-0.60076904296875;-0.431884765625;16.9600005076315;11.915666486704033;16.921789089639415;-0.9453125;0.17626953125;0.09912109375;4.8125;0.875;7.5625;
1441975591352847;0.4781494140625;-0.474365234375;-0.60107421875;-0.4302978515625;16.94043118628016;11.984690994808098;16.987536781636614;-0.93505859375;0.19873046875;0.115234375;3.5625;3.9375;8.75;
1441975591367848;0.477294921875;-0.47705078125;-0.60125732421875;-0.42803955078125;16.918351131570482;12.078742953687856;17.078501240402954;-0.931640625;0.205078125;0.11669921875;4.5;7.5;10.75;
1441975591389849;0.47637939453125;-0.47991943359375;-0.60186767578125;-0.42498779296875;16.888357839340912;12.182288241676957;17.181818952323873;-0.93798828125;0.25830078125;0.07861328125;3.6875;8.6875;10.75;
1441975591412851;0.47503662109375;-0.48291015625;-0.60302734375;-0.42132568359375;16.8471701644892;12.284185479208178;17.285331001304506;-0.91796875;0.24560546875;0.0830078125;1.6875;10.875;16.4375;
1441975591434852;0.47308349609375;-0.48675537109375;-0.604736328125;-0.41668701171875;16.789353487861487;12.399650051008294;17.402633073964235;-0.900390625;0.2412109375;0.08447265625;0.25;10.0625;22.1875;
1441975591449853;0.47125244140625;-0.490478515625;-0.60723876953125;-0.41070556640625;16.71990384524751;12.5139486664056;17.52574554037552;-0.89404296875;0.314453125;0.0625;-0.5;10.0;26.375;
1441975591473854;0.4698486328125;-0.4930419921875;-0.61065673828125;-0.4041748046875;16.647762174829708;12.598104926125373;17.627590301271375;-0.87158203125;0.35302734375;0.01953125;-7.5;9.125;30.4375;
1441975591494855;0.4681396484375;-0.495361328125;-0.61419677734375;-0.39776611328125;16.572938413539696;12.66398650313306;17.71109380963237;-0.83447265625;0.330078125;0.01025390625;-16.5;6.6875;32.0;
1441975591516857;0.46575927734375;-0.4984130859375;-0.617431640625;-0.391845703125;16.493745986331753;12.725438250051543;17.783809685460334;-0.80517578125;0.30029296875;0.0244140625;-16.25;5.5625;34.75;
1441975591532857;0.462646484375;-0.50225830078125;-0.62017822265625;-0.38616943359375;16.40932769843409;12.787765606834107;17.850972458592956;-0.771484375;0.2880859375;0.03564453125;-9.8125;5.4375;37.25;
1441975591554859;0.459228515625;-0.50634765625;-0.62261962890625;-0.3809814453125;16.32537230804982;12.842835352714298;17.906983661075216;-0.73388671875;0.28564453125;0.02587890625;-3.3125;4.8125;39.625;
1441975591569860;0.45526123046875;-0.51055908203125;-0.624755859375;-0.3765869140625;16.242572671171764;12.886195569482464;17.946164028439583;-0.6953125;0.26025390625;0.02294921875;0.5625;3.375;40.5625;
1441975591592861;0.450439453125;-0.5155029296875;-0.626220703125;-0.37322998046875;16.159783114044664;12.926196598215174;17.97238769518975;-0.634765625;0.208984375;0.021484375;5.5625;1.0625;42.0625;
1441975591614862;0.4443359375;-0.521240234375;-0.6273193359375;-0.3707275390625;16.071167772475846;12.960524035169799;17.983370927733358;-0.56689453125;0.16357421875;0.041015625;15.125;-0.3125;43.5625;
1441975591629863;0.43731689453125;-0.5279541015625;-0.62811279296875;-0.3681640625;15.972947598905149;13.000631573237765;17.993958889833472;-0.50341796875;0.130859375;0.06494140625;24.5625;-3.3125;47.0;
1441975591653864;0.429931640625;-0.534912109375;-0.6290283203125;-0.365234375;15.868136833123128;13.040219443625519;0.0036699284509965433;-0.44580078125;0.14501953125;0.06982421875;31.4375;-2.6875;49.8125;
1441975591674866;0.42303466796875;-0.54119873046875;-0.63031005859375;-0.36181640625;15.764772411749465;13.07399173383693;0.013397507985189351;-0.44091796875;0.234375;0.0888671875;31.625;-1.375;48.125;
1441975591689866;0.417724609375;-0.54534912109375;-0.63232421875;-0.35821533203125;15.677046404210333;13.090039360444388;0.018847891202194357;-0.47900390625;0.31103515625;0.06884765625;25.125;-1.75;43.9375;
1441975591714868;0.413818359375;-0.5467529296875;-0.63592529296875;-0.354248046875;15.60100851094535;13.077793123243364;0.013825021683275597;-0.51611328125;0.330078125;0.0390625;10.9375;-3.875;36.75;
1441975591734869;0.4110107421875;-0.5467529296875;-0.63983154296875;-0.3504638671875;15.538384878028925;13.055744141314019;0.006650028115226664;-0.51318359375;0.2919921875;0.06201171875;-7.125;-5.625;33.0625;
1441975591749870;0.40887451171875;-0.547607421875;-0.64178466796875;-0.3480224609375;15.494805919110709;13.051983222072955;0.007404261344964819;-0.46533203125;0.21875;0.126953125;-13.125;-1.5625;29.875;
1441975591780872;0.406005859375;-0.55029296875;-0.6419677734375;-0.34674072265625;15.454057092083294;13.067259004149253;0.01100659783238834;-0.482421875;0.125;0.12158203125;-1.3125;2.3125;27.8125;
1441975591794872;0.402099609375;-0.554443359375;-0.641357421875;-0.3458251953125;15.405792534657715;13.093661819665702;0.014981723738361702;-0.509765625;0.1064453125;0.1064453125;14.625;2.9375;28.5625;
1441975591809873;0.3974609375;-0.55841064453125;-0.641357421875;-0.34490966796875;15.350102048879679;13.110359549890191;0.009450859733171321;-0.56787109375;0.15576171875;0.11083984375;25.3125;2.5625;31.4375;
1441975591832875;0.39263916015625;-0.561279296875;-0.642822265625;-0.34295654296875;15.284159228086327;13.111966308539085;17.99899747531855;-0.638671875;0.19873046875;0.119140625;24.4375;-1.6875;34.5;
1441975591854876;0.388671875;-0.5626220703125;-0.6456298828125;-0.3399658203125;15.217772194993863;13.100945949742345;17.989974205427487;-0.69775390625;0.2880859375;0.1171875;13.375;-4.8125;36.125;
1441975591869877;0.385986328125;-0.5618896484375;-0.6495361328125;-0.3369140625;15.163526355649154;13.072115173177169;17.97641109632552;-0.77783203125;0.3828125;0.12548828125;-0.6875;-4.625;33.8125;
1441975591892878;0.38470458984375;-0.559814453125;-0.6534423828125;-0.33428955078125;15.127470392404158;13.037003311415525;17.96333596994427;-0.87939453125;0.40283203125;0.1357421875;-14.5;-5.8125;29.875;
1441975591914879;0.38360595703125;-0.556884765625;-0.65777587890625;-0.3319091796875;15.095401176364744;12.992560917346161;17.944566262234147;-0.9638671875;0.35400390625;0.12744140625;-21.1875;-6.625;27.0;
1441975591929880;0.38177490234375;-0.55474853515625;-0.6617431640625;-0.32977294921875;15.057778287612141;12.95351232869053;17.92493763470734;-0.9912109375;0.32275390625;0.146484375;-25.125;-8.625;27.875;
1441975591952882;0.37939453125;-0.55230712890625;-0.66644287109375;-0.32696533203125;15.009222462098974;12.909397947883296;17.903902716448034;-0.99951171875;0.33984375;0.1357421875;-19.625;-10.875;29.8125;
1441975591974883;0.37652587890625;-0.5494384765625;-0.67242431640625;-0.32281494140625;14.943901266979656;12.85965323276972;17.885135167557614;-1.009765625;0.37841796875;0.11328125;-24.6875;-15.125;33.3125;
1441975591989884;0.37347412109375;-0.54718017578125;-0.67822265625;-0.3179931640625;14.871566873300063;12.8193680378685;17.875142057128656;-0.99365234375;0.46435546875;0.14794921875;-32.25;-15.3125;36.4375;
1441975592012885;0.37225341796875;-0.54425048828125;-0.68328857421875;-0.31365966796875;14.822168053426003;12.782752990241919;17.87244424738868;-1.0244140625;0.5830078125;0.1591796875;-30.9375;-12.5;35.25;
1441975592035886;0.37200927734375;-0.53997802734375;-0.68792724609375;-0.3111572265625;14.797766142231522;12.734032578855729;17.85756568531928;-1.0986328125;0.59765625;0.11279296875;-35.875;-10.625;27.3125;
1441975592049887;0.37066650390625;-0.53521728515625;-0.69317626953125;-0.3094482421875;14.767533393270913;12.672110201315336;17.82723736305046;-1.15673828125;0.51171875;0.087890625;-38.1875;-16.9375;20.9375;
1441975592072888;0.3682861328125;-0.53228759765625;-0.6976318359375;-0.30731201171875;14.72387315621339;12.628181842217709;17.805510945255456;-1.10595703125;0.44580078125;0.1435546875;-35.625;-23.0;23.375;
1441975592095890;0.365234375;-0.53076171875;-0.701416015625;-0.30487060546875;14.671601574442597;12.598708396001859;17.791132222885405;-1.0146484375;0.4287109375;0.12060546875;-26.375;-21.8125;29.125;
1441975592109890;0.36181640625;-0.53045654296875;-0.7044677734375;-0.302490234375;14.616385169569575;12.581583421361087;17.782002952264925;-1.01513671875;0.49365234375;0.11279296875;-19.1875;-20.9375;30.8125;
1441975592132892;0.35791015625;-0.53057861328125;-0.70721435546875;-0.300537109375;14.559689531418838;12.566630674504694;17.77014217948378;-1.02685546875;0.54638671875;0.07373046875;-13.25;-22.125;30.8125;
1441975592155893;0.353515625;-0.53173828125;-0.70904541015625;-0.29931640625;14.50436216804418;12.560191437377426;17.75720917753185;-1.0146484375;0.60986328125;0.0830078125;-10.0;-23.25;27.625;
