1441975717636070;0.0367431640625;-0.718994140625;-0.68841552734375;-0.0885009765625;10.024417067138073;13.606435747276628;17.798929952140448;-1.56689453125;-0.2890625;-0.21044921875;157.375;24.9375;221.5;
1441975717658071;0.02032470703125;-0.72564697265625;-0.68463134765625;-0.06634521484375;9.712901937983641;13.655545926983104;17.82278925917976;-1.306640625;-0.1044921875;-0.0771484375;107.0625;20.25;192.125;
1441975717683073;0.0091552734375;-0.728271484375;-0.683837890625;-0.04547119140625;9.451609818750807;13.674689800647144;17.85957236311954;-1.16552734375;-0.01611328125;-0.01171875;45.375;31.5625;174.625;
1441975717711074;0.00360107421875;-0.729248046875;-0.6837158203125;-0.0277099609375;9.259849726248808;13.682446279278922;17.906387078227166;-1.05078125;0.1142578125;0.04345703125;16.3125;45.0;145.875;
1441975717734076;0.0087890625;-0.72943115234375;-0.68389892578125;-0.0172119140625;9.212762309367548;13.683951216031298;17.96927152566836;-0.904296875;0.2880859375;0.07275390625;6.5625;53.75;108.0625;
1441975717750077;0.0198974609375;-0.728515625;-0.6846923828125;-0.0098876953125;9.23872095744228;13.6785390127528;0.044303102299503974;-0.7158203125;0.4765625;0.03271484375;3.6875;67.4375;67.9375;
1441975717758077;0.037353515625;-0.72259521484375;-0.6903076171875;-0.00592041015625;9.344675887775782;13.634866661707624;0.13150451558844625;-0.587890625;0.72998046875;-0.02685546875;-6.625;76.5625;21.3125;
1441975717778078;0.05975341796875;-0.7095947265625;-0.70208740234375;-0.00335693359375;9.508683494926645;13.54071765798207;0.23058282093209173;-0.48486328125;0.87353515625;-0.06640625;-49.4375;85.625;-27.75;
1441975717802080;0.0875244140625;-0.69287109375;-0.71575927734375;-0.00360107421875;9.748552966568887;13.428936038445864;0.3363045998515956;-0.43701171875;0.91552734375;0.00927734375;-101.0625;96.375;-78.8125;
1441975717816080;0.1192626953125;-0.6767578125;-0.72650146484375;-0.00787353515625;10.059871133440637;13.337759820942829;0.43880315477352627;-0.49169921875;0.8154296875;0.06005859375;-122.5625;105.9375;-112.75;
1441975717838082;0.15380859375;-0.6629638671875;-0.7325439453125;-0.01763916015625;10.44008357937434;13.281670050603456;0.5297143468481801;-0.4990234375;0.75634765625;0.02197265625;-107.4375;107.125;-145.625;
1441975717861083;0.190673828125;-0.6507568359375;-0.734375;-0.03094482421875;10.868068178543627;13.256524304310442;0.6177409612151494;-0.60107421875;0.7177734375;-0.04296875;-77.5;100.3125;-176.8125;
1441975717875084;0.22967529296875;-0.638916015625;-0.732666015625;-0.0477294921875;11.342349132314904;13.255839658314752;0.7049947995742425;-0.68310546875;0.83935546875;-0.1044921875;-53.25;100.1875;-200.0;
1441975717898085;0.2685546875;-0.62579345703125;-0.729248046875;-0.06793212890625;11.84658128905769;13.262924420141308;0.7820161000645715;-0.8486328125;0.85693359375;-0.2275390625;-36.625;98.875;-221.875;
1441975717921086;0.30517578125;-0.61163330078125;-0.72412109375;-0.09173583984375;12.365486965307069;13.274202507381554;0.8395310064342485;-1.03271484375;0.7861328125;-0.27783203125;-31.9375;86.8125;-236.4375;
1441975717936087;0.3402099609375;-0.597900390625;-0.7161865234375;-0.1180419921875;12.893284106879625;13.302353715450542;0.88972080628059;-1.13232421875;0.76220703125;-0.232421875;-22.6875;67.0;-245.75;
1441975717958089;0.374267578125;-0.5845947265625;-0.705322265625;-0.14398193359375;13.4128869843821;13.354730883257478;0.9533299970477889;-1.15185546875;0.64599609375;-0.1357421875;-4.0625;57.3125;-251.9375;
1441975717981090;0.4052734375;-0.57318115234375;-0.6917724609375;-0.1695556640625;13.902753057096021;13.436582505934426;1.0266508925329543;-1.240234375;0.50146484375;-0.08544921875;8.8125;61.25;-247.375;
1441975717996091;0.4322509765625;-0.565185546875;-0.6744384765625;-0.197265625;14.370608251625384;13.560472077257261;1.1039910372609372;-1.3583984375;0.44189453125;-0.01220703125;28.5625;58.75;-233.4375;
1441975718018092;0.455322265625;-0.55865478515625;-0.6551513671875;-0.22662353515625;14.819240566883174;13.711257014926034;1.1846292646798549;-1.40380859375;0.43212890625;-0.02001953125;63.125;48.25;-225.75;
1441975718041093;0.47528076171875;-0.5516357421875;-0.6357421875;-0.25640869140625;15.251171640146131;13.875170072897921;1.2723391581744794;-1.40185546875;0.4580078125;-0.048828125;84.0;34.75;-220.375;
1441975718056094;0.49285888671875;-0.54254150390625;-0.61767578125;-0.28509521484375;15.665672607060399;14.04151604284899;1.3719482622329464;-1.36669921875;0.4599609375;-0.0869140625;87.4375;21.125;-215.6875;
1441975718078095;0.5086669921875;-0.5316162109375;-0.60101318359375;-0.312255859375;16.062330083504126;14.221079968469132;1.4959109750989772;-1.33447265625;0.443359375;-0.068359375;76.3125;10.0625;-209.5;
1441975718101097;0.52227783203125;-0.520263671875;-0.5849609375;-0.3382568359375;16.435392962741933;14.439262884725167;1.6603677131331191;-1.29248046875;0.39208984375;-0.02978515625;64.75;1.8125;-202.6875;
1441975718116098;0.53363037109375;-0.50897216796875;-0.56964111328125;-0.3629150390625;16.778778554451954;14.723411616618307;1.8915701581950206;-1.29736328125;0.30615234375;-0.01123046875;61.1875;-4.1875;-192.4375;
1441975718138099;0.54290771484375;-0.49896240234375;-0.554443359375;-0.38592529296875;17.078353876962193;15.15276123742341;2.2645420730849555;-1.2470703125;0.19873046875;0.03125;60.1875;-9.0;-179.3125;
1441975718161100;0.5501708984375;-0.48944091796875;-0.54046630859375;-0.4071044921875;17.327863357094714;15.807183381780224;2.86503241328367;-1.17919921875;0.17724609375;0.04296875;63.125;-8.75;-164.6875;
1441975718176101;0.55548095703125;-0.47991943359375;-0.52880859375;-0.42608642578125;17.513064853914535;16.81190523840357;3.82377460817251;-1.134765625;0.10693359375;-0.02001953125;59.875;-13.5625;-149.0;
1441975718198102;0.55859375;-0.47125244140625;-0.519287109375;-0.44305419921875;17.607959429798502;0.23253842108001793;5.201928769129957;-1.12158203125;-0.005859375;-0.0244140625;50.6875;-21.3125;-130.125;
1441975718221104;0.56085205078125;-0.46356201171875;-0.5126953125;-0.455810546875;17.604705037119643;1.5716127903001271;6.513979102005742;-1.06689453125;-0.01220703125;-0.0107421875;46.375;-27.0;-110.5625;
1441975718244105;0.5635986328125;-0.45611572265625;-0.509521484375;-0.46337890625;17.557780562528755;2.4120533179454777;7.352916968827841;-0.98779296875;0.01171875;-0.01806640625;29.9375;-23.5;-88.875;
1441975718258106;0.5665283203125;-0.448486328125;-0.50921630859375;-0.46759033203125;17.510349371663867;2.9425908247087387;7.900904057583466;-0.93701171875;-4.8828125E-4;-0.05859375;4.0625;-21.6875;-65.5;
1441975718281107;0.56719970703125;-0.44207763671875;-0.50970458984375;-0.47235107421875;17.473322437486384;3.4052029187777366;8.371653779860557;-0.947265625;-0.10205078125;-0.0927734375;-15.75;-25.4375;-43.3125;
1441975718296108;0.56365966796875;-0.44024658203125;-0.5103759765625;-0.47760009765625;17.472571134613663;3.7774049229736124;8.725759459979;-0.9609375;-0.22900390625;-0.05810546875;-6.5625;-30.75;-24.75;
1441975718318109;0.55706787109375;-0.44268798828125;-0.51141357421875;-0.48193359375;17.51205269996488;4.077740811813637;8.990579158804078;-0.873046875;-0.15771484375;-0.056640625;19.6875;-33.5625;-5.0;
1441975718341111;0.5494384765625;-0.44683837890625;-0.513916015625;-0.484130859375;17.582593825366548;4.37973586918571;9.25951395861126;-0.7919921875;-0.05419921875;-0.08349609375;36.8125;-31.8125;13.5625;
1441975718355111;0.5411376953125;-0.45135498046875;-0.518310546875;-0.48455810546875;17.673466739068424;4.847437500605583;9.701710200627573;-0.80419921875;0.005859375;-0.11474609375;34.8125;-32.5625;28.625;
1441975718378113;0.53216552734375;-0.45623779296875;-0.52362060546875;-0.4842529296875;17.762660110504225;5.7366132374899195;10.567159072222836;-0.82958984375;0.01806640625;-0.11572265625;26.875;-35.125;41.625;
1441975718401114;0.5223388671875;-0.4622802734375;-0.5294189453125;-0.48297119140625;17.822801590091487;7.541860488795829;12.347146412034899;-0.83544921875;0.0029296875;-0.09521484375;25.0625;-36.5;51.75;
1441975718416115;0.51190185546875;-0.4693603515625;-0.53509521484375;-0.48101806640625;17.789656958339837;9.777252718489033;14.554192595970619;-0.85595703125;0.033203125;-0.08544921875;26.3125;-34.8125;60.5;
1441975718438116;0.50146484375;-0.4771728515625;-0.5401611328125;-0.4786376953125;17.68619064921235;11.018601824992063;15.764609147085817;-0.88427734375;0.07763671875;-0.08203125;29.4375;-31.625;65.5;
1441975718462117;0.4910888671875;-0.4852294921875;-0.5445556640625;-0.476318359375;17.56069112030289;11.616879955955632;16.329352264846925;-0.93994140625;0.10009765625;-0.08642578125;31.75;-27.6875;67.5;
1441975718475118;0.480712890625;-0.49371337890625;-0.54833984375;-0.473876953125;17.428726949914804;11.97921824912839;16.65553541997846;-0.97412109375;0.09228515625;-0.06103515625;34.125;-23.8125;68.4375;
1441975718498119;0.470458984375;-0.50262451171875;-0.551513671875;-0.47113037109375;17.294978826542778;12.242491098169754;16.880893635480074;-0.9599609375;0.0849609375;-0.0302734375;36.9375;-18.875;70.3125;
1441975718521121;0.461181640625;-0.511474609375;-0.554443359375;-0.46734619140625;17.163294036848562;12.463240707411646;17.068958595211335;-0.93408203125;0.12451171875;9.765625E-4;38.8125;-12.375;69.4375;
1441975718536122;0.45391845703125;-0.518798828125;-0.55780029296875;-0.46234130859375;17.0409074772012;12.632201789462764;17.22011007116844;-0.93603515625;0.20166015625;-0.00830078125;33.5;-6.125;65.125;
1441975718558123;0.448974609375;-0.52392578125;-0.56207275390625;-0.4561767578125;16.93024107577567;12.751622112129594;17.340659361420343;-0.91943359375;0.2412109375;-0.02392578125;18.625;-2.5625;59.125;
1441975718582124;0.44622802734375;-0.52691650390625;-0.56658935546875;-0.44970703125;16.83934523659139;12.831856197149614;17.436082763935826;-0.8974609375;0.26025390625;-0.02392578125;-0.125;0.1875;52.4375;
1441975718595125;0.44512939453125;-0.5286865234375;-0.5704345703125;-0.44390869140625;16.77183157683933;12.89215172800959;17.51596197631574;-0.888671875;0.24951171875;-0.017578125;-14.625;2.625;43.5625;
1441975718618126;0.44525146484375;-0.5299072265625;-0.57305908203125;-0.43890380859375;16.726125469060637;12.951261078626139;17.593956258205637;-0.9033203125;0.24365234375;-0.01318359375;-18.8125;4.6875;32.75;
1441975718641128;0.4459228515625;-0.5308837890625;-0.57452392578125;-0.43505859375;16.697715279550458;13.005967683711495;17.66314173885645;-0.9208984375;0.24267578125;-0.0205078125;-18.1875;7.6875;23.3125;
1441975718655128;0.44757080078125;-0.5318603515625;-0.57440185546875;-0.432373046875;16.69106835089223;13.072289875499173;17.738802526873627;-0.94580078125;0.251953125;-0.02001953125;-13.6875;8.75;14.375;
1441975718678130;0.4501953125;-0.5322265625;-0.57330322265625;-0.43072509765625;16.704475970541207;13.137973544819015;17.81255666387261;-0.96728515625;0.25048828125;-0.03662109375;-8.625;11.3125;3.8125;
1441975718701131;0.45343017578125;-0.53179931640625;-0.57183837890625;-0.4296875;16.730498038445408;13.196738696334947;17.880614868813936;-0.9990234375;0.23486328125;-0.05126953125;-7.5625;12.125;-4.875;
1441975718716132;0.45721435546875;-0.5306396484375;-0.570068359375;-0.4295654296875;16.77014348209577;13.245762015558686;17.939061680453616;-1.00244140625;0.22412109375;-0.0537109375;-8.875;11.1875;-11.1875;
1441975718738133;0.46112060546875;-0.5291748046875;-0.567626953125;-0.4302978515625;16.82035502886995;13.293853763477486;17.9934068344989;-0.98046875;0.18896484375;-0.04150390625;-8.8125;10.25;-17.0625;
1441975718761135;0.46478271484375;-0.5283203125;-0.564208984375;-0.4320068359375;16.876613522151498;13.355602349784382;0.05328949728698324;-0.93896484375;0.16015625;-0.02587890625;-5.625;10.625;-21.5;
1441975718775135;0.46820068359375;-0.5277099609375;-0.5599365234375;-0.4345703125;16.939233672143487;13.42699999177504;0.11650537641664642;-0.93017578125;0.158203125;-0.0078125;2.8125;12.3125;-25.8125;
1441975718798137;0.47100830078125;-0.527099609375;-0.5560302734375;-0.437255859375;16.996452724109535;13.488828978110329;0.16911936114819742;-0.9306640625;0.14013671875;-0.0126953125;8.9375;11.8125;-28.4375;
1441975718821138;0.473876953125;-0.5263671875;-0.55224609375;-0.4398193359375;17.05287422616861;13.555798717501684;0.2281150301251914;-0.90087890625;0.15478515625;0.0029296875;10.1875;10.25;-28.4375;
1441975718836139;0.47662353515625;-0.5255126953125;-0.54876708984375;-0.4422607421875;17.106505058011575;13.621650226692505;0.28723130716080747;-0.869140625;0.15576171875;4.8828125E-4;8.9375;9.8125;-28.75;
1441975718858140;0.47906494140625;-0.52423095703125;-0.5460205078125;-0.44451904296875;17.155745231388575;13.66761593185524;0.32946102992360204;-0.85546875;0.14013671875;-0.013671875;7.3125;8.1875;-27.875;
1441975718881141;0.481201171875;-0.522705078125;-0.5439453125;-0.446533203125;17.199727256234297;13.69576814365757;0.3563422433427839;-0.83837890625;0.12890625;-0.00244140625;4.0;5.4375;-25.1875;
1441975718895142;0.483154296875;-0.52117919921875;-0.54229736328125;-0.4482421875;17.238588850674883;13.717664509094579;0.3785496546181753;-0.8271484375;0.1220703125;-0.00244140625;1.75;2.875;-22.6875;
1441975718918144;0.4842529296875;-0.5196533203125;-0.54107666015625;-0.4503173828125;17.27315751343446;13.703734503961751;0.3626588072186452;-0.84130859375;0.1025390625;-0.02099609375;-0.125;0.5;-19.0625;
1441975718941145;0.48406982421875;-0.51885986328125;-0.5401611328125;-0.4525146484375;17.295620172685858;13.663503659174635;0.3152241970375276;-0.84716796875;0.06103515625;-0.009765625;1.6875;-3.3125;-13.5625;
1441975718956146;0.48248291015625;-0.51910400390625;-0.5394287109375;-0.454833984375;17.30383004180939;13.604042026009408;0.24173564258271824;-0.80908203125;0.03564453125;0.00439453125;6.8125;-5.9375;-6.6875;
1441975718978147;0.47955322265625;-0.52056884765625;-0.538818359375;-0.45697021484375;17.295199253079794;13.542401422631508;0.15960129496611453;-0.77294921875;0.0439453125;0.02490234375;13.6875;-7.375;-0.125;
1441975719002148;0.4757080078125;-0.522705078125;-0.53839111328125;-0.458984375;17.27527031821973;13.476998062203942;0.07003266573414302;-0.78857421875;0.083984375;0.01708984375;20.0625;-8.5625;5.375;
1441975719015149;0.47125244140625;-0.52508544921875;-0.53863525390625;-0.46063232421875;17.243939966858278;13.401653093809248;17.971043904185084;-0.86767578125;0.1181640625;0.001953125;23.25;-11.0;9.375;
1441975719038150;0.4669189453125;-0.5269775390625;-0.53973388671875;-0.4615478515625;17.206175300032175;13.321075948887332;17.87313131399399;-0.90380859375;0.1728515625;-0.00732421875;22.625;-13.8125;11.75;
1441975719061152;0.463134765625;-0.52825927734375;-0.54132080078125;-0.4620361328125;17.16905792825925;13.242884887207776;17.78355680928929;-0.94873046875;0.22119140625;-0.0087890625;16.625;-15.375;11.875;
1441975719075152;0.4600830078125;-0.52862548828125;-0.54327392578125;-0.46240234375;17.137640359051424;13.158346744493656;17.69376601255279;-1.01416015625;0.2509765625;-0.0126953125;9.75;-15.875;10.5;
1441975719098154;0.4576416015625;-0.5281982421875;-0.54534912109375;-0.462890625;17.11310392110956;13.066482485673472;17.60067961565283;-1.03125;0.24267578125;-0.00732421875;3.9375;-16.5625;8.0;
1441975719121155;0.45587158203125;-0.52728271484375;-0.54736328125;-0.4632568359375;17.09424437717319;12.980974950723528;17.517457412850124;-1.00146484375;0.2109375;0.01171875;-0.25;-16.4375;6.0625;
1441975719136156;0.4542236328125;-0.52642822265625;-0.54949951171875;-0.46331787109375;17.073005816789045;12.905930484249485;17.446102305411372;-0.97265625;0.16162109375;0.02294921875;-3.375;-14.6875;6.4375;
1441975719158157;0.4530029296875;-0.52569580078125;-0.55206298828125;-0.4622802734375;17.045863546732047;12.85674848855269;17.405877002948472;-0.947265625;0.1474609375;0.04638671875;-4.3125;-12.25;8.5625;
1441975719180158;0.4527587890625;-0.5240478515625;-0.55584716796875;-0.4598388671875;17.014715830696897;12.810304196383315;17.38138276983279;-0.9306640625;0.14990234375;0.037109375;-9.625;-9.375;11.9375;
1441975719197159;0.4532470703125;-0.52154541015625;-0.56109619140625;-0.455810546875;16.975236717927917;12.764936233589452;17.37132643875578;-0.93505859375;0.1298828125;0.0380859375;-22.125;-7.5;15.9375;
1441975719218161;0.4542236328125;-0.5185546875;-0.5672607421875;-0.45062255859375;16.929881067000753;12.724975663223145;17.37549286979932;-0.91845703125;0.11962890625;0.041015625;-35.3125;-6.8125;21.6875;
1441975719242162;0.45513916015625;-0.5155029296875;-0.57366943359375;-0.44500732421875;16.88077392022575;12.688781553316165;17.38541519924543;-0.9248046875;0.09521484375;0.03271484375;-44.0625;-6.125;27.125;
1441975719272164;0.45526123046875;-0.5133056640625;-0.57977294921875;-0.43951416015625;16.825206042633695;12.664233426332402;17.40106432623955;-0.96923828125;0.06787109375;0.03173828125;-45.75;-6.3125;31.9375;
1441975719278164;0.45458984375;-0.51190185546875;-0.5853271484375;-0.4344482421875;16.766354035999104;12.647351776811572;17.41705508133025;-1.0029296875;0.07763671875;0.01806640625;-40.125;-7.75;35.8125;
1441975719301165;0.452880859375;-0.51129150390625;-0.59039306640625;-0.43011474609375;16.703386076367646;12.630806591956173;17.424630787314886;-1.0263671875;0.0693359375;0.0166015625;-32.75;-8.75;39.125;
1441975719316166;0.449951171875;-0.51190185546875;-0.59478759765625;-0.4263916015625;16.63396332894915;12.624234067654955;17.43149178923418;-1.0361328125;0.05859375;0.029296875;-23.8125;-10.4375;42.125;
1441975719338168;0.4461669921875;-0.51336669921875;-0.59869384765625;-0.423095703125;16.56012121663144;12.624353411672898;17.437507129218044;-1.0126953125;0.0751953125;0.03564453125;-12.875;-11.6875;44.375;
1441975719360169;0.44183349609375;-0.515380859375;-0.60235595703125;-0.41998291015625;16.4825613095446;12.628810513321831;17.443476580297595;-0.98388671875;0.09326171875;0.04248046875;-5.5;-12.0;45.8125;
1441975719375170;0.437255859375;-0.51776123046875;-0.60589599609375;-0.416748046875;16.402025801049003;12.638833388073747;17.45327101505591;-0.9482421875;0.1044921875;0.05615234375;-1.25;-11.5625;47.0;
1441975719398171;0.432861328125;-0.520263671875;-0.6092529296875;-0.413330078125;16.32267553857681;12.654074165914118;17.46846907230843;-0.91357421875;0.13330078125;0.07275390625;1.125;-9.875;47.0625;
1441975719420172;0.4290771484375;-0.5224609375;-0.6124267578125;-0.40985107421875;16.24981724623796;12.669553641908;17.48619230680751;-0.90673828125;0.1630859375;0.08154296875;1.375;-7.5625;45.4375;
1441975719435173;0.426025390625;-0.52398681640625;-0.6156005859375;-0.40631103515625;16.184540329057675;12.679899413794104;17.503028916570294;-0.92333984375;0.1845703125;0.076171875;-1.0;-5.875;42.6875;
1441975719458174;0.4237060546875;-0.52484130859375;-0.6187744140625;-0.40283203125;16.127486111474663;12.684484037854407;17.517987610648632;-0.9306640625;0.189453125;0.076171875;-5.375;-5.0625;39.625;
1441975719480176;0.4219970703125;-0.52545166015625;-0.621337890625;-0.3997802734375;16.08169477194243;12.689772284319865;17.53310345918999;-0.93017578125;0.1875;0.083984375;-9.0625;-3.75;36.3125;
1441975719504177;0.42071533203125;-0.5257568359375;-0.62335205078125;-0.39752197265625;16.047486027857055;12.690677413213994;17.542013604314548;-0.9404296875;0.18798828125;0.0791015625;-8.5;-2.625;31.8125;
1441975719518178;0.419677734375;-0.5260009765625;-0.625;-0.395751953125;16.02000350814637;12.69062831636244;17.548328183494732;-0.9443359375;0.16845703125;0.07958984375;-6.8125;-2.6875;27.3125;
1441975719540179;0.4189453125;-0.526123046875;-0.62615966796875;-0.39459228515625;16.00126098417915;12.689249578736572;17.551312821681332;-0.9248046875;0.17236328125;0.0859375;-5.25;-2.4375;23.4375;
1441975719555180;0.41845703125;-0.526123046875;-0.62677001953125;-0.39404296875;15.99112825426117;12.686783893930942;17.550875032089305;-0.9208984375;0.1748046875;0.09033203125;-3.1875;-2.0;18.875;
1441975719578181;0.41839599609375;-0.5260009765625;-0.62689208984375;-0.3941650390625;15.991000750586721;12.683167706080987;17.547424776509274;-0.91845703125;0.1806640625;0.09326171875;-1.1875;-1.375;14.0625;
1441975719600183;0.41864013671875;-0.52569580078125;-0.62646484375;-0.39495849609375;16.00046926696084;12.677522539435307;17.53977418292726;-0.92626953125;0.18359375;0.0888671875;0.5625;-1.6875;9.25;
1441975719617183;0.41912841796875;-0.52520751953125;-0.6256103515625;-0.396484375;16.01865909544799;12.667966645971173;17.526020802850386;-0.94140625;0.18505859375;0.08740234375;2.0625;-1.9375;3.9375;
1441975719638185;0.419921875;-0.5245361328125;-0.62432861328125;-0.3985595703125;16.045072153388624;12.656084060933035;17.50848276487014;-0.947265625;0.1865234375;0.09033203125;4.0625;-2.1875;-0.875;
1441975719660186;0.42095947265625;-0.52392578125;-0.6224365234375;-0.401123046875;16.07916215385855;12.64611076295825;17.49017124721777;-0.94140625;0.19384765625;0.10595703125;5.8125;-1.5;-5.8125;
1441975719675187;0.4222412109375;-0.52313232421875;-0.6202392578125;-0.40423583984375;16.120253461073837;12.63200666785979;17.466446424687746;-0.93603515625;0.20166015625;0.10546875;8.125;-0.25;-10.75;
1441975719698188;0.4239501953125;-0.5220947265625;-0.61761474609375;-0.40777587890625;16.170037993612453;12.615517868129535;17.43978815686269;-0.93994140625;0.2099609375;0.11376953125;9.25;-0.125;-15.9375;
1441975719722189;0.4261474609375;-0.5206298828125;-0.61480712890625;-0.41162109375;16.227491179881333;12.593318685626596;17.40864158534147;-0.94775390625;0.22802734375;0.1103515625;9.6875;0.4375;-21.5;
1441975719735190;0.42889404296875;-0.51861572265625;-0.6119384765625;-0.41558837890625;16.291779312290682;12.564144135456147;17.373172988210428;-0.94091796875;0.22412109375;0.109375;8.0;0.6875;-26.125;
1441975719758192;0.4320068359375;-0.51641845703125;-0.608642578125;-0.419921875;16.363620589583583;12.531384201314427;17.333405680641913;-0.92578125;0.22021484375;0.10888671875;5.625;1.375;-30.5;
1441975719780193;0.435302734375;-0.51397705078125;-0.6051025390625;-0.424560546875;16.440264588239707;12.49122630218224;17.28590084656296;-0.93603515625;0.21240234375;0.10693359375;5.8125;2.0;-34.5625;
1441975719798194;0.43890380859375;-0.5113525390625;-0.601318359375;-0.429443359375;16.522089468058528;12.444478269625806;17.231801723476202;-0.94189453125;0.20654296875;0.1123046875;6.0;1.9375;-38.0625;
1441975719818195;0.442626953125;-0.50848388671875;-0.597412109375;-0.434326171875;16.605859552296536;12.389593756844333;17.17031875319507;-0.951171875;0.20361328125;0.103515625;5.9375;2.125;-41.0;
1441975719840196;0.44647216796875;-0.50543212890625;-0.593505859375;-0.4393310546875;16.6909441071305;12.323020240890378;17.09767717433235;-0.95556640625;0.19580078125;0.09716796875;4.8125;1.9375;-43.0625;
1441975719855197;0.45013427734375;-0.50244140625;-0.58941650390625;-0.44451904296875;16.775435156901587;12.245601745449347;17.01246148080515;-0.96142578125;0.1767578125;0.10009765625;4.5625;1.4375;-44.125;
1441975719878198;0.453369140625;-0.49981689453125;-0.58526611328125;-0.44970703125;16.854899897683275;12.161814140190863;16.918447924133165;-0.96044921875;0.158203125;0.10546875;6.125;1.5;-43.875;
1441975719900200;0.45623779296875;-0.49755859375;-0.58099365234375;-0.4547119140625;16.929627685250885;12.075471457707033;16.82000236626798;-0.95849609375;0.150390625;0.1044921875;8.5625;1.25;-42.75;
1441975719925201;0.45880126953125;-0.49560546875;-0.57696533203125;-0.45941162109375;16.997383472876912;11.985358688658158;16.717632613463774;-0.96728515625;0.14013671875;0.09716796875;10.375;1.375;-40.5625;
1441975719938202;0.46087646484375;-0.49371337890625;-0.573486328125;-0.46368408203125;17.054604888357623;11.885925118280372;16.60721659953338;-0.9716796875;0.1328125;0.09326171875;11.0;0.875;-37.5;
1441975719969204;0.46270751953125;-0.49200439453125;-0.570556640625;-0.46734619140625;17.102699459032024;11.787709066368429;16.500143261816124;-0.9658203125;0.125;0.095703125;9.5;-0.375;-33.625;
1441975719984204;0.464111328125;-0.49053955078125;-0.5679931640625;-0.47052001953125;17.141986220377728;11.693329832975401;16.39747015737313;-0.958984375;0.11669921875;0.0966796875;7.5625;-0.5625;-29.0625;
1441975719998205;0.46514892578125;-0.48956298828125;-0.56591796875;-0.4730224609375;17.17185684701318;11.617712625062342;16.314444803497103;-0.9638671875;0.109375;0.10009765625;7.0;-0.25;-24.25;
1441975720020207;0.4658203125;-0.48895263671875;-0.56427001953125;-0.4749755859375;17.193638955573935;11.558998659675936;16.24903798501727;-0.9794921875;0.10986328125;0.09716796875;6.5625;-0.25;-19.375;
1441975720043208;0.4659423828125;-0.48870849609375;-0.56317138671875;-0.476318359375;17.205151846844853;11.521074394953295;16.205145983820664;-0.99072265625;0.10302734375;0.09033203125;6.25;-0.3125;-13.9375;
1441975720061209;0.46551513671875;-0.48895263671875;-0.562744140625;-0.47705078125;17.20566652113078;11.509541929195226;16.188346855982108;-0.98583984375;0.10205078125;0.091796875;5.4375;-0.9375;-8.0;
1441975720081210;0.46478271484375;-0.48944091796875;-0.56280517578125;-0.47723388671875;17.198982554076263;11.517458084769942;16.192408857808402;-0.974609375;0.125;0.1005859375;5.1875;-0.75;-3.125;
1441975720103211;0.46392822265625;-0.49005126953125;-0.56329345703125;-0.476806640625;17.18706572557405;11.54292193462194;16.21631187282752;-0.9736328125;0.1318359375;0.10205078125;3.6875;-0.625;0.9375;
1441975720118212;0.462890625;-0.49072265625;-0.5643310546875;-0.47589111328125;17.16858299065806;11.578856027074323;16.252968112271876;-0.9716796875;0.13427734375;0.09619140625;1.875;-0.625;5.0625;
1441975720140213;0.46185302734375;-0.4913330078125;-0.56585693359375;-0.47442626953125;17.145414295918282;11.62265822081316;16.300657992867585;-0.96923828125;0.13818359375;0.0986328125;-0.6875;-0.9375;8.3125;
1441975720158214;0.460693359375;-0.49200439453125;-0.5677490234375;-0.47271728515625;17.117754993177797;11.669086602720558;16.352196682275988;-0.9580078125;0.138671875;0.09375;-3.375;-1.0625;11.625;
1441975720186216;0.45947265625;-0.49261474609375;-0.56976318359375;-0.47076416015625;17.088015707885745;11.715663482814927;16.40496005109599;-0.9609375;0.13671875;0.09765625;-4.6875;-1.4375;14.5625;
1441975720200217;0.4581298828125;-0.4932861328125;-0.57208251953125;-0.4686279296875;17.05426522216279;11.762320479665293;16.45867721569707;-0.97119140625;0.1220703125;0.09033203125;-5.4375;-2.5;17.3125;
1441975720223218;0.45635986328125;-0.49407958984375;-0.5745849609375;-0.46636962890625;17.01487949931918;11.808180873932738;16.510924008769628;-0.966796875;0.1083984375;0.08447265625;-6.1875;-3.0625;20.25;
1441975720246219;0.45440673828125;-0.4951171875;-0.5771484375;-0.4639892578125;16.972589046302886;11.857308436090975;16.565740404974132;-0.96826171875;0.10986328125;0.09619140625;-5.6875;-3.625;23.125;
1441975720260220;0.45220947265625;-0.49627685546875;-0.579833984375;-0.46160888671875;16.92687595556676;11.903145635912889;16.61656824208813;-0.97021484375;0.11376953125;0.0888671875;-4.75;-4.125;25.5;
1441975720283222;0.4498291015625;-0.49761962890625;-0.58245849609375;-0.45916748046875;16.879320109687054;11.94971289663629;16.667089527737723;-0.9775390625;0.10888671875;0.0908203125;-3.9375;-4.875;27.3125;
1441975720298222;0.44720458984375;-0.49908447265625;-0.5850830078125;-0.456787109375;16.82940071725019;11.992674136318879;16.712785338628876;-0.98681640625;0.11767578125;0.08984375;-2.75;-5.125;28.875;
1441975720320224;0.44451904296875;-0.50054931640625;-0.58770751953125;-0.45440673828125;16.778719909618044;12.0317387968186;16.7544181125135;-0.98046875;0.1142578125;0.0927734375;-1.75;-5.5;30.0;
1441975720343225;0.441650390625;-0.50225830078125;-0.59027099609375;-0.45208740234375;16.726440642117495;12.070844557621484;16.794505382509556;-0.9765625;0.12158203125;0.0986328125;-1.0;-5.5625;30.75;
1441975720358226;0.43902587890625;-0.50384521484375;-0.59271240234375;-0.44964599609375;16.676653754094666;12.108431379944905;16.834143696050273;-0.9697265625;0.14404296875;0.09765625;0.125;-5.4375;30.375;
1441975720380227;0.43682861328125;-0.50494384765625;-0.5953369140625;-0.44708251953125;16.629535792494707;12.137054002483541;16.868339161567768;-0.966796875;0.1552734375;0.09423828125;-1.0625;-4.75;29.1875;
1441975720403228;0.4349365234375;-0.50567626953125;-0.59796142578125;-0.44451904296875;16.585577454012835;12.158751307258342;16.897558422452818;-0.95849609375;0.15625;0.09765625;-4.25;-4.5625;28.0625;
1441975720418229;0.433349609375;-0.50634765625;-0.60028076171875;-0.4422607421875;16.547319982759046;12.177319429082653;16.922921333284048;-0.94921875;0.15771484375;0.1044921875;-6.4375;-4.0625;26.3125;
1441975720440231;0.43206787109375;-0.50714111328125;-0.60205078125;-0.440185546875;16.515583712091356;12.199559406890856;16.950368153089666;-0.94482421875;0.1640625;0.109375;-5.5;-3.0;23.5625;
1441975720472232;0.4312744140625;-0.507568359375;-0.60357666015625;-0.4383544921875;16.491135250086465;12.215736812619154;16.972797578759405;-0.9462890625;0.1845703125;0.09716796875;-4.25;-1.5625;20.0625;
1441975720478233;0.4310302734375;-0.50738525390625;-0.60504150390625;-0.436767578125;16.4738744654791;12.22153743730868;16.987304760177818;-0.94873046875;0.18994140625;0.095703125;-5.5625;-1.3125;16.3125;
1441975720500234;0.43115234375;-0.50714111328125;-0.60595703125;-0.43560791015625;16.465007591323555;12.226329721737512;16.999195796730337;-0.9345703125;0.17431640625;0.0947265625;-7.75;-1.125;13.125;
1441975720523235;0.43157958984375;-0.50689697265625;-0.60638427734375;-0.4349365234375;16.463723357240372;12.229762633917979;17.007747755953645;-0.93896484375;0.17041015625;0.09375;-6.6875;-0.25;9.625;
1441975720538236;0.4322509765625;-0.50640869140625;-0.60650634765625;-0.4345703125;16.468190352868575;12.228841972979705;17.011593589190227;-0.9423828125;0.171875;0.0888671875;-4.625;0.375;5.6875;
1441975720560237;0.433349609375;-0.505615234375;-0.6064453125;-0.4345703125;16.47948239083548;12.221752473084207;17.009754771798264;-0.9384765625;0.17626953125;0.0947265625;-4.4375;0.5625;2.125;
1441975720577238;0.43463134765625;-0.50469970703125;-0.6060791015625;-0.43487548828125;16.495733015551608;12.21178016363551;17.004141679735735;-0.93701171875;0.169921875;0.09716796875;-5.25;0.875;-1.3125;
1441975720598240;0.43597412109375;-0.50396728515625;-0.6051025390625;-0.4356689453125;16.51793692791113;12.202915695544052;16.996094732588197;-0.931640625;0.16552734375;0.09716796875;-4.1875;1.3125;-4.0;
1441975720620241;0.43743896484375;-0.5032958984375;-0.60382080078125;-0.43682861328125;16.544382694460023;12.192702061780196;16.984901751035295;-0.94921875;0.16943359375;0.09375;-0.875;2.0625;-7.0;
1441975720637242;0.4390869140625;-0.50250244140625;-0.602294921875;-0.4381103515625;16.574675936670854;12.181033933473929;16.972087887899416;-0.958984375;0.16845703125;0.09130859375;0.6875;2.25;-9.625;
1441975720658243;0.44085693359375;-0.50164794921875;-0.6005859375;-0.439697265625;16.608415500249556;12.165434578100335;16.954437148330875;-0.95654296875;0.1669921875;0.08984375;0.8125;2.4375;-11.5;
1441975720680244;0.4425048828125;-0.50091552734375;-0.5986328125;-0.44158935546875;16.64356125483894;12.147971503030448;16.932629308205275;-0.9609375;0.158203125;0.1015625;1.875;3.1875;-13.4375;
1441975720697245;0.44415283203125;-0.500244140625;-0.59649658203125;-0.4434814453125;16.67976097377893;12.131944787663961;16.911575221865583;-0.95849609375;0.15771484375;0.1025390625;3.9375;3.3125;-14.75;
1441975720718246;0.446044921875;-0.49932861328125;-0.594482421875;-0.44537353515625;16.71759974857771;12.110603510220137;16.88695046237161;-0.958984375;0.1669921875;0.10009765625;4.5625;3.625;-16.125;
1441975720740248;0.44805908203125;-0.4981689453125;-0.5924072265625;-0.4473876953125;16.75768965531745;12.082285284600426;16.855886826781983;-0.96630859375;0.15478515625;0.09814453125;3.0625;3.375;-16.6875;
1441975720772250;0.44970703125;-0.497314453125;-0.59033203125;-0.449462890625;16.794191234541024;12.055239554886088;16.823990277462517;-0.9755859375;0.12841796875;0.09716796875;2.25;3.0;-16.625;
1441975720778250;0.45098876953125;-0.4969482421875;-0.5880126953125;-0.45159912109375;16.8284784627915;12.035330187879692;16.795905653582057;-0.9609375;0.12841796875;0.10107421875;4.625;3.125;-15.875;
1441975720800251;0.4522705078125;-0.4967041015625;-0.5858154296875;-0.45343017578125;16.860660479834905;12.021075167050311;16.77436580899999;-0.9560546875;0.150390625;0.09912109375;7.4375;3.4375;-16.125;
1441975720823252;0.45367431640625;-0.49627685546875;-0.58392333984375;-0.45501708984375;16.891261499036336;12.004614145744068;16.753081094762816;-0.966796875;0.171875;0.0859375;6.6875;3.3125;-16.4375;
1441975720838253;0.45526123046875;-0.49542236328125;-0.5821533203125;-0.45654296875;16.92306952250939;11.978771362104936;16.724720972342865;-0.97705078125;0.18408203125;0.0830078125;4.0;3.0625;-16.625;
1441975720860255;0.4566650390625;-0.49468994140625;-0.580322265625;-0.458251953125;16.953992664244584;11.950007766085559;16.691854915398807;-0.9755859375;0.1669921875;0.0888671875;2.0;2.9375;-16.8125;
1441975720883256;0.4578857421875;-0.494140625;-0.5784912109375;-0.45989990234375;16.98279266897245;11.924041954014983;16.66091897382395;-0.97412109375;0.15380859375;0.09814453125;3.4375;3.1875;-16.5;
1441975720899257;0.45904541015625;-0.49365234375;-0.57684326171875;-0.46148681640625;17.009390668253317;11.897512314228301;16.629757788702094;-0.9658203125;0.15771484375;0.09814453125;4.5625;3.0625;-16.125;
1441975720920258;0.46026611328125;-0.4930419921875;-0.57537841796875;-0.46270751953125;17.03432274421582;11.873275899045183;16.603024185601637;-0.9619140625;0.15234375;0.0947265625;4.0;2.875;-14.9375;
1441975720943259;0.46142578125;-0.492431640625;-0.57427978515625;-0.46356201171875;17.055086477592102;11.852872991677526;16.582060212617193;-0.97265625;0.14892578125;0.09130859375;2.1875;2.75;-13.5;
1441975720959260;0.46246337890625;-0.49169921875;-0.57342529296875;-0.46429443359375;17.072878342524035;11.828803332742085;16.55849536014581;-0.97265625;0.150390625;0.08642578125;0.25;2.5625;-11.8125;
1441975720980261;0.4632568359375;-0.4910888671875;-0.57275390625;-0.4649658203125;17.086902995614338;11.805996962975561;16.53584316745297;-0.97607421875;0.138671875;0.095703125;-1.0;2.25;-9.9375;
1441975721004263;0.4638671875;-0.49090576171875;-0.57220458984375;-0.46533203125;17.097149614279044;11.799360906332112;16.528828483383673;-0.97314453125;0.13330078125;0.10205078125;-0.4375;2.0625;-8.0625;
1441975721019264;0.46429443359375;-0.4908447265625;-0.57183837890625;-0.46539306640625;17.103642200680817;11.800922482859217;16.530558278641415;-0.97265625;0.1435546875;0.091796875;0.375;2.3125;-6.0;
1441975721049265;0.46453857421875;-0.4908447265625;-0.5716552734375;-0.46527099609375;17.10674791966655;11.806305818023793;16.536474377208272;-0.96923828125;0.150390625;0.0927734375;-0.125;2.3125;-4.375;
1441975721063266;0.46484375;-0.49090576171875;-0.57177734375;-0.46484375;17.107302323949835;11.81863888213929;16.5510784724717;-0.9677734375;0.14892578125;0.091796875;-0.875;2.25;-2.4375;
1441975721079267;0.46502685546875;-0.490966796875;-0.572021484375;-0.46429443359375;17.1056330340163;11.832351618451973;16.56742685836429;-0.95654296875;0.1484375;0.08203125;-1.9375;1.875;-0.75;
1441975721100268;0.46514892578125;-0.4910888671875;-0.5723876953125;-0.463623046875;17.10214262105933;11.849254396627128;16.58731580955941;-0.96533203125;0.1533203125;0.083984375;-2.625;1.8125;0.3125;
1441975721123270;0.4652099609375;-0.4910888671875;-0.5728759765625;-0.46295166015625;17.097411324800714;11.861509306787955;16.603090020962096;-0.9677734375;0.14404296875;0.07763671875;-3.1875;1.25;1.8125;
1441975721139271;0.46490478515625;-0.49139404296875;-0.57330322265625;-0.46234130859375;17.089725527137762;11.878769149622721;16.621598769735385;-0.96240234375;0.12548828125;0.08349609375;-3.125;0.625;3.5;
1441975721169272;0.46441650390625;-0.49200439453125;-0.57379150390625;-0.46160888671875;17.079207114257795;11.904937850384812;16.64813284497657;-0.96533203125;0.125;0.0849609375;-1.3125;0.5625;5.3125;
1441975721183273;0.46392822265625;-0.49249267578125;-0.57452392578125;-0.46063232421875;17.06640116458801;11.930866224739257;16.67619427625908;-0.9814453125;0.1337890625;0.0791015625;-0.1875;0.3125;6.6875;
1441975721201274;0.4635009765625;-0.4927978515625;-0.5755615234375;-0.45947265625;17.051640200726993;11.95330355989492;16.70286852759479;-0.9775390625;0.14208984375;0.07763671875;-1.5625;-0.0625;7.4375;
1441975721220275;0.46307373046875;-0.49310302734375;-0.57659912109375;-0.458251953125;17.036640477282763;11.976303301540757;16.730289017531415;-0.97412109375;0.13818359375;0.0859375;-3.8125;0.1875;8.4375;
1441975721243276;0.46270751953125;-0.4935302734375;-0.57757568359375;-0.4569091796875;17.021911778437904;12.004935741382173;16.763343258336334;-0.9697265625;0.1337890625;0.09375;-4.125;0.8125;9.25;
1441975721259277;0.46234130859375;-0.49395751953125;-0.5787353515625;-0.45538330078125;17.005214731927097;12.034846008998056;16.79872831694569;-0.95654296875;0.13134765625;0.08984375;-3.8125;1.4375;10.1875;
1441975721280279;0.462158203125;-0.494384765625;-0.5799560546875;-0.45355224609375;16.98850486226007;12.070425688635567;16.84137026258242;-0.9541015625;0.138671875;0.0869140625;-4.75;1.8125;10.625;
1441975721311280;0.4622802734375;-0.49444580078125;-0.581298828125;-0.45159912109375;16.973665404892873;12.099620147979305;16.880267487473194;-0.9619140625;0.15087890625;0.08154296875;-6.6875;2.25;10.75;
1441975721327281;0.46246337890625;-0.494384765625;-0.5826416015625;-0.4498291015625;16.960071736846178;12.12193702121061;16.912271896111346;-0.96826171875;0.14599609375;0.07373046875;-9.0;2.1875;10.375;
1441975721343282;0.4625244140625;-0.49444580078125;-0.58380126953125;-0.44818115234375;16.946804546492505;12.144814268644975;16.94326907598004;-0.96533203125;0.13671875;0.0830078125;-9.0625;1.6875;10.125;
1441975721363283;0.462646484375;-0.49456787109375;-0.58477783203125;-0.4466552734375;16.935486239177816;12.168168216357017;16.973858607469253;-0.966796875;0.1416015625;0.0849609375;-7.4375;2.125;9.4375;
1441975721379284;0.46282958984375;-0.49462890625;-0.58575439453125;-0.445068359375;16.924507222151057;12.191178354307407;17.00464123609302;-0.955078125;0.15185546875;0.07861328125;-6.8125;2.3125;8.4375;
1441975721400285;0.46319580078125;-0.494384765625;-0.586669921875;-0.44378662109375;16.91720291397725;12.203376071346145;17.024944172940764;-0.951171875;0.1591796875;0.0693359375;-7.3125;1.9375;7.3125;
1441975721423287;0.46356201171875;-0.49420166015625;-0.58740234375;-0.442626953125;16.911408068572623;12.216180965037305;17.044802908779648;-0.94775390625;0.14990234375;0.0849609375;-7.4375;2.3125;6.0;
1441975721447288;0.464111328125;-0.4940185546875;-0.58782958984375;-0.44171142578125;16.910029100106676;12.228611398771443;17.06321533497772;-0.94091796875;0.150390625;0.08349609375;-6.6875;2.375;4.875;
1441975721460289;0.46453857421875;-0.49383544921875;-0.58819580078125;-0.44097900390625;16.90873710647838;12.237430925020364;17.076964883231344;-0.9443359375;0.14208984375;0.0771484375;-5.625;2.5625;3.6875;
1441975721483290;0.4652099609375;-0.49359130859375;-0.5885009765625;-0.44012451171875;16.909504465964844;12.249472540982106;17.094988554584855;-0.9453125;0.14794921875;0.08251953125;-4.6875;2.75;2.75;
1441975721499291;0.46600341796875;-0.49334716796875;-0.5888671875;-0.43902587890625;16.909880075466816;12.26620582049982;17.118941818812143;-0.94287109375;0.16259765625;0.080078125;-5.5625;3.375;1.375;
1441975721520292;0.4666748046875;-0.493408203125;-0.5889892578125;-0.43804931640625;16.91049832600536;12.288729880996566;17.146396187475098;-0.93017578125;0.17431640625;0.09619140625;-6.6875;5.4375;0.875;
1441975721543294;0.4671630859375;-0.493896484375;-0.58905029296875;-0.43695068359375;16.908287625352877;12.32159697047212;17.182604936712565;-0.92138671875;0.15869140625;0.107421875;-4.125;7.125;1.8125;
1441975721559295;0.46771240234375;-0.49462890625;-0.5889892578125;-0.435546875;16.905250916644658;12.366503865743685;17.23087577581466;-0.89501953125;0.2021484375;0.10595703125;-2.375;8.4375;0.875;
1441975721580296;0.4683837890625;-0.49530029296875;-0.58917236328125;-0.43389892578125;16.900438794058726;12.412470430922156;17.282123584271105;-0.87646484375;0.2255859375;0.0859375;-2.625;9.375;-0.0625;
1441975721603297;0.46917724609375;-0.49591064453125;-0.58941650390625;-0.4320068359375;16.8950093706749;12.461290021223999;17.33764968732696;-0.85205078125;0.2294921875;0.07666015625;-4.5;9.125;0.75;
1441975721619298;0.4700927734375;-0.49639892578125;-0.5899658203125;-0.42974853515625;16.886974316511058;12.510866961244213;17.396574630448754;-0.8291015625;0.23486328125;0.06884765625;-5.9375;9.5625;0.5;
1441975721640299;0.4710693359375;-0.49658203125;-0.591064453125;-0.4268798828125;16.87379982143242;12.557811922396743;17.457310830628387;-0.8095703125;0.23486328125;0.06494140625;-8.6875;10.125;1.875;
1441975721688302;0.47210693359375;-0.49639892578125;-0.5926513671875;-0.42364501953125;16.857246131669143;12.597135788324216;17.514148405193644;-0.8037109375;0.25634765625;0.06640625;-12.875;9.875;2.75;
1441975721696302;0.4730224609375;-0.495849609375;-0.59490966796875;-0.42022705078125;16.83579227706769;12.621993173417563;17.559680067828033;-0.80126953125;0.23583984375;0.0537109375;-16.9375;8.1875;5.75;
1441975721700303;0.47296142578125;-0.4959716796875;-0.59710693359375;-0.4169921875;16.80565386255709;12.646706984155305;17.599683105463985;-0.75830078125;0.18701171875;0.05517578125;-19.75;5.8125;10.375;
1441975721723304;0.4718017578125;-0.49725341796875;-0.59912109375;-0.413818359375;16.764202713334527;12.681332893411021;17.642434581959613;-0.70263671875;0.1455078125;0.05908203125;-14.25;4.5625;16.5;
1441975721739305;0.46978759765625;-0.4991455078125;-0.60186767578125;-0.40985107421875;16.705437678518336;12.718317607077731;17.68779886815797;-0.65234375;0.1142578125;0.0390625;-7.125;2.375;23.6875;
1441975721760306;0.46697998046875;-0.501220703125;-0.60552978515625;-0.4051513671875;16.630690603661034;12.746904995861813;17.726808233936072;-0.6103515625;0.1279296875;0.02734375;-7.4375;0.6875;31.375;
1441975721783307;0.4630126953125;-0.50384521484375;-0.60968017578125;-0.40008544921875;16.540318376226352;12.769871837181658;17.757874184024733;-0.5615234375;0.12109375;0.04931640625;-9.3125;-0.375;39.5;
1441975721799308;0.457763671875;-0.5076904296875;-0.6136474609375;-0.395263671875;16.43789984140648;12.796158551617818;17.783837177350264;-0.51806640625;0.11474609375;0.0478515625;-6.6875;-3.1875;46.5625;
1441975721831310;0.45123291015625;-0.51336669921875;-0.61712646484375;-0.38995361328125;16.318649308704174;12.843093206489183;17.821571004254782;-0.48828125;0.1240234375;0.060546875;1.6875;-4.0625;51.75;
1441975721843311;0.44500732421875;-0.51904296875;-0.62066650390625;-0.3839111328125;16.19683707039141;12.892269687643118;17.86478193146521;-0.49365234375;0.1943359375;0.037109375;10.4375;-3.8125;56.9375;
1441975721867312;0.43951416015625;-0.52325439453125;-0.62530517578125;-0.376953125;16.074868336236424;12.921507901793582;17.900361033645737;-0.52197265625;0.25390625;0.01318359375;6.9375;-2.3125;56.5625;
1441975721882313;0.4342041015625;-0.52581787109375;-0.63116455078125;-0.3697509765625;15.953011869976955;12.922176360031523;17.91707256936891;-0.560546875;0.28466796875;0.00927734375;-5.375;-3.5;55.8125;
1441975721911315;0.42852783203125;-0.52825927734375;-0.63702392578125;-0.36273193359375;15.830035918262851;12.917404112395307;17.92724065770747;-0.5517578125;0.2431640625;0.046875;-15.3125;-6.25;58.125;
1441975721919315;0.42218017578125;-0.53167724609375;-0.642333984375;-0.355712890625;15.700986794742288;12.922477848449327;17.940983799884997;-0.5107421875;0.20166015625;0.07421875;-13.3125;-6.6875;60.6875;
1441975721942316;0.41607666015625;-0.53521728515625;-0.64739990234375;-0.34832763671875;15.572252818472352;12.932768030146667;17.960760396720545;-0.529296875;0.27197265625;0.06689453125;-7.375;-6.375;60.6875;
1441975721971318;0.4114990234375;-0.5362548828125;-0.6539306640625;-0.3399658203125;15.451627118736154;12.921510783059219;17.978086542277353;-0.5732421875;0.3623046875;0.03076171875;-9.125;-6.3125;57.9375;
1441975721979319;0.407958984375;-0.535888671875;-0.66094970703125;-0.33099365234375;15.3382276535878;12.90228419745086;17.998087439139564;-0.59423828125;0.36669921875;0.06884765625;-27.375;-4.125;54.8125;
1441975722018321;0.40521240234375;-0.5355224609375;-0.66729736328125;-0.3221435546875;15.234839006431391;12.889987551037844;0.025120284369264095;-0.5654296875;0.32861328125;0.078125;-36.6875;-2.0;54.125;
1441975722023321;0.4031982421875;-0.53515625;-0.6728515625;-0.3135986328125;15.142640559410452;12.883656865620075;0.057128184028309895;-0.58056640625;0.306640625;0.0625;-36.8125;1.25;52.1875;
1441975722041322;0.40167236328125;-0.535400390625;-0.67724609375;-0.30560302734375;15.060523909676338;12.888012881615103;0.09441602694087738;-0.6298828125;0.345703125;0.08203125;-34.25;5.6875;47.8125;
1441975722062323;0.4012451171875;-0.5340576171875;-0.68206787109375;-0.29766845703125;14.991285316056082;12.88027267608637;0.1287058146932814;-0.69580078125;0.3818359375;0.04541015625;-29.4375;6.4375;44.0625;
1441975722091325;0.40142822265625;-0.53125;-0.68731689453125;-0.2904052734375;14.934769671868635;12.857668404223096;0.1535522069458031;-0.78759765625;0.4287109375;0.0517578125;-39.25;6.25;38.1875;
1441975722114326;0.402587890625;-0.5283203125;-0.6917724609375;-0.28338623046875;14.89133771179167;12.841448963819168;0.18495040733402554;-0.88720703125;0.4580078125;0.06494140625;-45.3125;3.1875;33.625;
1441975722122327;0.405029296875;-0.52520751953125;-0.69561767578125;-0.27618408203125;14.860029969832183;12.83270345807341;0.22683131257362144;-0.96435546875;0.443359375;0.05712890625;-44.9375;6.0625;32.5;
1441975722143328;0.40838623046875;-0.52178955078125;-0.69879150390625;-0.26959228515625;14.843712019771994;12.826414775967804;0.27079498790424955;-0.99267578125;0.412109375;0.03759765625;-46.5;11.4375;30.5625;
1441975722159329;0.41180419921875;-0.5194091796875;-0.700927734375;-0.26348876953125;14.831257639242908;12.832173555791805;0.31922136699176656;-1.00634765625;0.3876953125;0.08251953125;-44.1875;16.6875;26.25;
1441975722182330;0.41546630859375;-0.516357421875;-0.703369140625;-0.25714111328125;14.820426449858136;12.832818655815961;0.3670432355499888;-1.04541015625;0.427734375;0.04736328125;-37.5;17.4375;23.8125;
1441975722203331;0.4190673828125;-0.51318359375;-0.70599365234375;-0.25030517578125;14.805717970684846;12.832856838104286;0.41669735912920847;-1.0869140625;0.48876953125;0.0498046875;-42.375;16.8125;21.25;
1441975722225333;0.423828125;-0.5096435546875;-0.70849609375;-0.24249267578125;14.795323772244595;12.838777106746713;0.47940264593132886;-1.08349609375;0.46142578125;0.04443359375;-44.375;17.1875;25.125;
1441975722242334;0.42919921875;-0.50640869140625;-0.71026611328125;-0.23431396484375;14.788388185082177;12.854855215042134;0.5522203548046398;-1.0576171875;0.4375;0.05517578125;-48.9375;25.4375;24.75;
1441975722266335;0.43377685546875;-0.5025634765625;-0.71282958984375;-0.2261962890625;14.775284602512663;12.85810891152698;0.6141878505308356;-1.05859375;0.45751953125;0.03125;-48.3125;29.875;23.625;
1441975722279336;0.43798828125;-0.49859619140625;-0.71527099609375;-0.21893310546875;14.76611336243584;12.856686387782203;0.6678015223020843;-1.06640625;0.5146484375;0.0478515625;-51.6875;24.6875;22.1875;
1441975722303337;0.442138671875;-0.49554443359375;-0.71649169921875;-0.213623046875;14.769957550695175;12.862460071550341;0.7154885605615044;-1.11962890625;0.578125;0.03662109375;-50.1875;19.8125;17.5625;
1441975722323338;0.44781494140625;-0.49334716796875;-0.7158203125;-0.20916748046875;14.793292410980442;12.889909536186401;0.7778702958586072;-1.13427734375;0.53515625;0.0390625;-37.625;18.3125;13.6875;
1441975722341339;0.4525146484375;-0.49407958984375;-0.71331787109375;-0.20587158203125;14.80956283336604;12.941885751623076;0.8438782301197169;-1.11376953125;0.4345703125;0.0234375;-27.8125;27.25;10.5625;
1441975722362341;0.45379638671875;-0.49725341796875;-0.71063232421875;-0.20458984375;14.80370430371299;12.990466070142896;0.8825771951925035;-1.19677734375;0.5107421875;0.0244140625;-6.75;28.8125;12.3125;
1441975722391342;0.45318603515625;-0.5029296875;-0.7071533203125;-0.2042236328125;14.781030415310106;13.049382423731698;0.9134163625780484;-1.251953125;0.61767578125;0.0537109375;13.5625;14.4375;15.9375;
1441975722399343;0.45458984375;-0.5081787109375;-0.70269775390625;-0.20330810546875;14.772542054184925;13.122176974783404;0.9639057799901942;-1.18310546875;0.67919921875;0.021484375;29.5625;8.5;17.0;
1441975722422344;0.456298828125;-0.51202392578125;-0.69866943359375;-0.2039794921875;14.782053793486181;13.180017267905262;1.0004015698239828;-1.2109375;0.72216796875;-0.0087890625;26.25;19.3125;10.25;
1441975722451346;0.456298828125;-0.51495361328125;-0.6961669921875;-0.20501708984375;14.782362348533963;13.212833993210781;1.0134413915684213;-1.27978515625;0.6650390625;-0.02099609375;23.1875;13.25;5.8125;
1441975722465346;0.454345703125;-0.52081298828125;-0.6925048828125;-0.20697021484375;14.764994570856038;13.260296154185836;1.0204041062160978;-1.19287109375;0.64111328125;0.0673828125;21.9375;6.375;6.5;
1441975722482347;0.45263671875;-0.52899169921875;-0.6868896484375;-0.20849609375;14.739529671118055;13.337353834332687;1.0463078650844773;-1.06396484375;0.62353515625;0.0966796875;43.0;5.1875;12.1875;
1441975722503349;0.45086669921875;-0.53851318359375;-0.68011474609375;-0.21014404296875;14.70998084594262;13.429111372867219;1.0788403491912206;-1.0107421875;0.6123046875;0.03125;55.3125;12.6875;15.4375;
1441975722525350;0.44891357421875;-0.5462646484375;-0.67498779296875;-0.2109375;14.676726350436919;13.499086886923157;1.102167503807967;-1.1396484375;0.79150390625;-0.01708984375;62.9375;15.0625;12.3125;
1441975722542351;0.4478759765625;-0.55255126953125;-0.6717529296875;-0.2071533203125;14.615952419796146;13.56040137991763;1.1445846886354716;-1.13427734375;0.857421875;-4.8828125E-4;50.375;12.4375;9.875;
1441975722563352;0.45086669921875;-0.555419921875;-0.6693115234375;-0.20074462890625;14.574042573101611;13.619597639898943;1.2175071531899944;-0.91796875;1.00048828125;0.01513671875;27.125;25.5625;7.4375;
1441975722585353;0.45794677734375;-0.5556640625;-0.6661376953125;-0.194580078125;14.571934959265537;13.687683227640196;1.3156622300149172;-0.79345703125;0.95361328125;0.03076171875;1.5625;44.4375;-4.75;
1441975722609355;0.4697265625;-0.55303955078125;-0.66180419921875;-0.1885986328125;14.612930946233787;13.772532194085137;1.448332223593273;-0.7900390625;0.94091796875;0.04638671875;-8.875;59.875;-25.5625;
1441975722623355;0.496826171875;-0.53179931640625;-0.6636962890625;-0.17291259765625;14.74967198759291;13.816541896714096;1.6897755762964697;-0.92822265625;0.8203125;-0.03662109375;-23.8125;73.625;-38.3125;
1441975722645357;0.5107421875;-0.53143310546875;-0.6571044921875;-0.15826416015625;14.707060688001409;13.957453151514468;1.9009632421429687;-1.94482421875;0.369140625;0.01953125;-157.375;127.375;-68.9375;
1441975722662358;0.53338623046875;-0.5086669921875;-0.6627197265625;-0.1329345703125;14.73642091257647;13.960757894675496;2.1398085929817707;-0.623046875;1.0927734375;-0.32958984375;-38.375;111.9375;-4.375;
1441975722683359;0.533935546875;-0.49334716796875;-0.67547607421875;-0.12384033203125;14.750560076700973;13.803834328544863;2.10021923188214;-1.130859375;1.01025390625;0.4541015625;-191.875;133.375;-40.0625;
1441975722705360;0.5260009765625;-0.4940185546875;-0.680908203125;-0.125244140625;14.714199206401632;13.7188480656465;2.0026211728320287;-1.45654296875;0.55517578125;0.78515625;-91.5;31.3125;16.875;
1441975722722361;0.51904296875;-0.49713134765625;-0.6839599609375;-0.1253662109375;14.65745749243889;13.671855763243;1.9359113775547352;-0.6064453125;0.7900390625;0.67626953125;25.0625;-8.625;-0.375;
1441975722743362;0.511474609375;-0.49188232421875;-0.6943359375;-0.12030029296875;14.594604933302971;13.535705273050876;1.8440427164742725;-0.96044921875;1.27197265625;0.4072265625;27.875;-8.0;-7.4375;
1441975722765364;0.50177001953125;-0.4815673828125;-0.70953369140625;-0.11407470703125;14.526607285709924;13.335158865055105;1.7166564977298377;-1.39990234375;1.26171875;0.29296875;-47.25;-31.875;14.6875;
1441975722782365;0.4881591796875;-0.472412109375;-0.725830078125;-0.10833740234375;14.41907627578347;13.121437271851317;1.5648801655109648;-1.23046875;1.001953125;0.31005859375;-85.1875;-57.5625;23.25;
1441975722804366;0.47314453125;-0.4703369140625;-0.73773193359375;-0.1036376953125;14.270627627253534;12.977490692339483;1.441321467048803;-1.13916015625;0.9462890625;0.44970703125;-76.25;-72.6875;37.3125;
1441975722825367;0.46051025390625;-0.4674072265625;-0.748046875;-0.09979248046875;14.146224161085904;12.85550995507901;1.341350780505249;-1.09619140625;1.01611328125;0.2041015625;-44.125;-81.375;50.625;
1441975722842368;0.44903564453125;-0.459228515625;-0.76068115234375;-0.09423828125;14.032413306575497;12.704635107328455;1.2461419720116818;-1.17333984375;0.97802734375;0.11962890625;-47.625;-77.6875;44.625;
1441975722864369;0.43707275390625;-0.45220947265625;-0.77215576171875;-0.09112548828125;13.92312148413349;12.566722147450896;1.1471710877687669;-1.251953125;0.85400390625;0.138671875;-81.625;-80.5625;48.1875;
1441975722885370;0.42242431640625;-0.45147705078125;-0.781005859375;-0.08843994140625;13.770079348707842;12.475853722916998;1.0595225669780086;-1.2734375;0.66455078125;0.08642578125;-68.5625;-91.1875;53.5625;
1441975722902371;0.4063720703125;-0.45751953125;-0.78631591796875;-0.08544921875;13.582562865900567;12.443872126848431;0.9961417883893674;-1.20166015625;0.751953125;0.1123046875;-32.8125;-94.9375;66.8125;
1441975722924373;0.39288330078125;-0.46484375;-0.78936767578125;-0.080322265625;13.402246135485031;12.443904105561897;0.968341169116365;-1.015625;0.7705078125;0.068359375;3.5625;-88.625;79.375;
1441975722945374;0.38018798828125;-0.471435546875;-0.79217529296875;-0.07568359375;13.235077973082202;12.443303563375064;0.9415488966650649;-0.927734375;0.81982421875;-0.06298828125;2.0;-71.25;80.75;
1441975722963375;0.36749267578125;-0.4783935546875;-0.7943115234375;-0.07208251953125;13.074927683115463;12.447102734718406;0.9118899753049846;-0.94970703125;0.73779296875;-0.09765625;-0.75;-70.875;81.625;
1441975722992377;0.35565185546875;-0.48809814453125;-0.79388427734375;-0.07122802734375;12.936003051724695;12.475747206421053;0.8811453522102014;-0.8583984375;0.57958984375;-0.107421875;7.0;-71.3125;82.6875;
1441975723005377;0.344970703125;-0.5020751953125;-0.78997802734375;-0.07037353515625;12.799853779479177;12.5448047219341;0.868245117503762;-0.7998046875;0.45947265625;-0.1005859375;34.6875;-66.6875;76.375;
1441975723022378;0.3387451171875;-0.5152587890625;-0.7843017578125;-0.06884765625;12.703047938172691;12.626711107708365;0.8787777431729727;-0.6826171875;0.5947265625;-0.095703125;61.25;-49.3125;70.375;
1441975723044380;0.335693359375;-0.5255126953125;-0.77880859375;-0.06842041015625;12.649460280080437;12.697164241281714;0.8917887678452868;-0.67626953125;0.71044921875;-0.11474609375;57.5625;-23.875;54.3125;
1441975723065381;0.334228515625;-0.53399658203125;-0.77349853515625;-0.07049560546875;12.63176894063761;12.757950227530891;0.8957984338034856;-0.79931640625;0.70068359375;-0.11865234375;45.3125;-15.25;42.625;
1441975723082382;0.33404541015625;-0.5438232421875;-0.76611328125;-0.07647705078125;12.650898089791873;12.83308605747668;0.8915338718019322;-0.8232421875;0.623046875;-0.05908203125;46.1875;-14.125;28.4375;
1441975723112383;0.3355712890625;-0.55401611328125;-0.75738525390625;-0.08319091796875;12.690103073893694;12.91927169344613;0.8950008600614683;-0.775390625;0.546875;-0.00244140625;70.3125;-11.375;9.5625;
1441975723127384;0.33953857421875;-0.5633544921875;-0.74810791015625;-0.08770751953125;12.7361080892373;13.012141430777552;0.9216798244365461;-0.69775390625;0.521484375;0.05126953125;80.9375;1.0625;-2.4375;
1441975723157386;0.34686279296875;-0.5706787109375;-0.73870849609375;-0.09149169921875;12.80868691642228;13.1054103313408;0.9671992251204545;-0.626953125;0.6279296875;0.08349609375;75.5;22.5625;-10.875;
1441975723172387;0.3564453125;-0.57403564453125;-0.7310791015625;-0.09515380859375;12.90766194354983;13.178447052422838;1.0179121269887406;-0.6376953125;0.65966796875;0.064453125;64.0;39.1875;-24.125;
1441975723187388;0.36822509765625;-0.57427978515625;-0.72442626953125;-0.099365234375;13.036058555215005;13.239186172623464;1.0737062478153603;-0.6845703125;0.7255859375;0.1044921875;42.6875;45.9375;-39.25;
1441975723202389;0.38140869140625;-0.5732421875;-0.7177734375;-0.10369873046875;13.178967733956867;13.30053475800238;1.1378146000425002;-0.666015625;0.669921875;0.138671875;29.5;52.0625;-54.625;
1441975723224390;0.39581298828125;-0.57403564453125;-0.708740234375;-0.107421875;13.3185280953543;13.391273704878923;1.2240098107748905;-0.6083984375;0.55224609375;0.189453125;27.0;60.3125;-61.4375;
1441975723245391;0.41094970703125;-0.5767822265625;-0.697509765625;-0.10980224609375;13.441522674463675;13.511954297437057;1.334529420114837;-0.57861328125;0.5087890625;0.158203125;39.6875;73.5625;-61.4375;
1441975723263392;0.42572021484375;-0.57763671875;-0.6875;-0.1119384765625;13.561220510982821;13.621722822589822;1.4441420953384685;-0.55322265625;0.544921875;0.07763671875;48.3125;84.625;-59.0;
1441975723284393;0.4398193359375;-0.57598876953125;-0.67950439453125;-0.11431884765625;13.683709920359314;13.711296358116483;1.545006220935838;-0.55224609375;0.61474609375;0.072265625;36.9375;80.8125;-65.6875;
1441975723305394;0.45391845703125;-0.57269287109375;-0.672607421875;-0.11688232421875;13.811039207043116;13.7920541869046;1.6448679419594041;-0.50390625;0.599609375;0.060546875;21.625;71.0;-71.625;
1441975723323395;0.46649169921875;-0.57037353515625;-0.66522216796875;-0.12066650390625;13.931235753073882;13.878382576552838;1.7375013239255002;-0.462890625;0.51513671875;0.0625;12.625;66.875;-74.8125;
1441975723343397;0.47607421875;-0.57080078125;-0.656982421875;-0.12646484375;14.03409669295594;13.972707875423547;1.8119576507986537;-0.5;0.47998046875;0.06787109375;22.6875;60.25;-69.625;
1441975723366398;0.482421875;-0.5732421875;-0.6492919921875;-0.13104248046875;14.095339583453802;14.061000817085784;1.87153058403175;-0.51171875;0.41259765625;0.09033203125;44.375;48.5;-57.875;
1441975723381399;0.48553466796875;-0.5758056640625;-0.64404296875;-0.134033203125;14.12352879388873;14.120383748347361;1.9058136773433973;-0.44189453125;0.46484375;0.09423828125;50.5;40.5625;-43.0625;
1441975723411401;0.48638916015625;-0.5789794921875;-0.64013671875;-0.13592529296875;14.126734974822153;14.16309792586146;1.9231351875594118;-0.3662109375;0.55322265625;0.1591796875;44.5;30.0;-32.75;
1441975723426401;0.48699951171875;-0.58160400390625;-0.6375732421875;-0.13446044921875;14.102246404966836;14.193797249143731;1.945128936348966;-0.32373046875;0.6318359375;0.15185546875;41.9375;22.0625;-24.5;
1441975723443402;0.48577880859375;-0.583984375;-0.637451171875;-0.12933349609375;14.038162094596043;14.1984591972382;1.9566615186075327;-0.29345703125;0.564453125;0.1005859375;23.8125;24.8125;-9.625;
1441975723463403;0.4814453125;-0.58856201171875;-0.6378173828125;-0.122802734375;13.934417818114742;14.193994254769281;1.95013112234015;-0.24560546875;0.515625;0.17919921875;8.9375;27.1875;12.25;
1441975723486405;0.474609375;-0.59381103515625;-0.6397705078125;-0.11322021484375;13.788086244364841;14.171381241490561;1.9320253880360783;-0.2216796875;0.5498046875;0.13916015625;12.4375;18.1875;31.9375;
1441975723508406;0.4664306640625;-0.598388671875;-0.64373779296875;-0.10009765625;13.607765879413586;14.129491175401371;1.9117979731538166;-0.17431640625;0.58984375;0.087890625;1.25;12.0625;51.375;
1441975723523407;0.4573974609375;-0.6025390625;-0.6485595703125;-0.0845947265625;13.404366872281567;14.079738305281413;1.8944598429598798;-0.11669921875;0.6025390625;0.076171875;-17.25;11.9375;66.25;
1441975723546408;0.447265625;-0.60772705078125;-0.6527099609375;-0.0679931640625;13.179678604093032;14.036188696292417;1.8799283739916688;-0.13623046875;0.623046875;0.07763671875;-27.5625;14.5;78.25;
1441975723561409;0.4368896484375;-0.61474609375;-0.65472412109375;-0.05072021484375;12.937778256972953;14.012497773323565;1.8757782715301556;-0.1787109375;0.654296875;0.0546875;-24.8125;15.5;91.25;
1441975723583410;0.42510986328125;-0.62237548828125;-0.656494140625;-0.0323486328125;12.67532496254505;13.988729103400464;1.8699638766699016;-0.20654296875;0.82275390625;-0.05126953125;-19.75;18.625;113.0625;
1441975723607412;0.41204833984375;-0.62744140625;-0.66064453125;-0.01153564453125;12.397854648799447;13.940044771977092;1.8619219335786783;-0.21533203125;0.93359375;-0.0634765625;-18.875;18.4375;123.25;
1441975723621413;0.39862060546875;-0.62799072265625;-0.66827392578125;0.01416015625;12.099471861789253;13.856753504290479;1.8653855316894807;-0.24365234375;1.09912109375;-0.11962890625;-43.5;14.9375;130.5625;
1441975723643414;0.38299560546875;-0.62701416015625;-0.67706298828125;0.04248046875;11.773149892771366;13.758008165331553;1.8707019130707974;-0.302734375;1.10693359375;-0.13330078125;-85.0;23.0;142.1875;
1441975723666415;0.3636474609375;-0.62823486328125;-0.6844482421875;0.0682373046875;11.43330107872206;13.669220346318237;1.8576612272065516;-0.38671875;0.97021484375;-0.00146484375;-100.25;22.625;159.6875;
1441975723681416;0.3414306640625;-0.6314697265625;-0.690185546875;0.091552734375;11.08333886163966;13.593777639135519;1.8311564832541123;-0.4833984375;0.91259765625;0.05126953125;-81.1875;1.75;171.5;
1441975723703417;0.3155517578125;-0.63714599609375;-0.69329833984375;0.11767578125;10.671305497146216;13.53295516045045;1.8085015834073828;-0.40625;1.03857421875;0.1474609375;-62.625;-15.1875;175.9375;
1441975723726419;0.28558349609375;-0.64031982421875;-0.6976318359375;0.1478271484375;10.207124815100645;13.450271744271745;1.7896422754857053;-0.1689453125;1.2802734375;0.07080078125;-52.25;-16.4375;203.125;
1441975723748420;0.25164794921875;-0.643310546875;-0.7010498046875;0.17718505859375;9.717269399384781;13.368033425332829;1.7609263530708037;-0.173828125;1.28125;0.09765625;-76.5;-18.75;230.5;
1441975723763421;0.21600341796875;-0.64483642578125;-0.70361328125;0.2061767578125;9.218138772277793;13.284480448611891;1.7343535433940158;-0.154296875;1.12646484375;0.16455078125;-75.8125;-35.9375;244.25;
1441975723786422;0.179931640625;-0.64337158203125;-0.70587158203125;0.2354736328125;8.719272541880628;13.19135637393934;1.71882636512567;0.0302734375;1.197265625;0.220703125;-79.125;-41.1875;246.1875;
1441975723802423;0.14422607421875;-0.638916015625;-0.7080078125;0.26409912109375;8.23429755570407;13.088113404000161;1.7140991130982917;0.12353515625;1.18701171875;0.16943359375;-92.4375;-38.3125;246.0;
1441975723823424;0.1097412109375;-0.63330078125;-0.70794677734375;0.29278564453125;7.755774951751062;12.987409378890002;1.726546574879827;0.0966796875;1.11328125;0.15185546875;-104.125;-35.1875;241.3125;
1441975723846425;0.07843017578125;-0.626953125;-0.70623779296875;0.3194580078125;7.315544588823422;12.892031699315096;1.752113336055402;0.10498046875;1.08642578125;0.13818359375;-99.3125;-26.4375;240.5625;
1441975723862426;0.05029296875;-0.61944580078125;-0.70465087890625;0.34246826171875;6.930569068795993;12.796059268924322;1.7813265293368228;0.13623046875;0.990234375;0.0615234375;-91.4375;-18.8125;223.5625;
1441975723883428;0.0240478515625;-0.61004638671875;-0.7039794921875;0.36297607421875;6.5859476581720795;12.69002245231384;1.8154576587280509;0.09375;0.91015625;0.07470703125;-89.375;-16.6875;197.875;
1441975723906429;4.2724609375E-4;-0.6007080078125;-0.70330810546875;0.38018798828125;6.286125576866685;12.588723165087638;1.8488512100759733;0.115234375;0.84912109375;0.166015625;-93.875;-15.375;179.0;
1441975723922430;-0.0206298828125;-0.5928955078125;-0.70166015625;0.39471435546875;6.020087108805847;12.502258484172392;1.8797484815955277;0.09814453125;0.736328125;0.16259765625;-87.9375;-16.0625;156.5;
1441975723943431;-0.0399169921875;-0.5850830078125;-0.70074462890625;0.40625;5.79050129804322;12.418894756290921;1.9046281432763115;0.09521484375;0.7021484375;0.1328125;-73.875;-18.5;139.1875;
1441975723966432;-0.05615234375;-0.577392578125;-0.70233154296875;0.41259765625;5.626768124744527;12.342475857909463;1.9117606078795044;0.13916015625;0.6201171875;0.13916015625;-71.9375;-21.3125;118.75;
1441975723988434;-0.07025146484375;-0.57061767578125;-0.7060546875;0.41357421875;5.517072416074212;12.280442898611673;1.8930070497757625;0.14892578125;0.537109375;0.13720703125;-77.5;-27.5;90.625;
1441975724003434;-0.082275390625;-0.565673828125;-0.71136474609375;0.40899658203125;5.456844715110898;12.241524781062877;1.8430026943691857;0.15380859375;0.498046875;0.16650390625;-75.9375;-39.25;55.9375;
1441975724026436;-0.0921630859375;-0.56439208984375;-0.71697998046875;0.398681640625;5.439735335219675;12.240891317261726;1.7555207584033787;0.162109375;0.4306640625;0.18505859375;-68.4375;-53.375;19.25;
1441975724042437;-0.0994873046875;-0.5660400390625;-0.72308349609375;0.38323974609375;5.47095965811992;12.271414915499031;1.6376236475839758;0.1884765625;0.38525390625;0.18701171875;-51.5625;-71.125;-16.75;
1441975724063438;-0.10247802734375;-0.5714111328125;-0.72900390625;0.36285400390625;5.566556034663334;12.337145020848196;1.4959947570185472;0.23779296875;0.3486328125;0.21630859375;-34.9375;-83.375;-52.6875;
1441975724086439;-0.09869384765625;-0.583740234375;-0.7322998046875;0.3365478515625;5.748985429171109;12.461570510720787;1.3303167001795873;0.287109375;0.31884765625;0.2607421875;-8.6875;-91.1875;-93.3125;
1441975724102440;-0.09039306640625;-0.60028076171875;-0.73382568359375;0.3050537109375;6.007483587417109;12.616616715949299;1.1519026559567085;0.26318359375;0.3046875;0.212890625;34.5;-94.625;-137.375;
1441975724123441;-0.07861328125;-0.617919921875;-0.734619140625;0.26904296875;6.3386403724870375;12.77440295644936;0.9739096621542652;0.18701171875;0.3701171875;0.14111328125;62.8125;-102.125;-171.75;
1441975724146443;-0.063232421875;-0.63592529296875;-0.734375;0.22882080078125;6.742617214499735;12.92765639718501;0.803622508110508;0.14306640625;0.49853515625;0.10546875;72.875;-105.0;-201.0;
1441975724162443;-0.04150390625;-0.65380859375;-0.7322998046875;0.18609619140625;7.229573779528819;13.072306471395331;0.6622585981560001;0.1123046875;0.64990234375;0.169921875;83.1875;-106.375;-229.0;
1441975724191445;-0.0133056640625;-0.66888427734375;-0.7298583984375;0.1407470703125;7.801289195101873;13.192161024822594;0.5529434824100802;0.16455078125;0.60107421875;0.07080078125;95.3125;-88.8125;-262.6875;
1441975724206446;0.0186767578125;-0.68408203125;-0.7236328125;0.0899658203125;8.448810182102855;13.317353914540044;0.45010937216108327;0.107421875;0.57177734375;0.02294921875;91.1875;-68.0625;-297.25;
1441975724222447;0.05120849609375;-0.69378662109375;-0.71759033203125;0.03350830078125;9.154703984642005;13.408002866741247;0.34225910633258433;-0.15380859375;0.572265625;-0.00390625;108.625;-73.875;-327.9375;
1441975724245448;0.08251953125;-0.69622802734375;-0.71282958984375;-0.02008056640625;9.83717660978423;13.450814808890026;0.2501265015895814;-0.39794921875;0.83984375;-4.8828125E-4;86.4375;-91.3125;-351.9375;
1441975724273450;0.11627197265625;-0.69744873046875;-0.70391845703125;-0.06829833984375;10.500659029068967;13.499371432244999;0.19598385988428513;-0.51318359375;0.7421875;0.126953125;52.5;-83.5625;-336.75;
1441975724288451;0.15252685546875;-0.69635009765625;-0.6915283203125;-0.11700439453125;11.19550696118694;13.55024286216343;0.15636137305629688;-0.5458984375;0.62646484375;-0.064453125;58.4375;-50.625;-326.3125;
1441975724311452;0.1878662109375;-0.68975830078125;-0.6795654296875;-0.16485595703125;11.886409442617452;13.572210790509683;0.11485590113687086;-0.689453125;0.66796875;-0.1630859375;61.0;-41.4375;-341.0;
1441975724326453;0.2198486328125;-0.678466796875;-0.6695556640625;-0.207763671875;12.518746217415378;13.56021867901593;0.07045990465090975;-0.95458984375;0.62890625;-0.09130859375;38.6875;-45.4375;-335.75;
1441975724350454;0.24920654296875;-0.66864013671875;-0.6546630859375;-0.249755859375;13.131438937684917;13.569497043008958;0.02382412404001918;-1.095703125;0.615234375;-0.173828125;8.9375;-46.1875;-306.1875;
1441975724363455;0.27679443359375;-0.6580810546875;-0.63677978515625;-0.29150390625;13.739779421754209;13.581353451418792;17.97062718043343;-1.19482421875;0.57666015625;-0.193359375;35.6875;-45.25;-296.9375;
1441975724386456;0.30560302734375;-0.64154052734375;-0.6212158203125;-0.33050537109375;14.348175070174443;13.54729368998314;17.910852730296273;-1.1787109375;0.7138671875;-0.314453125;45.375;-49.75;-298.625;
1441975724410458;0.3355712890625;-0.6219482421875;-0.6051025390625;-0.36676025390625;14.95695230761974;13.493018346774647;17.850401961595335;-1.19140625;0.7392578125;-0.31103515625;8.6875;-49.0;-301.5;
1441975724423458;0.363037109375;-0.603759765625;-0.58477783203125;-0.4022216796875;15.553572509393655;13.448632922928788;17.77810793247243;-1.30322265625;0.57421875;-0.255859375;-6.125;-39.3125;-301.8125;
1441975724446460;0.3868408203125;-0.5875244140625;-0.55963134765625;-0.438232421875;16.141623640404557;13.406464126946217;17.67625596647923;-1.384765625;0.39208984375;-0.17529296875;18.1875;-32.9375;-295.25;
1441975724470461;0.40673828125;-0.5714111328125;-0.5322265625;-0.47418212890625;16.711015236337587;13.292210499406618;17.484661447696077;-1.47021484375;0.32470703125;-0.1640625;51.8125;-33.125;-292.375;
1441975724484462;0.42449951171875;-0.55487060546875;-0.5050048828125;-0.5069580078125;17.240379583438365;12.978031025438144;17.097859073225013;-1.48828125;0.30419921875;-0.10400390625;69.75;-39.0625;-286.6875;
1441975724506463;0.43994140625;-0.53857421875;-0.4776611328125;-0.53692626953125;17.694044198453664;11.601562922348839;15.648599359079356;-1.46044921875;0.27978515625;-0.0888671875;66.25;-36.8125;-272.5625;
1441975724528464;0.45098876953125;-0.5242919921875;-0.44921875;-0.565673828125;17.664344356590735;6.899866979958947;10.85521186642205;-1.48974609375;0.13134765625;-0.11181640625;67.6875;-34.375;-256.3125;
1441975724543465;0.4573974609375;-0.5125732421875;-0.42034912109375;-0.59283447265625;17.28327860141983;5.838542049744093;9.683667596032363;-1.46630859375;0.07373046875;-0.11181640625;87.1875;-33.8125;-238.875;
1441975724566467;0.46234130859375;-0.501220703125;-0.39385986328125;-0.61639404296875;16.912656211801675;5.590444969000498;9.336006260807496;-1.42919921875;0.1630859375;-0.1162109375;105.75;-31.625;-218.8125;
1441975724588468;0.466796875;-0.48895263671875;-0.37017822265625;-0.63726806640625;16.562025565991895;5.514973910875849;9.17684176029669;-1.3798828125;0.2646484375;-0.1572265625;95.8125;-30.8125;-199.8125;
1441975724603469;0.4683837890625;-0.47686767578125;-0.3468017578125;-0.657958984375;16.225496381007765;5.521608348090411;9.090708809153742;-1.35498046875;0.22607421875;-0.1630859375;79.875;-35.125;-185.5;
1441975724626470;0.46856689453125;-0.46478271484375;-0.32415771484375;-0.6778564453125;15.902796247819653;5.556060775933624;9.031221971740564;-1.2958984375;0.2587890625;-0.14208984375;89.625;-40.75;-176.9375;
1441975724648471;0.47039794921875;-0.45111083984375;-0.30419921875;-0.69476318359375;15.592499695871163;5.5821660580745425;8.987988474852921;-1.16162109375;0.3623046875;-0.177734375;90.8125;-44.125;-170.5625;
1441975724665472;0.47247314453125;-0.43731689453125;-0.28619384765625;-0.709716796875;15.30127114360301;5.607630876742691;8.955761602202173;-1.05224609375;0.33447265625;-0.177734375;66.1875;-46.5;-162.875;
1441975724686473;0.47222900390625;-0.42498779296875;-0.26922607421875;-0.72381591796875;15.039971565802395;5.648587561456293;8.93246779872108;-0.97802734375;0.24853515625;-0.10400390625;54.5625;-46.0;-151.375;
1441975724708475;0.47088623046875;-0.41375732421875;-0.253173828125;-0.73687744140625;14.801608962214463;5.692382679493699;8.91048069710135;-0.84716796875;0.31103515625;-0.10791015625;61.25;-44.0625;-136.3125;
1441975724723476;0.469970703125;-0.40325927734375;-0.2393798828125;-0.747802734375;14.590589898952928;5.728161665109184;8.892537957752285;-0.71826171875;0.392578125;-0.1552734375;62.375;-42.0625;-125.75;
1441975724753477;0.46759033203125;-0.39886474609375;-0.23095703125;-0.75433349609375;14.485160878832776;5.757162453336657;8.877692001170217;-0.66845703125;0.36962890625;-0.181640625;50.9375;-39.5625;-111.25;
1441975724762478;0.4639892578125;-0.39599609375;-0.22381591796875;-0.76019287109375;14.406602408862762;5.792437176401341;8.867235958573744;-0.67041015625;0.3369140625;-0.16943359375;41.4375;-35.1875;-95.0625;
1441975724785479;0.4576416015625;-0.39605712890625;-0.21771240234375;-0.7657470703125;14.368524758505;5.84235239769038;8.859285851044;-0.61376953125;0.3017578125;-0.13330078125;43.375;-29.125;-77.625;
1441975724806480;0.4505615234375;-0.39794921875;-0.2135009765625;-0.7701416015625;14.363815176860761;5.8943687164307415;8.856202378139216;-0.54736328125;0.365234375;-0.13330078125;54.1875;-21.5625;-59.5;
1441975724837482;0.44195556640625;-0.4022216796875;-0.211669921875;-0.77337646484375;14.401949129354728;5.955418741930031;8.86279832073606;-0.517578125;0.35791015625;-0.169921875;54.0625;-18.5625;-42.125;
1441975724845483;0.4317626953125;-0.41192626953125;-0.2139892578125;-0.77337646484375;14.527839778563354;6.017478001390853;8.875629197706136;-0.5498046875;0.3310546875;-0.1396484375;53.875;-12.5;-19.625;
1441975724866484;0.4263916015625;-0.42230224609375;-0.22064208984375;-0.7689208984375;14.68806487134134;6.039883335405869;8.890820460403608;-0.61962890625;0.5263671875;-0.240234375;49.25;-0.75;7.3125;
1441975724882485;0.41986083984375;-0.43511962890625;-0.230224609375;-0.76251220703125;14.896560773025506;6.071284796702067;8.920636007779827;-0.666015625;0.42578125;-0.2744140625;10.75;4.5625;26.875;
1441975724905486;0.408935546875;-0.45208740234375;-0.2415771484375;-0.75506591796875;15.166729659508487;6.138266711405551;8.970207699789855;-0.8125;0.3056640625;-0.1796875;5.6875;14.4375;54.25;
1441975724926487;0.40289306640625;-0.46630859375;-0.2564697265625;-0.74468994140625;15.429967378307214;6.184456477204402;9.041191127926364;-0.70361328125;0.42333984375;-0.21484375;22.6875;25.5625;81.875;
1441975724948488;0.39959716796875;-0.48199462890625;-0.27685546875;-0.72900390625;15.750724551863351;6.219468796130866;9.138201163503014;-0.68115234375;0.6142578125;-0.26513671875;-18.0625;38.0;114.125;
1441975724965489;0.392822265625;-0.503662109375;-0.30206298828125;-0.70770263671875;16.18296773871447;6.308989303164484;9.293012795478523;-1.02685546875;0.4296875;-0.21435546875;-53.75;49.5625;142.6875;
1441975724986491;0.3853759765625;-0.52783203125;-0.3343505859375;-0.67913818359375;16.703477943987842;6.527811336961057;9.608609521103515;-1.4873046875;0.39990234375;-0.1953125;-56.3125;72.875;194.6875;
1441975725008492;0.37713623046875;-0.55133056640625;-0.3704833984375;-0.64544677734375;17.234941265810757;7.198193043059884;10.397470435904586;-1.94287109375;0.31982421875;-0.1171875;-85.75;87.875;245.25;
1441975725026493;0.36273193359375;-0.57611083984375;-0.40655517578125;-0.609375;17.554108009191776;9.990958829000206;13.28899896038729;-2.06201171875;0.03125;-0.0693359375;-106.4375;92.75;279.0625;
1441975725053494;0.3372802734375;-0.60540771484375;-0.4410400390625;-0.57037353515625;17.111782220238204;12.757706585301776;16.10800368001188;-1.98828125;-0.21435546875;0.060546875;-85.9375;95.8125;314.25;
1441975725068495;0.30712890625;-0.635498046875;-0.474853515625;-0.5257568359375;16.370484448761527;13.462019214773262;16.857629219074617;-2.1162109375;0.0087890625;0.109375;-37.625;100.9375;362.0;
1441975725085496;0.27679443359375;-0.65771484375;-0.51190185546875;-0.4783935546875;15.586405196225233;13.628239913961535;17.10511153706762;-2.35302734375;0.3896484375;0.02392578125;-28.75;111.875;392.125;
1441975725106497;0.24249267578125;-0.6781005859375;-0.54486083984375;-0.42962646484375;14.787022375768728;13.700371893634529;17.240828522849274;-2.6484375;0.08203125;0.1083984375;-66.75;91.8125;390.75;
1441975725128499;0.2010498046875;-0.70318603515625;-0.5638427734375;-0.3837890625;14.003091957111437;13.811326277496144;17.324689797681245;-2.41552734375;-0.0458984375;0.1064453125;-47.6875;87.0625;395.9375;
1441975725145500;0.1580810546875;-0.72796630859375;-0.57183837890625;-0.34381103515625;13.294303956068282;13.930952378832602;17.356581358004224;-2.28369140625;-0.07763671875;-0.04052734375;42.75;84.375;386.5625;
1441975725166501;0.12286376953125;-0.74676513671875;-0.57928466796875;-0.3028564453125;12.648724764691897;14.021154681912387;17.399224419729762;-2.14794921875;0.59619140625;0.052734375;98.25;71.8125;369.0625;
1441975725188502;0.1036376953125;-0.74847412109375;-0.60394287109375;-0.25384521484375;12.033836267327251;13.972659986827058;17.494652143205773;-2.11474609375;0.96728515625;0.0;65.3125;91.25;332.625;
1441975725205503;0.1016845703125;-0.7283935546875;-0.64642333984375;-0.203369140625;11.532023826210503;13.75917072039441;17.63525249999399;-2.1015625;0.78173828125;0.04052734375;-101.1875;131.4375;289.25;
1441975725226504;0.10552978515625;-0.6922607421875;-0.69659423828125;-0.1566162109375;11.133453674062205;13.440305080842242;17.77809864365538;-2.07470703125;0.44140625;-0.05078125;-279.4375;155.8125;233.3125;
1441975725248506;0.106201171875;-0.6485595703125;-0.74505615234375;-0.1142578125;10.784455932374156;13.088545626425736;17.902172586069238;-1.9130859375;0.1357421875;-0.021484375;-376.125;138.4375;195.3125;
