1441975701384141;0.06927490234375;-0.74298095703125;-0.65216064453125;-0.13421630859375;10.684325227070127;13.840454943772407;17.78395395036342;-1.69384765625;0.48828125;0.06494140625;-207.125;159.375;173.3125;
1441975701422143;0.07403564453125;-0.69671630859375;-0.7069091796875;-0.09710693359375;10.388500975778667;13.446127055976303;17.899271740377724;-1.6240234375;0.279296875;-0.0361328125;-342.4375;146.875;135.8125;
1441975701423143;0.073486328125;-0.65545654296875;-0.748779296875;-0.06610107421875;10.134348861541355;13.11901191962724;17.99223988201478;-1.6171875;-0.4892578125;-0.20166015625;-425.8125;118.9375;142.625;
1441975701444144;0.07305908203125;-0.637939453125;-0.7652587890625;-0.04632568359375;9.984084648367263;12.987131151155689;0.06487539392228006;-1.3818359375;-0.720703125;-0.15966796875;-348.0;80.8125;133.8125;
1441975701460145;0.081787109375;-0.64501953125;-0.75872802734375;-0.04022216796875;10.013639429666398;13.04837929011096;0.12946723824133272;-0.98974609375;-0.69140625;-0.220703125;-146.6875;55.8125;104.0625;
1441975701483146;0.087158203125;-0.66107177734375;-0.744384765625;-0.03594970703125;10.021176072410261;13.176824781047934;0.17976119808108487;-0.84814453125;-0.39306640625;-0.25244140625;38.3125;52.4375;57.1875;
1441975701504147;0.095703125;-0.6766357421875;-0.72918701171875;-0.03631591796875;10.087757192211166;13.307214935448354;0.22353286379600473;-0.87109375;-0.0146484375;-0.25;115.4375;47.0625;17.5;
1441975701519148;0.1134033203125;-0.6871337890625;-0.71624755859375;-0.04534912109375;10.29883828916076;13.411634249900429;0.2675673339801863;-0.88232421875;0.22900390625;-0.19091796875;118.9375;43.8125;-15.125;
1441975701543150;0.13543701171875;-0.6912841796875;-0.7073974609375;-0.0589599609375;10.584901198591547;13.477159575129065;0.30979061111003375;-0.9072265625;0.43701171875;-0.0693359375;90.0;44.375;-48.5;
1441975701564151;0.15838623046875;-0.68853759765625;-0.70416259765625;-0.07147216796875;10.875016453741079;13.494606429474592;0.356211434853323;-0.953125;0.6533203125;-0.021484375;53.5625;42.4375;-90.5;
1441975701580152;0.18707275390625;-0.6800537109375;-0.70361328125;-0.08660888671875;11.239781569413509;13.484187229324505;0.4121478563705154;-0.96142578125;0.79638671875;0.0615234375;4.6875;45.25;-133.5625;
1441975701603153;0.220947265625;-0.66864013671875;-0.702392578125;-0.1038818359375;11.66976757137165;13.473547703297236;0.48175854844532834;-0.96435546875;0.8095703125;0.13330078125;-27.75;53.6875;-172.3125;
1441975701624154;0.25921630859375;-0.65765380859375;-0.6962890625;-0.124755859375;12.16700698711978;13.49770840166042;0.566496413729316;-1.04345703125;0.70166015625;0.1025390625;-38.1875;65.6875;-203.875;
1441975701639155;0.298583984375;-0.64764404296875;-0.684814453125;-0.15008544921875;12.71064549774291;13.561420087635808;0.6565353184736077;-1.19482421875;0.68017578125;-0.0029296875;-17.0625;75.125;-237.0625;
1441975701663157;0.337158203125;-0.636962890625;-0.6697998046875;-0.17901611328125;13.281697341214496;13.651274846616014;0.7493492565245159;-1.34619140625;0.66455078125;-0.04541015625;12.75;71.5625;-261.125;
1441975701684158;0.3751220703125;-0.6234130859375;-0.6536865234375;-0.208251953125;13.859487599278376;13.754524263926301;0.8593970877758754;-1.36572265625;0.65380859375;-0.1552734375;28.625;59.5625;-278.4375;
1441975701699159;0.4102783203125;-0.606689453125;-0.63861083984375;-0.23638916015625;14.41704126323742;13.856656138407187;0.9774854198517449;-1.44140625;0.5546875;-0.19091796875;22.625;55.1875;-284.5;
1441975701723160;0.44146728515625;-0.5887451171875;-0.62310791015625;-0.26519775390625;14.958018186550182;13.971231766688144;1.097767526220243;-1.52294921875;0.505859375;-0.1904296875;8.5;43.1875;-277.0;
1441975701744161;0.466796875;-0.573486328125;-0.60455322265625;-0.29632568359375;15.471746443109632;14.13219861602547;1.2249392958380656;-1.5888671875;0.33740234375;-0.10546875;13.4375;26.8125;-268.75;
1441975701760162;0.48565673828125;-0.56298828125;-0.58154296875;-0.3302001953125;15.949117577575928;14.377028810435831;1.384277705449246;-1.61962890625;0.236328125;-0.01708984375;48.75;11.4375;-255.8125;
1441975701783163;0.49786376953125;-0.5570068359375;-0.5556640625;-0.3648681640625;16.368718891245493;14.72222256455225;1.603512549992011;-1.607421875;0.1787109375;0.01708984375;98.3125;0.6875;-239.875;
1441975701804165;0.505859375;-0.55023193359375;-0.53155517578125;-0.3985595703125;16.751069515492503;15.141482504303005;1.896962586486948;-1.66552734375;0.3837890625;-0.08251953125;137.5;-8.3125;-219.8125;
1441975701819166;0.51129150390625;-0.54144287109375;-0.51055908203125;-0.42987060546875;17.095004557914002;15.696183995194106;2.3414275736323398;-1.5849609375;0.46044921875;-0.15576171875;135.375;-27.0;-205.5625;
1441975701843167;0.51324462890625;-0.5333251953125;-0.490234375;-0.46026611328125;17.379051804365336;16.609917873343097;3.1382853563457798;-1.4462890625;0.3125;-0.1455078125;118.3125;-41.0;-188.8125;
1441975701864168;0.51336669921875;-0.52606201171875;-0.47125244140625;-0.487548828125;17.537468706072243;0.1694268961276219;4.586304058318341;-1.296875;0.2919921875;-0.08837890625;124.0;-48.3125;-172.625;
1441975701879169;0.5137939453125;-0.517822265625;-0.45623779296875;-0.50970458984375;17.528900794772653;1.9310335207729465;6.266166351123327;-1.15283203125;0.33349609375;-0.06591796875;118.0625;-46.0;-154.5;
1441975701902170;0.51531982421875;-0.50799560546875;-0.4461669921875;-0.526611328125;17.419468671506515;3.10822864547878;7.398438814538753;-1.05224609375;0.31201171875;-0.08056640625;87.5625;-44.625;-133.4375;
1441975701924172;0.5162353515625;-0.49896240234375;-0.44091796875;-0.5386962890625;17.30960130230399;3.7562530411627377;8.025147744429995;-0.9921875;0.18359375;-0.05322265625;49.625;-45.25;-111.9375;
1441975701940172;0.5169677734375;-0.4912109375;-0.43817138671875;-0.54730224609375;17.215696389858127;4.141995517225105;8.402525591968264;-0.962890625;0.072265625;-0.00341796875;25.25;-42.75;-89.125;
1441975701962174;0.51824951171875;-0.48486328125;-0.43829345703125;-0.5516357421875;17.155188755360445;4.3581541860131665;8.628420482239981;-0.88525390625;0.06494140625;0.01123046875;11.625;-36.6875;-68.25;
1441975701984175;0.52044677734375;-0.47869873046875;-0.44146728515625;-0.5523681640625;17.124013455797265;4.4997485014844205;8.801022244294849;-0.82568359375;0.10302734375;-0.00927734375;-7.3125;-29.4375;-48.4375;
1441975701999176;0.523193359375;-0.4732666015625;-0.44671630859375;-0.55023193359375;17.11998090496384;4.5861119272363124;8.932120558401484;-0.85888671875;0.0478515625;-0.03369140625;-28.5;-27.875;-28.9375;
1441975702022177;0.5250244140625;-0.46966552734375;-0.45330810546875;-0.546142578125;17.149694898973763;4.645831508816982;9.038169082202932;-0.89501953125;0.00146484375;-0.03076171875;-42.875;-22.875;-11.25;
1441975702045178;0.525634765625;-0.4678955078125;-0.4608154296875;-0.540771484375;17.20908795857058;4.6993295231569086;9.135529958288785;-0.93212890625;-0.005859375;-0.03271484375;-44.9375;-18.0625;6.0;
1441975702060179;0.525390625;-0.46734619140625;-0.46966552734375;-0.5338134765625;17.29674423427653;4.75996295099179;9.242444574862162;-0.95654296875;0.00244140625;-0.05224609375;-42.4375;-16.5625;20.9375;
1441975702082181;0.52435302734375;-0.46807861328125;-0.4794921875;-0.52545166015625;17.409627659632722;4.834086576704907;9.36367527237826;-0.94677734375;0.0107421875;-0.046875;-45.0;-14.375;36.0625;
1441975702106182;0.522216796875;-0.47039794921875;-0.48931884765625;-0.5164794921875;17.5411357799204;4.938487574743333;9.509180630478118;-0.93505859375;0.0283203125;-0.02685546875;-46.0;-10.375;48.8125;
1441975702120183;0.51898193359375;-0.47369384765625;-0.49853515625;-0.50775146484375;17.678092987085908;5.14936706369695;9.752747512919495;-0.94189453125;0.0791015625;-0.03125;-40.4375;-7.5625;56.125;
1441975702142184;0.51531982421875;-0.47723388671875;-0.507568359375;-0.4991455078125;17.81167015228533;5.70928042026342;10.342543062004049;-0.97509765625;0.0986328125;-0.04150390625;-32.125;-7.375;59.625;
1441975702165185;0.51116943359375;-0.48089599609375;-0.516845703125;-0.49029541015625;17.911029968549595;8.224976332766019;12.887785104038022;-0.95947265625;0.09228515625;-0.05810546875;-29.3125;-8.6875;62.9375;
1441975702179186;0.50689697265625;-0.4844970703125;-0.5257568359375;-0.48162841796875;17.845424335688687;11.587112293006474;16.27774791113815;-0.8955078125;0.103515625;-0.052734375;-28.875;-9.3125;66.625;
1441975702202187;0.50244140625;-0.48828125;-0.533935546875;-0.47344970703125;17.717912702758188;12.403884179644406;17.117832210043517;-0.8642578125;0.10498046875;-0.0478515625;-27.5;-9.3125;67.0625;
1441975702225189;0.49755859375;-0.4921875;-0.54144287109375;-0.46588134765625;17.585332357046372;12.680981649230624;17.4130496596103;-0.85498046875;0.11279296875;-0.04833984375;-22.9375;-8.6875;65.1875;
1441975702239190;0.49285888671875;-0.49603271484375;-0.5482177734375;-0.45880126953125;17.459224121151763;12.822424337614924;17.56984370489759;-0.84375;0.14697265625;-0.04736328125;-18.125;-9.0625;62.375;
1441975702269191;0.488525390625;-0.4993896484375;-0.5543212890625;-0.45245361328125;17.344770890694136;12.894514181275804;17.655732656774195;-0.83935546875;0.18896484375;-0.05810546875;-15.5;-9.125;56.5;
1441975702285192;0.48443603515625;-0.50244140625;-0.55938720703125;-0.447265625;17.245354325607984;12.932795222480479;17.703092631072074;-0.85791015625;0.2265625;-0.05322265625;-14.0625;-9.4375;48.5625;
1441975702306193;0.48089599609375;-0.50518798828125;-0.5628662109375;-0.443603515625;17.168543461933922;12.959441862686122;17.732323117563592;-0.86279296875;0.25830078125;-0.06201171875;-9.625;-10.0;39.5625;
1441975702323194;0.4775390625;-0.5076904296875;-0.56488037109375;-0.4417724609375;17.112484756943072;12.968527589258612;17.73571988804968;-0.86181640625;0.2626953125;-0.06103515625;-3.25;-9.5625;28.6875;
1441975702345196;0.47430419921875;-0.51007080078125;-0.56573486328125;-0.44140625;17.072496355707415;12.968017646112182;17.72264217964507;-0.85498046875;0.2490234375;-0.037109375;4.4375;-9.0625;19.3125;
1441975702374197;0.47174072265625;-0.5120849609375;-0.5654296875;-0.44219970703125;17.051845929247893;12.966849305315456;17.705180759708696;-0.8408203125;0.24267578125;-0.0244140625;11.6875;-9.0;12.0;
1441975702382198;0.4696044921875;-0.5137939453125;-0.564453125;-0.44378662109375;17.043703772531202;12.961591697628203;17.68149411438804;-0.84619140625;0.203125;-0.01806640625;15.375;-7.6875;5.125;
1441975702405199;0.46759033203125;-0.51531982421875;-0.563232421875;-0.44573974609375;17.04057405347684;12.951508786412942;17.652098086248845;-0.8466796875;0.17578125;-9.765625E-4;17.75;-6.9375;0.6875;
1441975702426200;0.46600341796875;-0.51654052734375;-0.56182861328125;-0.44775390625;17.043145340567392;12.942264638346188;17.6249439306382;-0.82421875;0.15966796875;0.02001953125;18.6875;-5.5;-1.125;
1441975702442201;0.4649658203125;-0.51727294921875;-0.5604248046875;-0.44964599609375;17.051002983701892;12.931710268057117;17.59981763078748;-0.830078125;0.15966796875;0.02392578125;17.3125;-4.25;-3.75;
1441975702465202;0.46441650390625;-0.51776123046875;-0.55902099609375;-0.45147705078125;17.06300445404001;12.922940263560376;17.578741878186865;-0.85791015625;0.1669921875;0.03271484375;14.3125;-2.875;-6.5;
1441975702479203;0.464111328125;-0.51806640625;-0.55767822265625;-0.45306396484375;17.075869560528165;12.916610770033966;17.562222855746036;-0.87744140625;0.16162109375;0.0283203125;11.875;-2.25;-8.0625;
1441975702502205;0.46380615234375;-0.5181884765625;-0.5565185546875;-0.45465087890625;17.0883452640103;12.90294151936008;17.539417773980684;-0.87451171875;0.14892578125;0.025390625;9.8125;-1.6875;-7.4375;
1441975702525206;0.46331787109375;-0.5181884765625;-0.5552978515625;-0.45660400390625;17.102163876986406;12.877229172010736;17.503168376616557;-0.89892578125;0.1357421875;0.02294921875;9.0;-2.875;-6.8125;
1441975702546207;0.46234130859375;-0.51837158203125;-0.55426025390625;-0.458740234375;17.111353951485434;12.841915284095233;17.455386959095726;-0.9169921875;0.11962890625;0.02197265625;9.875;-4.9375;-6.1875;
1441975702562208;0.4609375;-0.518798828125;-0.55316162109375;-0.4609375;17.116978601050555;12.805837729066171;17.404574468382396;-0.91796875;0.11376953125;0.03271484375;11.9375;-6.1875;-4.6875;
1441975702585209;0.4593505859375;-0.5194091796875;-0.55218505859375;-0.46295166015625;17.118734316183527;12.773384318281249;17.357213840562814;-0.90087890625;0.11181640625;0.03955078125;14.125;-6.375;-2.5625;
1441975702606211;0.457275390625;-0.52020263671875;-0.55169677734375;-0.4647216796875;17.11174841181185;12.737351294801206;17.30645084987077;-0.88720703125;0.1025390625;0.0498046875;14.5;-5.875;-0.6875;
1441975702622211;0.45513916015625;-0.521240234375;-0.55169677734375;-0.46575927734375;17.096780269707928;12.715559845265862;17.27256083710489;-0.87060546875;0.11962890625;0.076171875;14.6875;-5.6875;2.25;
1441975702645213;0.45343017578125;-0.52197265625;-0.55224609375;-0.4658203125;17.07807775134296;12.704675366164853;17.25607370998207;-0.8486328125;0.1494140625;0.07568359375;11.75;-4.4375;4.3125;
1441975702666214;0.45245361328125;-0.5220947265625;-0.55364990234375;-0.46502685546875;17.057597379309783;12.693721883008369;17.248284300802315;-0.87646484375;0.17236328125;0.06396484375;5.75;-3.3125;5.8125;
1441975702682215;0.45220947265625;-0.521484375;-0.5557861328125;-0.46337890625;17.03658429881019;12.681347573660297;17.24785128025939;-0.91748046875;0.181640625;0.0517578125;-3.4375;-3.1875;7.0;
1441975702705216;0.4525146484375;-0.52008056640625;-0.55859375;-0.4613037109375;17.016163379867802;12.656775378908954;17.242243214634996;-0.939453125;0.17333984375;0.04052734375;-12.1875;-3.4375;8.625;
1441975702726217;0.45263671875;-0.5185546875;-0.56158447265625;-0.45928955078125;16.993811255583953;12.624952122187658;17.22956787572205;-0.94140625;0.13525390625;0.04443359375;-18.875;-4.0;10.75;
1441975702742218;0.45233154296875;-0.51739501953125;-0.56451416015625;-0.457275390625;16.967341270509408;12.598702053887656;17.220021942676844;-0.90625;0.0859375;0.056640625;-19.125;-4.875;14.5625;
1441975702765220;0.45135498046875;-0.51690673828125;-0.56756591796875;-0.45501708984375;16.931648387517665;12.584290361254267;17.219521085935764;-0.89013671875;0.05419921875;0.05908203125;-16.25;-5.0;18.9375;
1441975702787221;0.44964599609375;-0.51666259765625;-0.57135009765625;-0.4522705078125;16.882620261672294;12.56920227925158;17.21907239243455;-0.88330078125;0.05078125;0.04736328125;-13.75;-6.125;24.4375;
1441975702802222;0.44769287109375;-0.51678466796875;-0.575439453125;-0.44879150390625;16.825368600717862;12.568319749492202;17.23409589762125;-0.8837890625;0.06201171875;0.06005859375;-14.1875;-7.375;30.1875;
1441975702825223;0.44573974609375;-0.5169677734375;-0.57940673828125;-0.4454345703125;16.76924785359987;12.567287633497845;17.248102358001418;-0.92236328125;0.08203125;0.05029296875;-15.3125;-7.3125;34.6875;
1441975702854225;0.44329833984375;-0.51751708984375;-0.5830078125;-0.442626953125;16.71296521671564;12.564277331159442;17.255040170864984;-0.99462890625;0.0654296875;0.03515625;-14.6875;-8.375;37.1875;
1441975702862225;0.4395751953125;-0.51885986328125;-0.58624267578125;-0.4404296875;16.649269348497892;12.56080444708472;17.25275203619216;-1.03662109375;0.02490234375;0.03759765625;-9.25;-10.3125;40.875;
1441975702884226;0.43475341796875;-0.52154541015625;-0.5889892578125;-0.43829345703125;16.576174051891034;12.575681976104661;17.260204392435355;-1.01025390625;-0.00390625;0.07666015625;-0.3125;-10.75;45.875;
1441975702906228;0.4290771484375;-0.52557373046875;-0.5911865234375;-0.4361572265625;16.495618569216283;12.609436402190074;17.278594431799007;-0.9619140625;0.009765625;0.1044921875;9.5625;-8.3125;50.375;
1441975702922229;0.4232177734375;-0.53033447265625;-0.593017578125;-0.43365478515625;16.41174417732537;12.65723741508486;17.308371096842393;-0.96875;0.05517578125;0.12060546875;17.6875;-5.375;52.75;
1441975702944230;0.41796875;-0.5347900390625;-0.59521484375;-0.43017578125;16.326384194702833;12.707682570502648;17.34731448824506;-0.994140625;0.1259765625;0.11767578125;20.4375;-2.4375;52.1875;
1441975702966231;0.4139404296875;-0.53802490234375;-0.5982666015625;-0.42584228515625;16.244782841230858;12.746187962177315;17.386320186401758;-1.00537109375;0.18896484375;0.1142578125;14.125;0.375;50.875;
1441975702982232;0.41107177734375;-0.53997802734375;-0.60162353515625;-0.42138671875;16.173733008527314;12.770343880602569;17.419293869782884;-0.970703125;0.2197265625;0.12353515625;2.4375;3.0625;47.375;
1441975703013234;0.40924072265625;-0.54132080078125;-0.60467529296875;-0.4169921875;16.11466618773003;12.792408766840325;17.45389990778137;-0.9423828125;0.2138671875;0.1474609375;-5.25;5.75;42.6875;
1441975703027235;0.40838623046875;-0.5423583984375;-0.60711669921875;-0.41302490234375;16.069729645778107;12.815440931145885;17.490160971381407;-0.900390625;0.21923828125;0.16064453125;-8.5625;8.9375;36.5625;
1441975703042235;0.408447265625;-0.5428466796875;-0.6090087890625;-0.40948486328125;16.038923567469347;12.836400165928245;17.525760734911152;-0.876953125;0.23095703125;0.16455078125;-8.9375;12.0625;28.9375;
1441975703064237;0.40948486328125;-0.54266357421875;-0.61053466796875;-0.40643310546875;16.022462277272687;12.852931505400688;17.55920801795106;-0.88330078125;0.2548828125;0.16552734375;-10.125;14.1875;21.0;
1441975703087238;0.41156005859375;-0.5416259765625;-0.6114501953125;-0.404296875;16.025213931109327;12.862393258593276;17.586602404479866;-0.89599609375;0.26025390625;0.16552734375;-12.625;15.3125;13.875;
1441975703102239;0.4141845703125;-0.54034423828125;-0.61175537109375;-0.40289306640625;16.040352063463285;12.871081791009502;17.61157456213624;-0.9130859375;0.2373046875;0.1611328125;-13.8125;15.125;6.5625;
1441975703124240;0.417236328125;-0.538818359375;-0.6114501953125;-0.4022216796875;16.06696918683662;12.8786060409472;17.633385732816805;-0.91845703125;0.22900390625;0.1533203125;-12.625;15.375;0.0;
1441975703147241;0.4207763671875;-0.536865234375;-0.61077880859375;-0.402099609375;16.1038643708788;12.882861634353523;17.651883827458583;-0.91650390625;0.2275390625;0.14013671875;-11.0625;14.8125;-5.5625;
1441975703169243;0.42462158203125;-0.53436279296875;-0.610107421875;-0.40252685546875;16.148125211336513;12.878139428394693;17.662230241393253;-0.91943359375;0.2109375;0.1279296875;-11.25;13.875;-10.25;
1441975703184244;0.42852783203125;-0.5313720703125;-0.609375;-0.40338134765625;16.197377450957195;12.864744446568515;17.664069202275954;-0.92822265625;0.1923828125;0.11865234375;-12.8125;11.375;-13.6875;
1441975703208245;0.4324951171875;-0.52825927734375;-0.60845947265625;-0.4046630859375;16.250905431219575;12.847561016616526;17.66083390033033;-0.9306640625;0.1728515625;0.11669921875;-13.5;9.25;-15.75;
1441975703229246;0.436279296875;-0.525146484375;-0.60711669921875;-0.40655517578125;16.30875751368488;12.826538461182992;17.650208786616595;-0.94189453125;0.15478515625;0.10302734375;-12.75;7.4375;-17.5;
1441975703244247;0.43963623046875;-0.52227783203125;-0.6055908203125;-0.408935546875;16.36608961870726;12.801522154428667;17.631674808368324;-0.9658203125;0.1357421875;0.0966796875;-9.4375;5.4375;-18.75;
1441975703267248;0.4423828125;-0.5196533203125;-0.6041259765625;-0.4114990234375;16.418430632083368;12.771578000505379;17.605404494915614;-0.982421875;0.13671875;0.0908203125;-6.25;3.0;-19.4375;
1441975703288250;0.4449462890625;-0.5172119140625;-0.60260009765625;-0.4140625;16.46891874116102;12.741655440894348;17.577928556635133;-0.98095703125;0.154296875;0.09326171875;-3.875;1.0625;-19.5;
1441975703304250;0.447509765625;-0.51458740234375;-0.60113525390625;-0.41668701171875;16.51984794632512;12.70577243269869;17.545027624577784;-0.97607421875;0.166015625;0.07666015625;-2.875;-0.0625;-20.125;
1441975703327252;0.4498291015625;-0.51190185546875;-0.59979248046875;-0.41943359375;16.568768783928604;12.66205255120108;17.50376913076125;-0.986328125;0.16259765625;0.080078125;-3.5625;-1.1875;-20.75;
1441975703350253;0.45184326171875;-0.50946044921875;-0.598388671875;-0.42218017578125;16.614553730634135;12.61765093408146;17.460089152351006;-0.99267578125;0.162109375;0.08837890625;-3.125;-2.125;-21.0;
1441975703365254;0.45367431640625;-0.50714111328125;-0.59710693359375;-0.42486572265625;16.657125441371946;12.570561957377102;17.413369658237375;-0.9765625;0.16162109375;0.087890625;-1.5;-2.3125;-20.4375;
1441975703387255;0.45550537109375;-0.50482177734375;-0.59600830078125;-0.42730712890625;16.69705222508764;12.522054790853533;17.366471789384928;-0.96630859375;0.15966796875;0.08837890625;-1.375;-2.8125;-19.75;
1441975703409256;0.45733642578125;-0.50244140625;-0.5950927734375;-0.42938232421875;16.734010738304253;12.473050573490834;17.32087385102652;-0.96142578125;0.15625;0.0751953125;-2.4375;-3.5;-18.6875;
1441975703424257;0.45916748046875;-0.49993896484375;-0.594482421875;-0.43109130859375;16.76744264646047;12.421568988130467;17.27511050535646;-0.9677734375;0.1513671875;0.07080078125;-4.25;-3.6875;-17.3125;
1441975703447259;0.46075439453125;-0.49761962890625;-0.5941162109375;-0.4326171875;16.7956767997537;12.369634748155361;17.22889133900908;-0.970703125;0.13916015625;0.06787109375;-6.6875;-4.125;-15.25;
1441975703469260;0.46197509765625;-0.49566650390625;-0.59368896484375;-0.43414306640625;16.820001580905004;12.32051235682749;17.183211538944438;-0.9716796875;0.13671875;0.06884765625;-6.625;-4.5;-13.0;
1441975703484261;0.46270751953125;-0.494140625;-0.59332275390625;-0.43560791015625;16.838278720846105;12.274995452551108;17.13886683047549;-0.99169921875;0.13623046875;0.05908203125;-4.4375;-5.3125;-11.125;
1441975703508262;0.46307373046875;-0.49298095703125;-0.593017578125;-0.43701171875;16.851716099559322;12.233477541539317;17.096767048153453;-0.9873046875;0.13623046875;0.0615234375;-2.375;-6.1875;-8.875;
1441975703529263;0.4630126953125;-0.4923095703125;-0.5926513671875;-0.4383544921875;16.860413006728695;12.199799521962843;17.059888091882048;-0.98291015625;0.1376953125;0.0556640625;-0.1875;-6.8125;-6.75;
1441975703544264;0.4625244140625;-0.4920654296875;-0.59228515625;-0.43951416015625;16.8637733404781;12.174866688123117;17.029858600524413;-0.9833984375;0.13525390625;0.060546875;2.375;-6.6875;-4.25;
1441975703567265;0.46197509765625;-0.491943359375;-0.59222412109375;-0.44036865234375;16.863068041901656;12.154548037161714;17.00565999416348;-0.962890625;0.14306640625;0.05615234375;3.9375;-6.625;-2.1875;
1441975703589267;0.46136474609375;-0.4918212890625;-0.59246826171875;-0.4407958984375;16.858215604367196;12.13870080452132;16.987894245557406;-0.9677734375;0.154296875;0.06103515625;3.25;-6.375;-0.375;
1441975703604268;0.46087646484375;-0.49176025390625;-0.5928955078125;-0.4407958984375;16.851441594659327;12.130816511032583;16.98003135873725;-0.95947265625;0.16162109375;0.06640625;1.5625;-5.625;1.3125;
1441975703635269;0.46063232421875;-0.49163818359375;-0.59344482421875;-0.44049072265625;16.844897947165496;12.127439862168837;16.97878103797018;-0.95654296875;0.17138671875;0.0673828125;-0.625;-4.375;2.1875;
1441975703649270;0.46044921875;-0.491455078125;-0.59417724609375;-0.43994140625;16.836890025473725;12.125836152656069;16.980893356038408;-0.95703125;0.16552734375;0.0693359375;-2.4375;-3.375;3.1875;
1441975703664271;0.46044921875;-0.49139404296875;-0.59490966796875;-0.43890380859375;16.828393289665556;12.13603319160525;16.99641861389419;-0.93359375;0.1669921875;0.07763671875;-3.8125;-2.1875;4.0625;
1441975703687272;0.46075439453125;-0.4912109375;-0.59588623046875;-0.43756103515625;16.819895857707518;12.14845122480538;17.016950430463016;-0.9384765625;0.18017578125;0.064453125;-5.375;-0.9375;4.5625;
1441975703709274;0.46136474609375;-0.49072265625;-0.59686279296875;-0.43603515625;16.813934870405014;12.15949478308492;17.038423266281537;-0.93603515625;0.18310546875;0.06103515625;-8.125;-0.125;5.0;
1441975703724274;0.462158203125;-0.49017333984375;-0.59783935546875;-0.43450927734375;16.809573954341833;12.17029154473642;17.06032896075434;-0.95263671875;0.17724609375;0.05712890625;-10.375;0.25;5.0625;
1441975703747276;0.46282958984375;-0.48980712890625;-0.5986328125;-0.43310546875;16.80541856382444;12.183398782051533;17.082791900636668;-0.96875;0.15625;0.05517578125;-10.875;0.5;5.4375;
1441975703769277;0.46319580078125;-0.4896240234375;-0.599365234375;-0.43194580078125;16.79960455149097;12.194590935985422;17.101048279139945;-0.96826171875;0.1513671875;0.0546875;-9.3125;0.5625;6.25;
1441975703784278;0.46337890625;-0.48974609375;-0.5999755859375;-0.43072509765625;16.792081695036224;12.212437477376094;17.12439393708411;-0.9677734375;0.14306640625;0.07080078125;-6.5625;0.875;6.9375;
1441975703807279;0.4635009765625;-0.48992919921875;-0.60064697265625;-0.42938232421875;16.78296904192139;12.232196695854935;17.149841380547585;-0.96142578125;0.1494140625;0.06689453125;-5.125;1.1875;8.0;
1441975703829280;0.4637451171875;-0.4901123046875;-0.60150146484375;-0.4278564453125;16.77282457581207;12.25361997875332;17.178331152002684;-0.9658203125;0.15185546875;0.0693359375;-5.3125;1.5625;8.75;
1441975703844281;0.4639892578125;-0.4901123046875;-0.6025390625;-0.42608642578125;16.760925344558256;12.273324854493719;17.206909647531155;-0.96533203125;0.15625;0.068359375;-6.5;1.875;9.375;
1441975703867283;0.46435546875;-0.49017333984375;-0.60357666015625;-0.424072265625;16.748756498345095;12.298223552252466;17.241574685929585;-0.95947265625;0.15673828125;0.0810546875;-8.0625;2.375;10.25;
1441975703889284;0.46484375;-0.4901123046875;-0.60479736328125;-0.42193603515625;16.73608289430525;12.321273797014754;17.27595847485608;-0.953125;0.16455078125;0.06640625;-9.25;3.0;10.5625;
1441975703904285;0.4654541015625;-0.48992919921875;-0.60601806640625;-0.41973876953125;16.724367597632252;12.343303802020182;17.310215087004934;-0.95263671875;0.1748046875;0.0751953125;-10.625;3.4375;10.4375;
1441975703927286;0.466064453125;-0.48974609375;-0.60699462890625;-0.4178466796875;16.71541634442082;12.362708882344899;17.340256597925773;-0.9541015625;0.177734375;0.06494140625;-11.25;3.4375;9.75;
1441975703974289;0.4666748046875;-0.489501953125;-0.60772705078125;-0.416259765625;16.70945345073016;12.378650998073528;17.365434456565055;-0.9755859375;0.173828125;0.0673828125;-10.1875;3.125;8.5625;
1441975703979289;0.4671630859375;-0.48931884765625;-0.6085205078125;-0.41485595703125;16.7026836459283;12.391396952079138;17.386495958539097;-0.97021484375;0.16943359375;0.06787109375;-8.625;2.6875;7.5;
1441975703987290;0.4677734375;-0.489013671875;-0.60906982421875;-0.4136962890625;16.699847701011777;12.401625061777661;17.404338886677852;-0.96044921875;0.1767578125;0.07421875;-7.875;2.375;6.5625;
1441975704010291;0.46844482421875;-0.48846435546875;-0.609619140625;-0.4127197265625;16.69905239469122;12.405410620630665;17.416090405627127;-0.98193359375;0.1767578125;0.07177734375;-7.1875;2.25;5.3125;
1441975704024292;0.46917724609375;-0.48779296875;-0.61016845703125;-0.41192626953125;16.69992730964263;12.404916955982085;17.423531361942814;-0.98876953125;0.1689453125;0.07177734375;-7.5625;1.5625;4.3125;
1441975704047293;0.46990966796875;-0.4871826171875;-0.610595703125;-0.4112548828125;16.701922177924704;12.404950538482376;17.430606751962937;-0.97607421875;0.15966796875;0.07763671875;-7.5625;1.25;3.5625;
1441975704070294;0.470458984375;-0.48687744140625;-0.610595703125;-0.4110107421875;16.706111442843483;12.40709812949703;17.43590832560758;-0.9658203125;0.15087890625;0.0810546875;-6.5;1.625;3.1875;
1441975704084295;0.4708251953125;-0.48675537109375;-0.61053466796875;-0.4107666015625;16.708666777402662;12.411724052952444;17.442477800996826;-0.98046875;0.13916015625;0.078125;-2.9375;1.625;3.1875;
1441975704107296;0.47113037109375;-0.486572265625;-0.61065673828125;-0.41033935546875;16.70896490028003;12.41565106430586;17.449432288046438;-0.97802734375;0.150390625;0.07275390625;-1.625;0.875;3.375;
1441975704130298;0.47161865234375;-0.4862060546875;-0.61083984375;-0.4100341796875;16.71143722887955;12.41539843968376;17.453033945791233;-0.98291015625;0.16845703125;0.07080078125;-2.6875;0.625;3.125;
1441975704144298;0.47198486328125;-0.48583984375;-0.61090087890625;-0.409912109375;16.71455242032796;12.41285125194642;17.45313096520223;-0.97998046875;0.15576171875;0.068359375;-3.6875;0.4375;2.6875;
1441975704167300;0.47210693359375;-0.485595703125;-0.61083984375;-0.41009521484375;16.717501348182584;12.40746906632234;17.448099125027476;-0.97021484375;0.15234375;0.078125;-2.4375;0.125;2.0625;
1441975704190301;0.47216796875;-0.485595703125;-0.61065673828125;-0.410400390625;16.720492919458724;12.405355576274996;17.44470979009061;-0.9541015625;0.15576171875;0.08544921875;-0.1875;-0.1875;1.375;
1441975704204302;0.47216796875;-0.485595703125;-0.61065673828125;-0.410400390625;16.720492919458724;12.405355576274996;17.44470979009061;-0.95068359375;0.17041015625;0.0830078125;1.375;-0.0625;0.5625;
1441975704235304;0.47247314453125;-0.4852294921875;-0.61053466796875;-0.41070556640625;16.72618414910263;12.397970735913567;17.437992477012273;-0.95068359375;0.17578125;0.07373046875;0.8125;-0.4375;-0.5;
1441975704250305;0.472900390625;-0.48468017578125;-0.6102294921875;-0.41119384765625;16.735384580407004;12.387321220959043;17.427851829684037;-0.94873046875;0.18408203125;0.078125;-0.875;-0.5625;-2.0625;
1441975704264305;0.47332763671875;-0.48419189453125;-0.60980224609375;-0.41204833984375;16.746746079570027;12.373406716601874;17.41278724534691;-0.94482421875;0.17626953125;0.07275390625;-0.875;-0.8125;-3.75;
1441975704287307;0.4736328125;-0.48382568359375;-0.60906982421875;-0.41314697265625;16.75975276319271;12.359919781345946;17.3958908061629;-0.947265625;0.1748046875;0.076171875;1.125;-1.125;-5.0625;
1441975704310308;0.47393798828125;-0.48358154296875;-0.608154296875;-0.4144287109375;16.774308445865717;12.3473891989506;17.378518006575884;-0.94873046875;0.1728515625;0.0712890625;2.9375;-1.5625;-6.3125;
1441975704324309;0.4742431640625;-0.4832763671875;-0.60723876953125;-0.415771484375;16.789276531206756;12.33241037215021;17.35869829122639;-0.9443359375;0.1767578125;0.06640625;4.125;-1.8125;-7.3125;
1441975704347310;0.47454833984375;-0.48291015625;-0.60626220703125;-0.417236328125;16.805292549978073;12.314515632364024;17.33561384485439;-0.951171875;0.17626953125;0.0634765625;4.125;-1.9375;-8.0625;
1441975704370311;0.47479248046875;-0.48260498046875;-0.60516357421875;-0.41888427734375;16.82213502915463;12.295051785255417;17.309720400173777;-0.95751953125;0.18310546875;0.07275390625;4.5;-1.9375;-9.125;
1441975704384312;0.47515869140625;-0.4822998046875;-0.60400390625;-0.4205322265625;16.840273294250178;12.276437987276962;17.284838360652227;-0.96630859375;0.1884765625;0.072265625;5.75;-1.9375;-10.0625;
1441975704408314;0.4755859375;-0.48193359375;-0.60284423828125;-0.42218017578125;16.859004443574648;12.256364676643564;17.258849142890522;-0.96630859375;0.1845703125;0.072265625;5.5625;-1.8125;-10.75;
1441975704430315;0.47607421875;-0.4815673828125;-0.6016845703125;-0.42364501953125;16.87743367580132;12.23913520227147;17.23643650515875;-0.962890625;0.1826171875;0.07421875;5.25;-1.3125;-11.0;
1441975704451316;0.47674560546875;-0.48101806640625;-0.6005859375;-0.425048828125;16.89713525987562;12.219261959318878;17.212781637725087;-0.96630859375;0.18212890625;0.07421875;4.5;-0.625;-11.125;
1441975704467317;0.4775390625;-0.48052978515625;-0.599609375;-0.4261474609375;16.915595909150678;12.205079022307604;17.196218194242398;-0.962890625;0.1708984375;0.0732421875;3.3125;-0.25;-10.9375;
1441975704490318;0.4783935546875;-0.47998046875;-0.5987548828125;-0.427001953125;16.93293592888136;12.192769579141402;17.18295876872005;-0.955078125;0.17431640625;0.07080078125;1.875;0.3125;-10.375;
1441975704511319;0.47918701171875;-0.4793701171875;-0.59808349609375;-0.42767333984375;16.94800757704141;12.17982249589089;17.170141620939415;-0.955078125;0.171875;0.06494140625;0.4375;0.4375;-9.5625;
1441975704527320;0.47991943359375;-0.47894287109375;-0.59747314453125;-0.42822265625;16.961208710586256;12.171793812844475;17.162052912772214;-0.94677734375;0.1630859375;0.068359375;-0.5;0.5625;-8.375;
1441975704550322;0.48052978515625;-0.4786376953125;-0.59698486328125;-0.4285888671875;16.971591032451535;12.167633141665922;17.158022142371383;-0.9619140625;0.16650390625;0.0625;-0.125;0.5;-7.25;
1441975704571323;0.48114013671875;-0.47821044921875;-0.5966796875;-0.4288330078125;16.980599950310665;12.161126824370054;17.15288497508795;-0.96923828125;0.171875;0.06201171875;-0.75;0.375;-6.125;
1441975704587324;0.48162841796875;-0.4779052734375;-0.59637451171875;-0.428955078125;16.98785935862642;12.158740710935607;17.151548194714405;-0.9716796875;0.16845703125;0.06005859375;-1.875;0.125;-5.3125;
1441975704611325;0.48199462890625;-0.4779052734375;-0.595947265625;-0.42919921875;16.994601610659387;12.161206572653018;17.15309446006654;-0.96630859375;0.16064453125;0.06640625;-1.0;0.5625;-3.9375;
1441975704631326;0.48211669921875;-0.47802734375;-0.595703125;-0.42919921875;16.996919750247617;12.167492228519256;17.158680609436992;-0.96435546875;0.15673828125;0.0703125;0.625;1.0625;-3.0;
1441975704647327;0.482421875;-0.47821044921875;-0.59564208984375;-0.4288330078125;16.997919306639353;12.181946839920176;17.174344282022886;-0.9599609375;0.16455078125;0.07373046875;0.8125;1.4375;-1.6875;
1441975704670329;0.48284912109375;-0.47821044921875;-0.5958251953125;-0.42803955078125;16.99711242063794;12.199030379539868;17.195495077467204;-0.9599609375;0.16650390625;0.06298828125;-1.25;1.875;-0.1875;
1441975704691330;0.4832763671875;-0.47802734375;-0.5963134765625;-0.42706298828125;16.99401551335001;12.21220932881638;17.21468026218489;-0.9599609375;0.16748046875;0.064453125;-4.0625;2.3125;1.0;
1441975704707331;0.4837646484375;-0.4779052734375;-0.5968017578125;-0.42596435546875;16.9907251386465;12.229533107698154;17.238360324972746;-0.94677734375;0.16162109375;0.07666015625;-5.9375;2.4375;2.0;
1441975704729332;0.484130859375;-0.47796630859375;-0.59735107421875;-0.42474365234375;16.984995379457757;12.251448881806253;17.2662830397004;-0.94482421875;0.15673828125;0.07080078125;-6.0;2.9375;2.9375;
1441975704751333;0.48455810546875;-0.47802734375;-0.59796142578125;-0.42333984375;16.978533521560845;12.27639307710435;17.298124544072554;-0.95703125;0.16943359375;0.07373046875;-5.5625;3.375;3.6875;
1441975704767334;0.485107421875;-0.4779052734375;-0.59869384765625;-0.421875;16.972433966310042;12.297803533242677;17.327831312323752;-0.96240234375;0.17236328125;0.06884765625;-6.6875;3.375;4.125;
1441975704789335;0.485595703125;-0.477783203125;-0.599365234375;-0.42047119140625;16.966437969054546;12.317938016736623;17.355754555591215;-0.966796875;0.16845703125;0.06787109375;-7.75;3.375;4.375;
1441975704818337;0.4859619140625;-0.477783203125;-0.59991455078125;-0.41912841796875;16.960094355044642;12.339611143206561;17.384010560952582;-0.962890625;0.15869140625;0.07421875;-7.3125;3.625;4.8125;
1441975704827338;0.486328125;-0.4779052734375;-0.6004638671875;-0.4178466796875;16.95353060314843;12.362470052482664;17.412878865200028;-0.9658203125;0.158203125;0.07421875;-6.125;3.6875;5.0625;
1441975704849339;0.4866943359375;-0.47802734375;-0.60101318359375;-0.41650390625;16.946622530194006;12.386094113497263;17.44270437203523;-0.9658203125;0.15283203125;0.07373046875;-5.3125;3.8125;5.75;
1441975704863340;0.48712158203125;-0.47808837890625;-0.60162353515625;-0.4150390625;16.939372091161395;12.4100945631169;17.473797851701292;-0.96923828125;0.15087890625;0.07177734375;-5.5625;4.0;6.375;
1441975704886341;0.48748779296875;-0.47808837890625;-0.60247802734375;-0.413330078125;16.929118103892243;12.433216098927376;17.50544620139586;-0.96533203125;0.1455078125;0.06982421875;-6.625;4.125;7.125;
1441975704900342;0.48797607421875;-0.47802734375;-0.6033935546875;-0.41156005859375;16.919246893825722;12.456044192827443;17.53765861496836;-0.96240234375;0.1533203125;0.07421875;-7.75;4.0625;7.75;
1441975704923343;0.48846435546875;-0.47784423828125;-0.6043701171875;-0.40966796875;16.908775507154807;12.477247577383604;17.56917505766067;-0.96044921875;0.15771484375;0.07177734375;-8.9375;4.125;7.9375;
1441975704946344;0.48895263671875;-0.47760009765625;-0.6053466796875;-0.407958984375;16.89928884394156;12.493722101232523;17.59557891077775;-0.962890625;0.15771484375;0.068359375;-9.625;3.9375;8.0;
1441975704960345;0.48931884765625;-0.47747802734375;-0.60626220703125;-0.40625;16.88876155174991;12.511774504607326;17.622707251507272;-0.9619140625;0.150390625;0.07568359375;-9.125;3.875;8.0625;
1441975704983346;0.4896240234375;-0.4774169921875;-0.60711669921875;-0.40472412109375;16.878733318994247;12.527794264352163;17.646718992579395;-0.96142578125;0.15234375;0.06884765625;-8.375;3.4375;8.0625;
1441975705006348;0.4898681640625;-0.47735595703125;-0.60784912109375;-0.4034423828125;16.870125227027586;12.540493101154242;17.666169121447822;-0.95654296875;0.15234375;0.0703125;-7.3125;3.1875;7.9375;
1441975705020349;0.4901123046875;-0.47723388671875;-0.60858154296875;-0.4022216796875;16.862011008317786;12.550842098424999;17.683270165600266;-0.966796875;0.15185546875;0.06982421875;-6.3125;2.75;7.5;
1441975705043350;0.49029541015625;-0.4771728515625;-0.60919189453125;-0.401123046875;16.854529405716907;12.561144316305418;17.699277391583735;-0.96240234375;0.1513671875;0.07177734375;-6.25;2.3125;7.125;
1441975705066351;0.49041748046875;-0.47723388671875;-0.60955810546875;-0.4002685546875;16.848790689264213;12.572182126934688;17.714080446284015;-0.95849609375;0.15283203125;0.0654296875;-5.125;2.0;6.625;
1441975705081352;0.49053955078125;-0.4771728515625;-0.61004638671875;-0.3995361328125;16.84335611296519;12.577486325808067;17.723460217016125;-0.96923828125;0.15576171875;0.064453125;-3.375;1.6875;5.75;
1441975705103353;0.49078369140625;-0.4769287109375;-0.6104736328125;-0.3988037109375;16.8399035981637;12.58128696913321;17.732074797026158;-0.97265625;0.166015625;0.06884765625;-3.75;1.5;4.75;
1441975705126355;0.49114990234375;-0.47650146484375;-0.61083984375;-0.39837646484375;16.839937883729892;12.578997114015323;17.73436465214405;-0.96875;0.16943359375;0.0673828125;-4.6875;1.1875;3.375;
1441975705140355;0.4913330078125;-0.4761962890625;-0.61090087890625;-0.39837646484375;16.842106768329437;12.574409502460789;17.731368447636218;-0.974609375;0.154296875;0.0712890625;-4.0;1.0625;2.4375;
1441975705163357;0.49151611328125;-0.47607421875;-0.6107177734375;-0.39849853515625;16.845654651762526;12.57431166798997;17.731270613165396;-0.966796875;0.15087890625;0.0791015625;-1.5;1.0;1.4375;
1441975705186358;0.49176025390625;-0.47601318359375;-0.61053466796875;-0.3985595703125;16.849116732763076;12.57687566431401;17.733989086269283;-0.96142578125;0.150390625;0.06982421875;0.25;1.1875;0.6875;
1441975705200359;0.4918212890625;-0.4759521484375;-0.61053466796875;-0.39862060546875;16.85010514282517;12.57540502688507;17.732672915122194;-0.96337890625;0.16015625;0.06494140625;0.125;1.0625;0.125;
1441975705223360;0.49212646484375;-0.4755859375;-0.61041259765625;-0.39886474609375;16.855729579497744;12.569325526732948;17.727446138189222;-0.9638671875;0.1591796875;0.07177734375;-0.875;0.8125;-0.4375;
1441975705246362;0.49237060546875;-0.475341796875;-0.61016845703125;-0.399169921875;16.861471948095705;12.565437377075481;17.723363289607715;-0.958984375;0.15478515625;0.0703125;-1.125;0.4375;-0.9375;
1441975705262362;0.49261474609375;-0.47509765625;-0.60980224609375;-0.39971923828125;16.869150563927302;12.559193466811667;17.71583714245437;-0.95361328125;0.1611328125;0.0673828125;0.375;0.4375;-1.8125;
1441975705292364;0.49285888671875;-0.47491455078125;-0.609375;-0.4002685546875;16.876963972987298;12.554775623671278;17.70978813931899;-0.96630859375;0.16259765625;0.06591796875;1.125;0.25;-2.625;
1441975705314365;0.4931640625;-0.474609375;-0.60894775390625;-0.40093994140625;16.886284498147948;12.546596123304322;17.70013222176208;-0.96728515625;0.1689453125;0.0625;1.6875;0.0625;-3.4375;
1441975705320366;0.49359130859375;-0.47430419921875;-0.6083984375;-0.40167236328125;16.897550827779032;12.540025883112634;17.69189137267713;-0.9609375;0.17138671875;0.064453125;1.3125;0.0625;-4.5;
1441975705343367;0.4940185546875;-0.47393798828125;-0.6077880859375;-0.4024658203125;16.909713179339832;12.53187037471356;17.681911036185365;-0.9609375;0.17041015625;0.060546875;1.375;0.1875;-5.3125;
1441975705366368;0.49444580078125;-0.47369384765625;-0.60693359375;-0.403564453125;16.92437473165529;12.523934668258322;17.67017189709457;-0.96337890625;0.16943359375;0.06591796875;1.9375;0.375;-6.125;
1441975705380369;0.49481201171875;-0.4735107421875;-0.6060791015625;-0.404541015625;16.93776255526669;12.518413407543274;17.660887571247688;-0.96533203125;0.1591796875;0.06591796875;3.4375;0.5625;-6.625;
1441975705403371;0.49530029296875;-0.473388671875;-0.60516357421875;-0.40545654296875;16.951919541848643;12.517060841398832;17.655927504740994;-0.96240234375;0.16357421875;0.060546875;3.75;0.8125;-6.8125;
1441975705426372;0.495849609375;-0.47314453125;-0.6043701171875;-0.40625;16.96564947291182;12.514281245632143;17.650782066153436;-0.95947265625;0.166015625;0.0595703125;3.375;1.25;-6.875;
1441975705440373;0.4964599609375;-0.47283935546875;-0.6036376953125;-0.40704345703125;16.979676579767073;12.509958494419402;17.644597988171213;-0.9609375;0.16552734375;0.0615234375;2.25;1.5;-6.875;
1441975705463374;0.4970703125;-0.47259521484375;-0.602783203125;-0.40777587890625;16.99395729250331;12.509522025555002;17.641990528189673;-0.96142578125;0.162109375;0.060546875;1.75;1.625;-6.8125;
1441975705486375;0.49755859375;-0.47247314453125;-0.60205078125;-0.40838623046875;17.00552852867923;12.510927504646354;17.641225369118924;-0.9609375;0.1552734375;0.056640625;2.0;1.875;-6.5625;
1441975705500376;0.498046875;-0.47235107421875;-0.601318359375;-0.40899658203125;17.017100042825877;12.51234033033479;17.640467910137186;-0.95703125;0.1640625;0.0625;2.1875;2.1875;-6.1875;
1441975705524377;0.49853515625;-0.47235107421875;-0.60064697265625;-0.409423828125;17.02696788328383;12.519036401423097;17.645342918328524;-0.947265625;0.16064453125;0.06005859375;2.25;2.3125;-5.8125;
1441975705546379;0.4991455078125;-0.47222900390625;-0.5999755859375;-0.4097900390625;17.03791569181314;12.525703368552831;17.65108036007128;-0.96044921875;0.1650390625;0.05517578125;1.75;2.3125;-5.375;
1441975705560379;0.4996337890625;-0.4720458984375;-0.59942626953125;-0.41015625;17.04741889642418;12.528004751068245;17.652645858375315;-0.96923828125;0.16259765625;0.048828125;1.125;2.25;-5.1875;
1441975705583381;0.5;-0.47210693359375;-0.59869384765625;-0.41070556640625;17.05710019599974;12.533482156768404;17.65525642650864;-0.9541015625;0.1533203125;0.056640625;0.75;2.3125;-4.75;
1441975705606382;0.50018310546875;-0.4725341796875;-0.597900390625;-0.4112548828125;17.064401522782273;12.546044834371274;17.663170762991488;-0.97314453125;0.15185546875;0.05908203125;2.875;2.25;-4.1875;
1441975705620383;0.5003662109375;-0.47283935546875;-0.59710693359375;-0.41168212890625;17.071590258379736;12.558380392035048;17.671631472841902;-0.9755859375;0.16162109375;0.044921875;4.75;2.0;-3.875;
1441975705643384;0.5006103515625;-0.472900390625;-0.5965576171875;-0.41229248046875;17.079497540940437;12.558813816323951;17.669161986324323;-0.98095703125;0.16357421875;0.0419921875;3.6875;1.75;-3.875;
1441975705666386;0.50054931640625;-0.4732666015625;-0.5958251953125;-0.4129638671875;17.085420329855733;12.56402182649587;17.669063092668317;-0.97705078125;0.13818359375;0.0556640625;2.9375;1.125;-3.0625;
1441975705680386;0.5001220703125;-0.4739990234375;-0.59503173828125;-0.41375732421875;17.08818976978049;12.571669482807772;17.66876913871754;-0.95947265625;0.125;0.0556640625;5.375;1.3125;-1.625;
1441975705711388;0.49957275390625;-0.47491455078125;-0.59429931640625;-0.4144287109375;17.088381634797148;12.583569887271077;17.672379122994705;-0.96044921875;0.12548828125;0.056640625;8.0625;0.9375;0.125;
1441975705726389;0.4990234375;-0.4757080078125;-0.59381103515625;-0.41485595703125;17.086349565446575;12.593839459812749;17.676138906704885;-0.96240234375;0.13232421875;0.048828125;8.4375;0.6875;1.3125;
1441975705742390;0.49847412109375;-0.47650146484375;-0.593505859375;-0.41510009765625;17.082285395818527;12.604935824998112;17.681772310977205;-0.95947265625;0.12646484375;0.04931640625;6.5625;0.25;2.5;
1441975705763391;0.49774169921875;-0.4774169921875;-0.59307861328125;-0.4154052734375;17.077454239359263;12.617089714433565;17.687101713767273;-0.95751953125;0.130859375;0.05029296875;5.6875;0.25;3.125;
1441975705786392;0.496826171875;-0.47857666015625;-0.592529296875;-0.416015625;17.0725465509451;12.628293527312024;17.688966889437722;-0.95947265625;0.13330078125;0.04736328125;6.75;0.125;3.5625;
1441975705800393;0.49578857421875;-0.47998046875;-0.591796875;-0.416748046875;17.067505209159833;12.643774711333712;17.69317171291899;-0.9580078125;0.1337890625;0.052734375;9.625;0.0;3.3125;
1441975705823395;0.4947509765625;-0.48126220703125;-0.591064453125;-0.41754150390625;17.063247851300154;12.65526918264961;17.69358082653924;-0.95361328125;0.14794921875;0.05029296875;11.0625;-0.0625;2.75;
1441975705845396;0.49383544921875;-0.482666015625;-0.5899658203125;-0.41851806640625;17.062549989293608;12.672943604506735;17.698580905927415;-0.94775390625;0.146484375;0.052734375;11.5;0.0625;2.3125;
1441975705860397;0.49298095703125;-0.4840087890625;-0.58880615234375;-0.41961669921875;17.063511169672797;12.688618724434217;17.70139078581847;-0.958984375;0.1435546875;0.04443359375;12.5;0.4375;1.1875;
1441975705883398;0.49212646484375;-0.48529052734375;-0.58758544921875;-0.42083740234375;17.065698780098465;12.701566151633964;17.701123798760943;-0.96044921875;0.1416015625;0.04150390625;12.9375;0.5625;0.1875;
1441975705905399;0.4913330078125;-0.4864501953125;-0.58624267578125;-0.42230224609375;17.070790512849463;12.709804880468694;17.695609221913177;-0.95361328125;0.14013671875;0.04736328125;13.1875;0.375;-0.625;
1441975705929401;0.490478515625;-0.48773193359375;-0.58465576171875;-0.4239501953125;17.077365146003434;12.720243235396788;17.69054716694482;-0.94873046875;0.12841796875;0.04931640625;13.875;0.4375;-1.25;
1441975705943401;0.489501953125;-0.4892578125;-0.5830078125;-0.4256591796875;17.082745126793494;12.734403184587652;17.68778075857319;-0.94873046875;0.1171875;0.04736328125;15.625;0.5;-1.1875;
1441975705965403;0.48834228515625;-0.49078369140625;-0.5814208984375;-0.42730712890625;17.08613708761237;12.746475868230581;17.682794696014383;-0.93994140625;0.1240234375;0.048828125;16.875;0.5;-1.0625;
1441975705988404;0.48724365234375;-0.49237060546875;-0.579833984375;-0.428955078125;17.089719737837928;12.760753777861929;17.679987794699716;-0.94287109375;0.1318359375;0.05224609375;17.0625;0.8125;-0.9375;
1441975706003405;0.48602294921875;-0.4940185546875;-0.57830810546875;-0.4305419921875;17.091499720594474;12.77507508748857;17.677063600558697;-0.939453125;0.12841796875;0.052734375;17.375;0.875;-0.8125;
1441975706025406;0.4849853515625;-0.4957275390625;-0.57666015625;-0.43194580078125;17.094164493389;12.798751626603273;17.68403257434646;-0.92138671875;0.14013671875;0.05126953125;17.25;1.0;-0.75;
1441975706048407;0.48394775390625;-0.4974365234375;-0.574951171875;-0.43341064453125;17.09749434359341;12.822312098624424;17.690536038934056;-0.92041015625;0.14111328125;0.0537109375;17.125;2.4375;-1.0;
1441975706063408;0.48291015625;-0.49932861328125;-0.57305908203125;-0.43487548828125;17.10114250051127;12.853109123602536;17.703226492394567;-0.92138671875;0.13671875;0.04833984375;17.1875;2.4375;-1.125;
1441975706085410;0.48187255859375;-0.50115966796875;-0.57135009765625;-0.43621826171875;17.103270625587793;12.88204701778186;17.715109111728665;-0.92724609375;0.1455078125;0.03857421875;18.1875;2.4375;-1.4375;
1441975706109411;0.48046875;-0.503173828125;-0.56964111328125;-0.43768310546875;17.102642229363852;12.907685189378823;17.72177681698944;-0.91259765625;0.14501953125;0.0390625;17.125;2.8125;-1.125;
1441975706123412;0.47882080078125;-0.505859375;-0.5677490234375;-0.43890380859375;17.097151286886575;12.952500971025813;17.745170086719565;-0.89404296875;0.140625;0.04931640625;19.3125;2.3125;0.375;
1441975706145413;0.4771728515625;-0.50872802734375;-0.56573486328125;-0.4398193359375;17.0898005609803;13.008656097553732;17.779935594124503;-0.8955078125;0.17529296875;0.03564453125;21.6875;3.5;0.875;
1441975706168414;0.47576904296875;-0.5115966796875;-0.56390380859375;-0.4405517578125;17.081817835722124;13.067800922772488;17.819407611996844;-0.88232421875;0.181640625;0.03271484375;21.9375;5.375;1.5;
1441975706183415;0.4737548828125;-0.51470947265625;-0.56170654296875;-0.4417724609375;17.073181788007627;13.119892898056781;17.846948675621505;-0.8916015625;0.17919921875;0.01416015625;20.0;4.9375;2.5;
1441975706205416;0.47064208984375;-0.5186767578125;-0.559326171875;-0.4434814453125;17.056824482956262;13.16725505657964;17.862209078258754;-0.9169921875;0.16796875;0.009765625;24.6875;3.0;3.375;
1441975706229418;0.46673583984375;-0.5233154296875;-0.55712890625;-0.44488525390625;17.02913575181754;13.217308862869318;17.877368171915908;-0.9033203125;0.177734375;0.001953125;32.125;0.25;6.5625;
1441975706243419;0.46258544921875;-0.52777099609375;-0.55572509765625;-0.44573974609375;16.993054311062053;13.254149765584964;17.882997018871396;-0.88330078125;0.2216796875;-0.01123046875;34.5;-0.8125;8.6875;
1441975706265420;0.4586181640625;-0.53173828125;-0.5548095703125;-0.44635009765625;16.95640553718794;13.278927570547838;17.880587979967597;-0.89111328125;0.2744140625;-0.01318359375;30.75;-2.375;10.0625;
1441975706288421;0.45477294921875;-0.53515625;-0.55419921875;-0.44696044921875;16.921554580163004;13.29008962418211;17.86736451350947;-0.9033203125;0.28662109375;-0.021484375;26.9375;-4.4375;9.6875;
1441975706303422;0.451171875;-0.53814697265625;-0.553955078125;-0.447265625;16.88657874619844;13.295790558405537;17.852534592128073;-0.9052734375;0.28955078125;-0.01318359375;23.5625;-5.375;9.0625;
1441975706327423;0.4476318359375;-0.54107666015625;-0.5535888671875;-0.44775390625;16.854056609301555;13.300779964713112;17.836452079289913;-0.88671875;0.27490234375;-0.01318359375;19.9375;-5.9375;10.1875;
1441975706348425;0.44403076171875;-0.5439453125;-0.55322265625;-0.4482421875;16.82142961975505;13.304380383241973;17.818970165174882;-0.85986328125;0.2421875;-0.01611328125;20.1875;-6.125;11.375;
1441975706363425;0.43988037109375;-0.54718017578125;-0.552734375;-0.4490966796875;16.786252566019193;13.305000238940854;17.794450484795593;-0.82861328125;0.20458984375;-0.0126953125;20.375;-6.4375;13.6875;
1441975706385427;0.43475341796875;-0.55126953125;-0.55218505859375;-0.44964599609375;16.739098594656973;13.31376306170631;17.773477768042518;-0.787109375;0.17529296875;-4.8828125E-4;24.3125;-6.9375;16.625;
1441975706409428;0.42889404296875;-0.55615234375;-0.55169677734375;-0.4498291015625;16.680883265692685;13.33092239132417;17.757695936457594;-0.75927734375;0.21630859375;0.0087890625;29.125;-6.4375;20.0;
1441975706423429;0.4234619140625;-0.560791015625;-0.55194091796875;-0.44903564453125;16.61692577209568;13.35056269797581;17.751221919890824;-0.74267578125;0.26904296875;-0.0029296875;32.3125;-6.0625;22.3125;
1441975706445430;0.4190673828125;-0.56390380859375;-0.5535888671875;-0.44720458984375;16.553194493683293;13.352626630714605;17.741581705966713;-0.7109375;0.28125;-0.02294921875;25.25;-5.5;24.625;
1441975706468431;0.41497802734375;-0.56610107421875;-0.55609130859375;-0.445068359375;16.489241670515327;13.338928789130506;17.72303694770796;-0.67626953125;0.26123046875;-0.03369140625;10.5625;-6.9375;25.8125;
1441975706483432;0.41033935546875;-0.568603515625;-0.55853271484375;-0.443115234375;16.421544445009083;13.324840545714487;17.700910300971874;-0.62744140625;0.20849609375;-0.02001953125;3.6875;-8.375;28.875;
1441975706514434;0.40478515625;-0.5718994140625;-0.560791015625;-0.441162109375;16.34499344808899;13.31693669804418;17.679458872431933;-0.583984375;0.19189453125;-0.0126953125;6.6875;-9.3125;31.4375;
1441975706528435;0.3990478515625;-0.57562255859375;-0.5631103515625;-0.4385986328125;16.261333164289496;13.318869138264022;17.667972008165645;-0.5537109375;0.20849609375;-0.00390625;12.4375;-9.5625;34.8125;
1441975706543436;0.39349365234375;-0.57879638671875;-0.56585693359375;-0.4359130859375;16.178277465333046;13.313195550420716;17.652562165267646;-0.53271484375;0.251953125;-0.01708984375;12.125;-7.8125;35.625;
1441975706565437;0.387939453125;-0.58099365234375;-0.569580078125;-0.43316650390625;16.093692467209046;13.289285223849838;17.624736361833488;-0.5341796875;0.2666015625;-0.03271484375;8.0;-10.1875;35.3125;
1441975706588438;0.38262939453125;-0.58282470703125;-0.57342529296875;-0.4302978515625;16.010809777740338;13.264984256848784;17.598984307597078;-0.51318359375;0.25048828125;-0.01025390625;1.625;-13.3125;36.5625;
1441975706603439;0.377685546875;-0.58502197265625;-0.57635498046875;-0.427734375;15.935673080065857;13.253940553747869;17.582943240703685;-0.498046875;0.25341796875;-0.00634765625;-0.5625;-13.4375;35.875;
1441975706625440;0.37335205078125;-0.58721923828125;-0.57879638671875;-0.42529296875;15.868233411124804;13.250208641243363;17.574223972417474;-0.5224609375;0.26123046875;-0.0146484375;2.9375;-10.6875;32.4375;
1441975706648442;0.369384765625;-0.5887451171875;-0.5810546875;-0.423583984375;15.811376735412525;13.238506593940732;17.5579024606434;-0.56982421875;0.29248046875;-0.02490234375;3.375;-8.875;28.75;
1441975706663443;0.36566162109375;-0.58917236328125;-0.58392333984375;-0.42218017578125;15.758978496746339;13.211189525874698;17.530773180312938;-0.59716796875;0.2705078125;-0.0244140625;2.125;-11.5625;25.5625;
1441975706685444;0.36138916015625;-0.59014892578125;-0.5863037109375;-0.4212646484375;15.705786066160586;13.188256773899052;17.50196568481596;-0.599609375;0.25;0.02587890625;-2.125;-12.75;24.875;
1441975706709445;0.3572998046875;-0.59130859375;-0.5880126953125;-0.42071533203125;15.658854523967484;13.171596517791249;17.476392254947395;-0.6455078125;0.29296875;0.0595703125;4.375;-12.0;23.8125;
1441975706723446;0.353759765625;-0.59228515625;-0.58929443359375;-0.42059326171875;15.621354220824136;13.156725946640389;17.45227438006943;-0.763671875;0.3603515625;0.0498046875;6.75;-11.625;20.0625;
1441975706754448;0.351318359375;-0.59161376953125;-0.5916748046875;-0.42022705078125;15.590421275801143;13.125396655902525;17.42368897151438;-0.8427734375;0.33447265625;0.00341796875;6.25;-14.4375;19.75;
1441975706768449;0.3487548828125;-0.59088134765625;-0.59417724609375;-0.41986083984375;15.55785355845356;13.092913401731161;17.394125350761865;-0.81298828125;0.28271484375;0.03662109375;-5.0625;-14.1875;18.9375;
1441975706783449;0.345458984375;-0.5906982421875;-0.59600830078125;-0.4202880859375;15.525746969415469;13.063031988475819;17.359110842807777;-0.79345703125;0.2880859375;0.06201171875;-5.0;-13.75;18.5625;
1441975706805451;0.34100341796875;-0.592529296875;-0.59600830078125;-0.42120361328125;15.490708083905414;13.057375808081975;17.33215226776545;-0.8828125;0.35791015625;0.0888671875;2.875;-14.8125;16.625;
1441975706828452;0.33819580078125;-0.59454345703125;-0.59515380859375;-0.42193603515625;15.471420792281881;13.06659470686066;17.322465173354722;-1.01513671875;0.45556640625;0.091796875;19.3125;-12.8125;16.4375;
1441975706843453;0.3375244140625;-0.59442138671875;-0.5953369140625;-0.42236328125;15.46803662913842;13.05915149744816;17.312671541190717;-1.1435546875;0.43994140625;0.05322265625;17.4375;-7.5;14.8125;
1441975706867454;0.3360595703125;-0.593017578125;-0.596923828125;-0.42315673828125;15.456801945336125;13.025697356261858;17.281304746458424;-1.19677734375;0.31787109375;0.04150390625;1.25;-7.25;16.5625;
1441975706888455;0.3323974609375;-0.5924072265625;-0.599365234375;-0.423583984375;15.41891774655389;12.989215576166897;17.24160043402988;-1.0986328125;0.2265625;0.06689453125;-4.375;-15.4375;21.5;
1441975706903456;0.32745361328125;-0.5928955078125;-0.602294921875;-0.422607421875;15.35695618881533;12.965300263856781;17.21288119077888;-1.0244140625;0.27587890625;0.0888671875;0.4375;-20.0;29.3125;
1441975706925458;0.3232421875;-0.59442138671875;-0.60430908203125;-0.42083740234375;15.298437015825762;12.964194480628137;17.2057100784076;-1.04833984375;0.41015625;0.11376953125;3.125;-17.125;34.375;
1441975706948459;0.32110595703125;-0.5948486328125;-0.60595703125;-0.41943359375;15.26350090090977;12.959885909519587;17.202644899377184;-1.16943359375;0.53564453125;0.068359375;3.9375;-11.1875;31.1875;
1441975706963460;0.31988525390625;-0.5927734375;-0.60845947265625;-0.41973876953125;15.247340797554571;12.921542797400594;17.1732286809673;-1.3359375;0.54150390625;0.04052734375;-3.625;-10.375;25.75;
1441975706985461;0.31671142578125;-0.59185791015625;-0.6104736328125;-0.4205322265625;15.217360158844714;12.8883314232517;17.136794147690082;-1.2900390625;0.4306640625;0.0771484375;-12.5625;-18.5;19.25;
1441975707008462;0.31414794921875;-0.591552734375;-0.61199951171875;-0.42059326171875;15.189248133906814;12.869760349676875;17.115716067439777;-1.1640625;0.4150390625;0.1162109375;-0.25;-20.5625;23.0625;
1441975707023463;0.3109130859375;-0.59307861328125;-0.61181640625;-0.421142578125;15.163102019243865;12.872399042873825;17.101963926744588;-1.11474609375;0.39306640625;0.1474609375;2.0;-11.5;23.1875;
1441975707045464;0.30902099609375;-0.5924072265625;-0.6124267578125;-0.422607421875;15.15370552542344;12.849983694518492;17.073354417691608;-1.2646484375;0.46533203125;0.06396484375;13.5625;-14.4375;23.875;
1441975707068466;0.3062744140625;-0.59100341796875;-0.61334228515625;-0.4251708984375;15.142775481265424;12.811344813593319;17.025789063041717;-1.25537109375;0.42822265625;0.09619140625;2.5;-18.0;16.125;
1441975707083467;0.3021240234375;-0.5914306640625;-0.613037109375;-0.42803955078125;15.12407293364397;12.790452464813878;16.981830927375256;-1.19140625;0.4365234375;0.1728515625;5.375;-22.5;12.1875;
1441975707108468;0.30010986328125;-0.59228515625;-0.61175537109375;-0.42999267578125;15.12276382298489;12.788796822471324;16.962072423705195;-1.13671875;0.5654296875;0.19287109375;19.1875;-20.25;6.3125;
1441975707128469;0.30230712890625;-0.5908203125;-0.6090087890625;-0.43450927734375;15.182608735448042;12.768747856947137;16.931826573383763;-1.08935546875;0.72998046875;0.1806640625;15.5625;-7.125;-11.125;
1441975707143470;0.30596923828125;-0.58685302734375;-0.604736328125;-0.44305419921875;15.288103366289457;12.71084108364571;16.85934479837599;-1.15673828125;0.73486328125;0.2333984375;7.8125;-1.75;-41.0;
1441975707165471;0.3216552734375;-0.58929443359375;-0.58831787109375;-0.4508056640625;15.546648950366357;12.8131169651839;16.93135241119901;-1.26171875;0.646484375;0.28125;9.5;-12.0;-61.375;
1441975707188473;0.3206787109375;-0.5810546875;-0.58062744140625;-0.47174072265625;15.699741242531019;12.6120352392637;16.668743570425406;-0.73193359375;-0.31787109375;-0.6064453125;22.0625;19.875;-76.375;
1441975707203473;0.299560546875;-0.58843994140625;-0.57171630859375;-0.48699951171875;15.629724802669092;12.571446460366232;16.47274345191965;-3.0810546875;-0.32421875;0.3291015625;39.4375;-81.0;-102.5;
1441975707225475;0.27716064453125;-0.60614013671875;-0.57794189453125;-0.47100830078125;15.303450425135017;12.78741778746991;16.63187507086436;-1.41552734375;0.97998046875;0.8623046875;142.8125;-74.0625;3.125;
1441975707248476;0.2720947265625;-0.60498046875;-0.59429931640625;-0.454833984375;15.088597976175047;12.785976711833161;16.712562720507457;-0.873046875;1.78271484375;0.0751953125;69.1875;19.0625;154.625;
1441975707263477;0.28509521484375;-0.59429931640625;-0.6031494140625;-0.44927978515625;15.138105020767371;12.705408983522805;16.74569298144978;-0.79736328125;1.1142578125;0.22607421875;-74.875;16.5;71.0625;
1441975707285478;0.29754638671875;-0.5889892578125;-0.6048583984375;-0.4459228515625;15.226478623943693;12.69383517824358;16.802556681318624;-1.17138671875;0.68017578125;0.21630859375;-109.5625;22.5;-20.875;
1441975707308479;0.30133056640625;-0.593994140625;-0.60052490234375;-0.4425048828125;15.256593431373991;12.791386455890759;16.894032125723463;-1.66796875;0.48876953125;0.06396484375;-64.125;26.8125;-12.4375;
1441975707323480;0.29058837890625;-0.607177734375;-0.59332275390625;-0.44158935546875;15.175705216473874;12.927653814811672;16.940105423649335;-1.689453125;0.21142578125;0.0478515625;16.75;34.1875;37.0;
1441975707345482;0.2764892578125;-0.61859130859375;-0.5875244140625;-0.4425048828125;15.072270042625979;13.018039428831537;16.933512065089204;-1.6826171875;0.43017578125;0.0263671875;93.6875;1.75;72.6875;
1441975707368483;0.26422119140625;-0.627197265625;-0.583984375;-0.44256591796875;14.97317795393644;13.079578362742058;16.920636483344033;-1.46044921875;0.36767578125;0.0458984375;95.5;-18.625;77.5;
1441975707383484;0.2552490234375;-0.6343994140625;-0.5811767578125;-0.4412841796875;14.892515840134966;13.138967890170578;16.925745961368634;-1.31494140625;0.380859375;0.1044921875;74.25;-14.8125;70.75;
1441975707405485;0.24835205078125;-0.640625;-0.5787353515625;-0.43939208984375;14.825128579659546;13.194995333339687;16.93951906212012;-1.22412109375;0.43310546875;0.05322265625;54.875;-5.625;58.75;
1441975707428486;0.24493408203125;-0.64459228515625;-0.57977294921875;-0.43414306640625;14.75234278513832;13.23756757453426;16.977405262989365;-1.2265625;0.6669921875;0.05029296875;43.4375;1.375;39.5625;
1441975707443487;0.24920654296875;-0.64166259765625;-0.5872802734375;-0.42584228515625;14.704938941917142;13.223576354425246;17.031768007464983;-1.18212890625;0.77734375;0.0205078125;8.75;13.5625;36.4375;
1441975707465488;0.2587890625;-0.6357421875;-0.59588623046875;-0.4169921875;14.69852714711266;13.195430615011244;17.102614778180662;-1.0810546875;0.77587890625;0.0986328125;-59.0625;28.75;21.4375;
1441975707488490;0.26837158203125;-0.63177490234375;-0.600341796875;-0.4105224609375;14.723097469152092;13.193645647898999;17.174631748660406;-1.00634765625;0.60205078125;0.11767578125;-85.25;41.0625;10.0625;
1441975707511491;0.27886962890625;-0.63018798828125;-0.59912109375;-0.40771484375;14.799018057500927;13.227911678983755;17.250792226768755;-0.94189453125;0.53466796875;0.12646484375;-59.875;43.9375;-4.3125;
1441975707525492;0.288330078125;-0.6324462890625;-0.59344482421875;-0.4058837890625;14.882390745371962;13.312848047681996;17.34671975248131;-0.94140625;0.416015625;0.1171875;-26.875;47.9375;-23.625;
1441975707548493;0.301513671875;-0.6328125;-0.5885009765625;-0.40289306640625;14.985734555937087;13.401319760071468;17.46867108605988;-0.9248046875;0.541015625;0.07763671875;4.5;55.8125;-36.5625;
1441975707571495;0.31689453125;-0.62994384765625;-0.58587646484375;-0.39947509765625;15.099096958207141;13.467037471252524;17.592021144189967;-0.95263671875;0.54248046875;0.01953125;-16.3125;64.8125;-47.8125;
1441975707585495;0.33294677734375;-0.62652587890625;-0.5838623046875;-0.3946533203125;15.204066362690265;13.541194502987091;17.732926594867806;-0.951171875;0.517578125;0.07568359375;-39.1875;66.4375;-54.875;
1441975707608497;0.346923828125;-0.62347412109375;-0.58160400390625;-0.3907470703125;15.296963587136855;13.614311224849533;17.861747089682325;-0.98291015625;0.47265625;0.048828125;-47.75;70.5625;-49.4375;
1441975707631498;0.35772705078125;-0.6219482421875;-0.57794189453125;-0.38885498046875;15.378909472284516;13.691893002892089;17.970839709065434;-1.00439453125;0.42431640625;0.0537109375;-39.125;63.0625;-42.625;
1441975707645499;0.3677978515625;-0.62109375;-0.5740966796875;-0.38653564453125;15.447883173565911;13.77994390903557;0.08682476838111006;-0.95068359375;0.49658203125;0.02783203125;-18.0;50.25;-45.5625;
1441975707668500;0.37762451171875;-0.6201171875;-0.572509765625;-0.38104248046875;15.4806203097004;13.865610636540985;0.21581908710391334;-0.896484375;0.474609375;0.00732421875;-14.6875;50.625;-41.625;
1441975707691501;0.38677978515625;-0.61981201171875;-0.5714111328125;-0.3739013671875;15.488350499627153;13.957156902319026;0.3528965427049681;-0.873046875;0.513671875;0.0390625;-27.8125;58.75;-29.5625;
1441975707705502;0.3946533203125;-0.6195068359375;-0.56976318359375;-0.36865234375;15.501461254074147;14.038978022227711;0.46931167906253807;-0.81982421875;0.4755859375;-9.765625E-4;-30.25;60.9375;-18.375;
1441975707744504;0.40032958984375;-0.61993408203125;-0.56805419921875;-0.36444091796875;15.503959399784893;14.109266517486413;0.5623478493377444;-0.79443359375;0.39404296875;0.00439453125;-21.25;51.875;-16.9375;
1441975707750505;0.405517578125;-0.62261962890625;-0.56622314453125;-0.35687255859375;15.46298473515422;14.20324730215827;0.680486109377557;-0.73486328125;0.4326171875;0.02392578125;-10.6875;44.4375;-15.25;
1441975707765506;0.41162109375;-0.6243896484375;-0.56610107421875;-0.34686279296875;15.404298955254166;14.285407350566537;0.8044269244116483;-0.638671875;0.4892578125;-0.03369140625;-10.625;56.0625;-4.1875;
1441975707797507;0.416015625;-0.625;-0.56671142578125;-0.3394775390625;15.360856397264675;14.331920098343273;0.8856170437946469;-0.6328125;0.48486328125;-0.05419921875;-27.375;61.125;2.625;
1441975707810508;0.41748046875;-0.62744140625;-0.56549072265625;-0.3350830078125;15.320473535128066;14.377322319373356;0.9375368432421924;-0.6328125;0.3876953125;-0.02197265625;-23.6875;44.6875;5.5;
1441975707825509;0.41717529296875;-0.63336181640625;-0.56109619140625;-0.331787109375;15.266663167389689;14.455059450727397;0.9937466947971865;-0.58203125;0.35302734375;0.02197265625;2.9375;34.9375;7.8125;
1441975707848510;0.415283203125;-0.6397705078125;-0.557861328125;-0.32733154296875;15.189280572469416;14.514624781503645;1.0324682614301857;-0.5087890625;0.32275390625;-0.0185546875;30.3125;36.9375;13.0625;
1441975707870512;0.41180419921875;-0.6451416015625;-0.55780029296875;-0.32110595703125;15.089045225580945;14.532321441310781;1.0422570112403051;-0.52978515625;0.41650390625;-0.0810546875;27.5625;31.125;20.8125;
1441975707885512;0.407470703125;-0.65045166015625;-0.5595703125;-0.31280517578125;14.964063275277256;14.531877078258285;1.0431093990671778;-0.50537109375;0.4453125;-0.06494140625;12.4375;24.0;34.25;
1441975707908514;0.40203857421875;-0.65606689453125;-0.56201171875;-0.30364990234375;14.823655412602498;14.522807233123961;1.0357137132304568;-0.42529296875;0.43408203125;-0.10986328125;0.25;21.0;46.25;
1441975707930515;0.3951416015625;-0.662353515625;-0.5650634765625;-0.29315185546875;14.65981962577945;14.507279832724937;1.0213358628390417;-0.3515625;0.38330078125;-0.1181640625;-1.8125;18.5625;56.3125;
1441975707945516;0.38671875;-0.66961669921875;-0.56866455078125;-0.280517578125;14.46367282860594;14.48905057773478;1.0048334879684189;-0.337890625;0.42626953125;-0.1162109375;-1.8125;18.75;66.8125;
1441975707969517;0.37530517578125;-0.67926025390625;-0.5714111328125;-0.26702880859375;14.233724882735505;14.477289508563718;0.9785826584904667;-0.3447265625;0.49365234375;-0.0947265625;-1.6875;24.3125;80.5;
1441975707990518;0.3621826171875;-0.68878173828125;-0.57501220703125;-0.252685546875;13.986642545789612;14.455818589232232;0.9427883824373056;-0.32421875;0.63916015625;-0.14306640625;12.5625;20.5625;91.0625;
1441975708005519;0.3507080078125;-0.69610595703125;-0.5794677734375;-0.23828125;13.75695653563889;14.428981976467579;0.9160407932420898;-0.2490234375;0.68408203125;-0.1357421875;10.75;16.3125;98.0625;
1441975708028521;0.33892822265625;-0.70306396484375;-0.5848388671875;-0.22100830078125;13.500477027540152;14.399100453726778;0.8981541980869387;-0.208984375;0.6611328125;-0.0966796875;-5.3125;19.8125;108.1875;
1441975708050522;0.32659912109375;-0.710205078125;-0.58990478515625;-0.20257568359375;13.229977434684645;14.373388389753956;0.8850497881867666;-0.212890625;0.70166015625;-0.11865234375;-15.625;28.125;119.5625;
1441975708065523;0.31292724609375;-0.71722412109375;-0.59539794921875;-0.1822509765625;12.934819824081984;14.344252375529285;0.8723013362013327;-0.2216796875;0.734375;-0.10498046875;-15.25;31.5;125.875;
1441975708088524;0.298095703125;-0.7236328125;-0.6015625;-0.16021728515625;12.619195479477824;14.309219246738454;0.8600019656915808;-0.23876953125;0.7568359375;-0.13330078125;-19.6875;33.875;138.5625;
1441975708110525;0.28155517578125;-0.729736328125;-0.60772705078125;-0.13763427734375;12.289193213510691;14.271813083988963;0.843277307502531;-0.2529296875;0.74951171875;-0.12646484375;-26.25;35.25;149.75;
1441975708125526;0.26397705078125;-0.73492431640625;-0.614013671875;-0.11505126953125;11.955479466536778;14.230906951143389;0.8237911972418304;-0.232421875;0.76806640625;-0.1484375;-27.125;31.125;158.625;
1441975708156528;0.2459716796875;-0.73919677734375;-0.62017822265625;-0.09259033203125;11.622707533857568;14.189080994651906;0.8050201764560794;-0.20703125;0.80810546875;-0.1337890625;-29.75;26.8125;161.5625;
1441975708179529;0.22833251953125;-0.7423095703125;-0.62615966796875;-0.06976318359375;11.292197524220443;14.146831555335956;0.7926362454582655;-0.197265625;0.83056640625;-0.12158203125;-31.875;24.75;162.0;
1441975708185530;0.21026611328125;-0.74462890625;-0.63165283203125;-0.048583984375;10.975351125164373;14.105152072716264;0.7757699021609616;-0.22802734375;0.80419921875;-0.12451171875;-36.1875;27.0;161.75;
1441975708208531;0.19189453125;-0.7457275390625;-0.6373291015625;-0.03070068359375;10.688011156691672;14.059769934326688;0.7480962345647065;-0.28466796875;0.83935546875;-0.1357421875;-34.875;19.25;157.4375;
1441975708240533;0.17376708984375;-0.7452392578125;-0.6435546875;-0.01605224609375;10.433456536108698;14.008754150271946;0.7120307324186109;-0.30322265625;0.8154296875;-0.1142578125;-35.875;3.5;146.8125;
1441975708262534;0.15557861328125;-0.7451171875;-0.6485595703125;-0.0062255859375;10.218484484982428;13.967261270112731;0.6616573093460631;-0.3203125;0.81884765625;-0.091796875;-40.5625;-9.9375;133.25;
1441975708292536;0.12542724609375;-0.7459716796875;-0.65411376953125;3.0517578125E-4;9.941710654946798;13.920634960951633;0.5478666653453415;-0.26513671875;0.7568359375;-0.072265625;-16.375;-37.4375;97.3125;
1441975708308537;0.1138916015625;-0.74652099609375;-0.65557861328125;-0.0029296875;9.884113076725392;13.908625543805323;0.484137589066487;-0.24072265625;0.70263671875;-0.099609375;-6.125;-48.3125;73.25;
1441975708328538;0.1064453125;-0.745361328125;-0.65802001953125;-0.01104736328125;9.900692440612424;13.889235114252022;0.41958655558658386;-0.212890625;0.6943359375;-0.109375;-2.875;-57.5625;44.6875;
1441975708350539;0.10400390625;-0.742431640625;-0.661376953125;-0.02471923828125;10.003601584997147;13.861669047392933;0.35505159203006176;-0.20654296875;0.67041015625;-0.0859375;-9.0625;-63.1875;7.375;
1441975708365540;0.1070556640625;-0.74005126953125;-0.66253662109375;-0.04437255859375;10.197705611847644;13.847018984645537;0.29233750430803285;-0.2568359375;0.64990234375;-0.0478515625;-14.5;-68.0625;-33.125;
1441975708388541;0.11407470703125;-0.73748779296875;-0.662109375;-0.06939697265625;10.467831468043302;13.83744944899875;0.2263488401090133;-0.31396484375;0.62744140625;-0.0927734375;-4.125;-71.9375;-76.3125;
1441975708410543;0.1251220703125;-0.73468017578125;-0.65924072265625;-0.1007080078125;10.823410066465621;13.83451751164035;0.15408403358047004;-0.37353515625;0.55810546875;-0.10546875;5.0625;-79.625;-123.125;
1441975708425543;0.1396484375;-0.73114013671875;-0.65380859375;-0.1361083984375;11.243362523279615;13.8357137211883;0.08129399654001931;-0.431640625;0.486328125;-0.0634765625;17.375;-89.3125;-164.0;
1441975708448545;0.15802001953125;-0.7257080078125;-0.64678955078125;-0.17352294921875;11.714434276991476;13.832885737359177;0.015732458192795493;-0.501953125;0.515625;-0.044921875;26.5625;-91.5;-196.1875;
1441975708470546;0.17974853515625;-0.7171630859375;-0.6387939453125;-0.21295166015625;12.234839215658964;13.81676747626627;17.95168928163169;-0.63427734375;0.53466796875;-0.06689453125;24.8125;-86.0625;-221.625;
1441975708487547;0.20391845703125;-0.70635986328125;-0.62847900390625;-0.25408935546875;12.796851085019968;13.79477104750181;17.886237093223887;-0.74560546875;0.47705078125;-0.05029296875;15.5;-84.25;-245.875;
1441975708508548;0.23028564453125;-0.695068359375;-0.61279296875;-0.29736328125;13.407079972241275;13.788387807226849;17.823204503695354;-0.837890625;0.3955078125;0.033203125;16.625;-81.9375;-266.9375;
1441975708530549;0.25689697265625;-0.68408203125;-0.5919189453125;-0.34027099609375;14.03162898144003;13.804770612397691;17.76940787414015;-0.974609375;0.328125;0.06298828125;36.4375;-76.5;-290.8125;
1441975708547550;0.27978515625;-0.67498779296875;-0.56781005859375;-0.37908935546875;14.60460423098129;13.848468527728178;17.72878356453647;-1.28173828125;0.10791015625;0.05517578125;56.1875;-66.4375;-294.4375;
1441975708568552;0.29766845703125;-0.666259765625;-0.5433349609375;-0.4151611328125;15.123577896770042;13.887743963170388;17.674906499316794;-1.4873046875;-0.01708984375;-0.01025390625;76.25;-55.625;-267.6875;
1441975708592553;0.31463623046875;-0.654541015625;-0.52001953125;-0.44976806640625;15.633340735636398;13.891606217286869;17.599867631341002;-1.36669921875;0.05322265625;-0.0810546875;84.625;-60.6875;-243.5625;
1441975708607554;0.333984375;-0.636962890625;-0.5001220703125;-0.482421875;16.153576372029285;13.811869246713183;17.481022715089864;-1.28271484375;0.08740234375;-0.048828125;70.875;-67.3125;-240.75;
1441975708628555;0.35772705078125;-0.61383056640625;-0.484619140625;-0.5103759765625;16.670479382461675;13.617335350905833;17.301686340301462;-1.33642578125;0.10595703125;-0.09716796875;30.6875;-75.125;-247.4375;
1441975708650556;0.38311767578125;-0.58990478515625;-0.46978759765625;-0.53350830078125;17.16143197657267;13.29230649109374;17.01291584673057;-1.45166015625;0.01953125;-0.10986328125;-22.5625;-69.9375;-248.6875;
1441975708667557;0.40380859375;-0.5712890625;-0.44921875;-0.55572509765625;17.610973433760382;12.589848568379274;16.302025195088625;-1.5546875;-0.16796875;-0.0634765625;-41.25;-51.8125;-239.5;
1441975708688558;0.41522216796875;-0.55902099609375;-0.4215087890625;-0.5809326171875;17.815288624965113;7.986489023062001;11.614372276069954;-1.623046875;-0.19580078125;-0.04443359375;4.875;-32.5;-228.125;
1441975708710560;0.42388916015625;-0.5460205078125;-0.39361572265625;-0.60601806640625;17.45526574094867;5.893269195813917;9.429280937547352;-1.62744140625;0.072265625;-0.150390625;80.875;-31.6875;-221.125;
1441975708727561;0.43798828125;-0.52813720703125;-0.37066650390625;-0.6259765625;17.036544526091216;5.522544512696586;9.024328403201253;-1.5888671875;0.345703125;-0.265625;89.0;-41.875;-220.75;
1441975708748562;0.4539794921875;-0.507568359375;-0.34814453125;-0.64434814453125;16.595221056796387;5.370884023723295;8.855982759327311;-1.59228515625;0.33935546875;-0.32666015625;31.25;-44.4375;-222.5;
1441975708778564;0.462158203125;-0.48956298828125;-0.32025146484375;-0.66650390625;16.154217995606334;5.359038939412326;8.76799735313112;-1.57958984375;0.04296875;-0.271484375;14.1875;-45.5625;-227.125;
1441975708794564;0.4635009765625;-0.47344970703125;-0.28863525390625;-0.691162109375;15.722372498462738;5.41866485736902;8.704206150944753;-1.396484375;0.11328125;-0.201171875;73.1875;-47.375;-227.125;
1441975708808565;0.46368408203125;-0.45587158203125;-0.25799560546875;-0.714599609375;15.296840086720568;5.492926168385927;8.658608027719186;-1.1943359375;0.28662109375;-0.1845703125;119.875;-49.9375;-225.0;
1441975708830567;0.4661865234375;-0.4356689453125;-0.2305908203125;-0.73468017578125;14.877037293416683;5.549852400682602;8.626633883384342;-1.05078125;0.388671875;-0.2265625;116.0625;-57.625;-221.3125;
1441975708847568;0.47088623046875;-0.41412353515625;-0.20574951171875;-0.7513427734375;14.468641981796814;5.584290005395789;8.598110046820384;-0.94873046875;0.40087890625;-0.1865234375;85.0625;-64.0625;-216.375;
1441975708876569;0.4754638671875;-0.39337158203125;-0.1829833984375;-0.765380859375;14.090361420700377;5.61090190697474;8.57159067425925;-0.88427734375;0.2890625;-0.12646484375;58.4375;-64.8125;-208.0625;
1441975708890570;0.476806640625;-0.3746337890625;-0.161376953125;-0.7786865234375;13.749931138591512;5.653219355642057;8.548990638538905;-0.84423828125;0.16943359375;-0.0927734375;48.0;-60.6875;-192.5;
1441975708907571;0.47607421875;-0.35760498046875;-0.14117431640625;-0.79095458984375;13.44326498367401;5.702423579400682;8.527830847504392;-0.767578125;0.1796875;-0.0859375;59.3125;-56.1875;-173.5;
1441975708928572;0.47296142578125;-0.3421630859375;-0.12274169921875;-0.8026123046875;13.170836810458546;5.762612345330016;8.511709620852164;-0.66162109375;0.17236328125;-0.09912109375;64.5625;-52.375;-156.3125;
1441975708950573;0.467041015625;-0.3297119140625;-0.10736083984375;-0.8134765625;12.95418067454953;5.834579789588129;8.502331104188936;-0.61767578125;0.17041015625;-0.10888671875;71.625;-50.8125;-137.8125;
1441975708967574;0.45904541015625;-0.32598876953125;-0.09918212890625;-0.82049560546875;12.875392748478752;5.89970932164055;8.495871755642824;-0.65625;0.18994140625;-0.0576171875;77.625;-45.375;-110.375;
1441975708988576;0.45404052734375;-0.324462890625;-0.0946044921875;-0.82440185546875;12.83799402089813;5.937919231190957;8.490618974613614;-0.65771484375;0.28515625;-0.1044921875;66.9375;-34.0625;-81.25;
1441975709010577;0.44964599609375;-0.324462890625;-0.09222412109375;-0.82708740234375;12.828927384246555;5.969164179465397;8.48913029288786;-0.50439453125;0.33984375;-0.09228515625;36.9375;-22.125;-56.9375;
1441975709027578;0.44317626953125;-0.32745361328125;-0.09271240234375;-0.829345703125;12.8703825010178;6.010899092541185;8.49649783988292;-0.3349609375;0.29541015625;-0.0693359375;27.3125;-12.9375;-33.0625;
1441975709048579;0.434326171875;-0.3343505859375;-0.0977783203125;-0.8306884765625;12.982137563861974;6.065642450879036;8.520387213296555;-0.2998046875;0.30078125;-0.09765625;33.875;-6.9375;-5.9375;
1441975709070580;0.428955078125;-0.34637451171875;-0.10833740234375;-0.8272705078125;13.17570780935338;6.08550183698059;8.545323599217094;-0.369140625;0.39892578125;-0.10546875;33.4375;-1.9375;23.0;
1441975709087581;0.42742919921875;-0.3599853515625;-0.12359619140625;-0.820068359375;13.410946450683705;6.076476806288843;8.579496327945176;-0.4697265625;0.44970703125;-0.19091796875;-0.25;13.0625;51.375;
1441975709108582;0.42596435546875;-0.376220703125;-0.14300537109375;-0.810302734375;13.701352834794159;6.064123737158438;8.626020134584031;-0.45703125;0.44384765625;-0.18896484375;-35.8125;19.4375;73.0;
1441975709130584;0.42529296875;-0.39227294921875;-0.16290283203125;-0.7991943359375;13.99574307873285;6.045551339777216;8.672984504305175;-0.53125;0.4072265625;-0.13232421875;-50.1875;27.75;99.25;
1441975709148585;0.42095947265625;-0.4136962890625;-0.18621826171875;-0.7855224609375;14.377051004089552;6.044068694466593;8.729428562380596;-0.81005859375;0.42236328125;-0.16943359375;-54.5;42.125;128.75;
1441975709176586;0.41546630859375;-0.43853759765625;-0.21380615234375;-0.76776123046875;14.831619088536378;6.048106613652397;8.803011276470647;-1.13818359375;0.54931640625;-0.28564453125;-46.25;57.8125;164.0625;
1441975709190587;0.41064453125;-0.4654541015625;-0.248291015625;-0.7437744140625;15.36619696780036;6.05783063110662;8.916525652540455;-1.42138671875;0.5087890625;-0.3408203125;-56.5;69.6875;197.8125;
1441975709207588;0.40020751953125;-0.4964599609375;-0.28729248046875;-0.71478271484375;15.998294925866439;6.153655346974669;9.111574957860558;-1.548828125;0.3623046875;-0.22607421875;-89.3125;80.875;241.8125;
1441975709236590;0.38079833984375;-0.53118896484375;-0.3280029296875;-0.68212890625;16.7015575781284;6.521425208375929;9.550705454882888;-1.88525390625;0.12109375;-0.15234375;-83.1875;94.1875;297.4375;
1441975709250591;0.35479736328125;-0.56622314453125;-0.3685302734375;-0.64642333984375;17.34038291239796;7.945058332371171;11.026610249407337;-2.36669921875;-0.0263671875;-0.1083984375;-53.5625;102.3125;349.625;
1441975709267592;0.32562255859375;-0.6009521484375;-0.4139404296875;-0.601318359375;17.283938951713452;11.908257344702038;15.067985039066881;-2.68505859375;-0.0361328125;-0.03369140625;-33.875;108.3125;381.875;
1441975709288593;0.29205322265625;-0.6329345703125;-0.4619140625;-0.5484619140625;16.458253499112836;13.194768538316868;16.449370603013374;-2.95751953125;0.1357421875;0.13134765625;-57.6875;121.625;429.875;
1441975709310594;0.25628662109375;-0.66070556640625;-0.5086669921875;-0.489013671875;15.507150862658996;13.52948397560059;16.893223088725744;-3.0634765625;0.08056640625;0.16650390625;-72.875;123.25;467.5625;
1441975709327595;0.2200927734375;-0.683349609375;-0.54913330078125;-0.4278564453125;14.573662611594877;13.656795056085091;17.126064929511777;-2.9755859375;0.05517578125;0.16943359375;-83.4375;130.4375;482.3125;
1441975709348596;0.18316650390625;-0.70123291015625;-0.57965087890625;-0.37261962890625;13.729410052791339;13.713211918694304;17.252042238583776;-2.79833984375;0.29736328125;0.0791015625;-75.9375;130.5;463.375;
1441975709370597;0.15576171875;-0.70654296875;-0.6102294921875;-0.32281494140625;13.025803583133785;13.67606784067437;17.34152613692031;-2.87255859375;0.62255859375;-0.2314453125;-42.5625;105.5625;416.8125;
1441975709387598;0.134033203125;-0.7034912109375;-0.640869140625;-0.27655029296875;12.411559096057418;13.588839415981631;17.42212236636783;-2.67626953125;0.4541015625;0.037109375;-99.0625;88.4375;347.0;
1441975709408600;0.116455078125;-0.6944580078125;-0.6705322265625;-0.23370361328125;11.87335753379932;13.472567216165217;17.50202501517412;-2.58203125;0.23486328125;0.05029296875;-136.125;78.4375;304.125;
1441975709430601;0.10400390625;-0.677978515625;-0.7020263671875;-0.19183349609375;11.396002342904746;13.314399154001126;17.59643941711053;-2.45703125;-0.33203125;0.06787109375;-158.0625;71.125;268.8125;
1441975709452602;0.0966796875;-0.65362548828125;-0.73553466796875;-0.1500244140625;10.977400588926177;13.11239455715368;17.712430748751217;-1.97265625;-0.44140625;0.06689453125;-200.125;75.75;242.0;
1441975709468603;0.0887451171875;-0.6265869140625;-0.76641845703125;-0.11041259765625;10.592491336095042;12.902576642998485;17.827025163635188;-1.62890625;-0.39892578125;0.02880859375;-245.4375;86.3125;219.25;
1441975709490604;0.0799560546875;-0.6024169921875;-0.7908935546875;-0.07275390625;10.236316365260551;12.723667026666707;17.94501995980454;-1.5341796875;-0.46484375;-0.06884765625;-245.4375;74.8125;208.4375;
1441975709507605;0.07220458984375;-0.58837890625;-0.804443359375;-0.0390625;9.933035712023365;12.623456519845838;0.06422090411491821;-1.41943359375;-0.5068359375;-0.07275390625;-207.875;69.0;200.375;
1441975709529607;0.0660400390625;-0.586181640625;-0.8074951171875;-0.00848388671875;9.669532264818098;12.608448506810294;0.1839118749057037;-1.22802734375;-0.2744140625;-0.01806640625;-121.1875;63.0;199.4375;
1441975709550608;0.0650634765625;-0.58795166015625;-0.80615234375;0.01617431640625;9.492647219103983;12.623164339843562;0.295482654617254;-0.869140625;0.0185546875;-0.05078125;-32.1875;68.5625;175.6875;
1441975709567609;0.073486328125;-0.58831787109375;-0.80474853515625;0.03125;9.467460685190533;12.633016486578926;0.3943045937061014;-0.67333984375;0.31201171875;-0.0498046875;1.0;75.125;128.375;
1441975709589610;0.08612060546875;-0.58599853515625;-0.80474853515625;0.0408935546875;9.520240303812518;12.628065562593443;0.4819027018834813;-0.65771484375;0.51318359375;0.00341796875;-7.9375;76.5;82.5625;
1441975709610611;0.1025390625;-0.58441162109375;-0.8037109375;0.04571533203125;9.639487850606397;12.63367728619843;0.560852854347124;-0.67529296875;0.525390625;0.0771484375;-17.8125;77.75;42.375;
1441975709627612;0.1231689453125;-0.5858154296875;-0.79986572265625;0.04486083984375;9.830575052495078;12.667844050302516;0.630553766442304;-0.64501953125;0.55615234375;0.14208984375;-3.6875;80.5;5.125;
1441975709649613;0.14813232421875;-0.5888671875;-0.793701171875;0.0377197265625;10.099388453999449;12.724035386030454;0.6904794860729713;-0.58056640625;0.68359375;0.16455078125;22.8125;84.0;-39.625;
1441975709670615;0.17572021484375;-0.59051513671875;-0.78729248046875;0.02581787109375;10.425125954135584;12.78044545729814;0.7417687210946038;-0.5205078125;0.80517578125;0.17822265625;43.3125;86.6875;-89.375;
1441975709686615;0.207275390625;-0.58978271484375;-0.780517578125;0.0078125;10.832007532580189;12.834827144089372;0.7843289843767213;-0.529296875;0.8603515625;0.13818359375;44.0625;88.625;-139.375;
1441975709709617;0.240478515625;-0.58782958984375;-0.7723388671875;-0.01531982421875;11.291889366929437;12.894123661837947;0.8166742291112321;-0.68505859375;0.822265625;0.087890625;40.75;86.25;-181.375;
1441975709730618;0.27337646484375;-0.58734130859375;-0.760498046875;-0.044189453125;11.788551280909823;12.976555444896782;0.8347346211361502;-0.8603515625;0.78173828125;0.07666015625;46.25;77.9375;-209.6875;
1441975709747619;0.305908203125;-0.587890625;-0.744873046875;-0.078125;12.319634015658341;13.081780072704692;0.845009257324388;-1.0078125;0.7294921875;0.06689453125;73.625;62.3125;-231.3125;
1441975709769620;0.33831787109375;-0.5872802734375;-0.72625732421875;-0.114990234375;12.878914427076426;13.200600374912554;0.8594283011350383;-1.13623046875;0.703125;-0.02734375;98.125;49.25;-251.125;
1441975709790621;0.36920166015625;-0.58282470703125;-0.70770263671875;-0.152587890625;13.44550516410238;13.306703771856016;0.8738062823908823;-1.267578125;0.80029296875;-0.08349609375;108.125;44.0;-267.9375;
1441975709807622;0.39697265625;-0.57403564453125;-0.69061279296875;-0.18988037109375;14.001606966883429;13.384526746552236;0.8761204028740591;-1.4072265625;0.7568359375;-0.05224609375;95.125;33.0;-273.5;
1441975709829624;0.4224853515625;-0.56378173828125;-0.6727294921875;-0.22625732421875;14.543397901737672;13.462568563007942;0.8820688878019253;-1.3916015625;0.65283203125;0.0107421875;75.875;16.125;-271.1875;
1441975709850625;0.44512939453125;-0.55535888671875;-0.6513671875;-0.2630615234375;15.069585736774965;13.576582797868259;0.9028323745836022;-1.34228515625;0.49072265625;0.06298828125;73.875;11.1875;-264.625;
1441975709873626;0.46405029296875;-0.5479736328125;-0.62750244140625;-0.30108642578125;15.582973649610663;13.718539801408957;0.9307974668588176;-1.3876953125;0.4501953125;0.06982421875;97.0625;10.625;-258.4375;
1441975709889627;0.479736328125;-0.53839111328125;-0.60540771484375;-0.3369140625;16.066797082170172;13.846833746125466;0.9577794471506946;-1.46337890625;0.36328125;-0.06591796875;116.875;-0.875;-252.5;
1441975709910628;0.49334716796875;-0.5281982421875;-0.58465576171875;-0.3685302734375;16.505406381484228;13.999568586442129;1.0240566925747956;-1.4462890625;0.318359375;-0.08740234375;102.875;-14.375;-238.875;
1441975709927629;0.50482177734375;-0.518310546875;-0.5653076171875;-0.3961181640625;16.893497008048982;14.208917308218659;1.1575187045345887;-1.39208984375;0.26708984375;-0.05029296875;89.375;-13.0625;-218.375;
1441975709949631;0.5142822265625;-0.5089111328125;-0.5478515625;-0.41998291015625;17.229218050314003;14.5245275341352;1.4073805324002824;-1.3359375;0.2529296875;-0.0341796875;79.25;-10.6875;-196.1875;
1441975709970632;0.52191162109375;-0.50018310546875;-0.53277587890625;-0.4400634765625;17.504835581680243;15.073668669505041;1.9019904517413109;-1.2705078125;0.208984375;-0.0185546875;69.0625;-10.4375;-173.125;
1441975710001634;0.52801513671875;-0.49224853515625;-0.52001953125;-0.4566650390625;17.704461034129217;16.241119753481996;3.025281506652775;-1.19140625;0.15087890625;-0.0302734375;57.625;-10.75;-148.6875;
1441975710009634;0.5323486328125;-0.48602294921875;-0.50885009765625;-0.470703125;17.77270104287294;0.47383516169673345;5.215938657781665;-1.12841796875;0.1142578125;-0.0361328125;46.5625;-10.5625;-125.25;
1441975710030635;0.53515625;-0.48193359375;-0.50103759765625;-0.47998046875;17.72307221045824;1.9797340221834179;6.692633398455433;-1.07958984375;0.2109375;-0.04541015625;44.375;-9.4375;-106.0625;
1441975710047636;0.53997802734375;-0.47589111328125;-0.4969482421875;-0.48480224609375;17.64388782334901;2.7257332242961256;7.4442786105376095;-1.00439453125;0.2919921875;-0.11376953125;31.3125;-10.0625;-90.9375;
1441975710077638;0.545654296875;-0.46844482421875;-0.49566650390625;-0.48699951171875;17.567858363941554;3.145074567460208;7.8913393176894555;-0.9609375;0.2392578125;-0.12890625;-3.5;-10.0625;-77.5;
1441975710090639;0.5498046875;-0.46246337890625;-0.4949951171875;-0.48876953125;17.507248955764766;3.397753721954629;8.166139432413166;-0.96240234375;0.1015625;-0.0927734375;-25.9375;-10.8125;-59.875;
1441975710113640;0.5516357421875;-0.4595947265625;-0.49407958984375;-0.4903564453125;17.471037224142105;3.5187814808858655;8.293510576485772;-0.91943359375;0.0400390625;-0.04736328125;-20.9375;-8.8125;-44.625;
1441975710129641;0.55145263671875;-0.458740234375;-0.493896484375;-0.491455078125;17.463364067556654;3.5941935213356015;8.367190965221086;-0.83349609375;0.04638671875;-0.05810546875;-5.5625;-6.75;-29.4375;
1441975710150642;0.55010986328125;-0.4591064453125;-0.4949951171875;-0.49151611328125;17.481748474373042;3.637336637044589;8.408385913865967;-0.83447265625;0.04296875;-0.07666015625;2.6875;-8.5625;-14.25;
1441975710167643;0.54718017578125;-0.46087646484375;-0.49713134765625;-0.49102783203125;17.526435536348693;3.6708000953421314;8.435839928739211;-0.892578125;0.01318359375;-0.078125;2.5;-10.4375;1.3125;
1441975710189644;0.5426025390625;-0.46429443359375;-0.49981689453125;-0.49017333984375;17.594761450313502;3.682286402437836;8.434479121816192;-0.91552734375;-0.01123046875;-0.0693359375;6.75;-12.0625;16.1875;
1441975710214646;0.53656005859375;-0.46868896484375;-0.5035400390625;-0.48876953125;17.686816693996306;3.6968059121103862;8.433710917434674;-0.93017578125;-0.0166015625;-0.080078125;12.9375;-13.875;29.625;
1441975710233647;0.529541015625;-0.47406005859375;-0.5081787109375;-0.4864501953125;17.799889262740248;3.645049308068358;8.366324007029856;-0.95068359375;-0.0166015625;-0.060546875;15.5625;-15.9375;41.8125;
1441975710249648;0.52142333984375;-0.48028564453125;-0.5135498046875;-0.4835205078125;17.93102967181445;3.2648137349460953;7.968730521584268;-0.95166015625;-0.03125;-0.04833984375;15.5625;-16.0;54.875;
1441975710270649;0.51202392578125;-0.48724365234375;-0.51947021484375;-0.48028564453125;17.91742540539503;13.31128929745536;17.994562063453152;-0.96923828125;-0.04931640625;-0.0263671875;17.375;-16.3125;66.9375;
1441975710293650;0.50177001953125;-0.49530029296875;-0.525634765625;-0.4761962890625;17.75230004937353;13.10377797261632;17.763989437689975;-0.97314453125;-0.04345703125;-0.01416015625;20.5;-18.3125;76.6875;
1441975710309651;0.4910888671875;-0.50360107421875;-0.5321044921875;-0.4713134765625;17.576952099910038;13.09128895280149;17.729701589872878;-0.958984375;0.013671875;-0.02099609375;22.875;-16.8125;83.25;
1441975710330652;0.4803466796875;-0.51171875;-0.5391845703125;-0.465576171875;17.393862670292222;13.094648320506156;17.715820738060582;-0.95703125;0.0654296875;-0.00390625;21.6875;-15.375;87.0;
1441975710352654;0.4703369140625;-0.51910400390625;-0.54632568359375;-0.459228515625;17.215505930173975;13.106785561280853;17.71685508044219;-0.9560546875;0.12060546875;0.01123046875;16.9375;-14.3125;88.9375;
1441975710370655;0.46099853515625;-0.5255126953125;-0.55352783203125;-0.4527587890625;17.045170247280026;13.106749307458236;17.71097576660418;-0.94873046875;0.15283203125;0.00537109375;11.125;-13.25;86.625;
1441975710390656;0.45245361328125;-0.531005859375;-0.56048583984375;-0.44635009765625;16.886161433943748;13.102927874474695;17.705353220560138;-0.92431640625;0.1787109375;0.01318359375;5.625;-13.125;82.1875;
1441975710413657;0.44512939453125;-0.5355224609375;-0.56683349609375;-0.4403076171875;16.745468620818382;13.09981865845556;17.703955745185354;-0.88330078125;0.21728515625;0.02001953125;1.3125;-12.1875;75.6875;
1441975710436658;0.439208984375;-0.53875732421875;-0.572265625;-0.43524169921875;16.630818065296257;13.090046915972655;17.69817919941286;-0.8525390625;0.25;0.0078125;-2.0;-11.1875;65.1875;
1441975710460660;0.43450927734375;-0.54107666015625;-0.57659912109375;-0.43133544921875;16.541380842004784;13.078129659360672;17.68989320420265;-0.8505859375;0.26318359375;0.00830078125;-4.5625;-11.0625;52.6875;
1441975710473661;0.4310302734375;-0.542724609375;-0.57952880859375;-0.4288330078125;16.47920241152019;13.06796576870621;17.680690261899862;-0.85595703125;0.27001953125;0.01025390625;-4.4375;-9.9375;40.1875;
1441975710489661;0.4287109375;-0.54364013671875;-0.5810546875;-0.42791748046875;16.445118368558646;13.055805150000527;17.666281130908033;-0.86376953125;0.28564453125;-0.0029296875;-2.0625;-9.375;26.875;
1441975710512663;0.4276123046875;-0.543701171875;-0.5814208984375;-0.428466796875;16.437976839980408;13.038738738567233;17.645339655357514;-0.87451171875;0.28955078125;-0.01318359375;0.6875;-10.0;12.8125;
1441975710533664;0.427734375;-0.54278564453125;-0.58074951171875;-0.430419921875;16.457168886112683;13.01357949049331;17.615567487254932;-0.87548828125;0.29345703125;-0.01953125;1.75;-10.3125;-1.0625;
1441975710549665;0.428955078125;-0.54107666015625;-0.5791015625;-0.4334716796875;16.498941105354827;12.9829817506782;17.579808978463888;-0.86181640625;0.27587890625;-0.013671875;2.4375;-9.8125;-13.25;
1441975710571666;0.4310302734375;-0.538818359375;-0.5765380859375;-0.43768310546875;16.560422372128837;12.94520858175631;17.534915933098244;-0.84326171875;0.2529296875;-0.01220703125;2.8125;-9.25;-24.4375;
1441975710592667;0.43408203125;-0.535888671875;-0.57293701171875;-0.44293212890625;16.642896759720383;12.899341318556754;17.480693885731185;-0.8583984375;0.25146484375;-0.00390625;4.5;-8.625;-35.0;
1441975710609668;0.43780517578125;-0.532470703125;-0.56878662109375;-0.44873046875;16.737808756377653;12.843007258818599;17.416188750231093;-0.88037109375;0.22412109375;-0.00830078125;6.0;-8.1875;-44.125;
1441975710631670;0.4415283203125;-0.52874755859375;-0.564697265625;-0.45465087890625;16.833355376667086;12.768659209039413;17.33439232573914;-0.88720703125;0.17822265625;-0.00390625;5.5625;-7.5;-48.375;
1441975710652671;0.44537353515625;-0.525146484375;-0.55999755859375;-0.4608154296875;16.933446710171395;12.68721232835561;17.243055769002943;-0.86083984375;0.138671875;0.01806640625;5.375;-6.875;-48.375;
1441975710669672;0.44903564453125;-0.5218505859375;-0.55487060546875;-0.4671630859375;17.033609822528888;12.594917531612992;17.137732397420766;-0.85888671875;0.099609375;0.01171875;8.0625;-6.0625;-49.0625;
1441975710708674;0.45220947265625;-0.5189208984375;-0.54986572265625;-0.47320556640625;17.12546769696239;12.48998162256436;17.018565268334275;-0.8876953125;0.072265625;0.00830078125;11.1875;-5.625;-48.6875;
1441975710713674;0.45501708984375;-0.516357421875;-0.545166015625;-0.478759765625;17.20795626314441;12.374683704700702;16.8892306426387;-0.90576171875;0.0703125;0.001953125;12.3125;-6.125;-45.5;
1441975710729675;0.4573974609375;-0.5137939453125;-0.5411376953125;-0.4837646484375;17.278700471818155;12.234991601806781;16.737794721911566;-0.9189453125;0.0654296875;-0.01220703125;12.125;-6.8125;-41.5;
1441975710751676;0.45892333984375;-0.51153564453125;-0.537841796875;-0.48834228515625;17.333126055331846;12.073343451954338;16.564410971326534;-0.9013671875;0.03564453125;-0.0068359375;10.25;-7.6875;-35.75;
1441975710773678;0.45941162109375;-0.51019287109375;-0.534423828125;-0.4930419921875;17.37621184127245;11.907423274625845;16.380456633756342;-0.8671875;0.02392578125;0.01513671875;10.625;-8.75;-29.5625;
1441975710789679;0.45867919921875;-0.510009765625;-0.531005859375;-0.49761962890625;17.405170453676025;11.761780652819514;16.210306181553182;-0.86669921875;0.0078125;0.02587890625;16.75;-8.875;-23.9375;
1441975710813680;0.45654296875;-0.510986328125;-0.52789306640625;-0.5018310546875;17.416882277640408;11.65630352711844;16.074890623697495;-0.87353515625;0.01171875;0.02880859375;23.9375;-8.75;-17.5;
1441975710832681;0.4534912109375;-0.512939453125;-0.525390625;-0.5052490234375;17.41385276464346;11.611637891006751;15.99888202777822;-0.869140625;0.03662109375;0.03955078125;28.875;-8.6875;-10.4375;
1441975710849682;0.449951171875;-0.515380859375;-0.52349853515625;-0.50787353515625;17.400705124300927;11.612856042967366;15.96997023434117;-0.8759765625;0.07470703125;0.037109375;31.0625;-8.3125;-3.9375;
1441975710871683;0.44635009765625;-0.51763916015625;-0.52276611328125;-0.509521484375;17.377045457091008;11.636463685389206;15.969915427559812;-0.8876953125;0.0888671875;0.02880859375;29.6875;-8.625;2.4375;
1441975710892684;0.44287109375;-0.5196533203125;-0.52294921875;-0.51025390625;17.346333236902463;11.676694342520689;15.992769018650325;-0.89599609375;0.09716796875;0.033203125;23.25;-8.75;7.875;
1441975710909685;0.4393310546875;-0.52178955078125;-0.523681640625;-0.51043701171875;17.309962986505735;11.732600188578152;16.033923619011308;-0.92333984375;0.1025390625;0.05322265625;17.375;-8.0625;12.5;
1441975710931687;0.435791015625;-0.52423095703125;-0.5247802734375;-0.50982666015625;17.26907113617149;11.815220525689426;16.104226240876102;-0.916015625;0.10791015625;0.07470703125;14.9375;-6.0625;16.4375;
1441975710952688;0.4324951171875;-0.5267333984375;-0.52630615234375;-0.508544921875;17.225162856605095;11.908447066102164;16.18881361806208;-0.91845703125;0.12646484375;0.08642578125;12.875;-2.9375;19.375;
1441975710969689;0.42974853515625;-0.52886962890625;-0.52850341796875;-0.50634765625;17.17859253294613;12.002906695177986;16.281804736882307;-0.91796875;0.142578125;0.09375;9.4375;-0.5625;22.0625;
1441975710993690;0.427734375;-0.53057861328125;-0.53155517578125;-0.50299072265625;17.128732142115773;12.100784292445516;16.387324675104146;-0.90234375;0.14013671875;0.09326171875;2.375;1.0;24.8125;
1441975711012691;0.42657470703125;-0.53179931640625;-0.535400390625;-0.49871826171875;17.07743369162081;12.193927472018657;16.496905577447667;-0.89013671875;0.14306640625;0.09228515625;-6.4375;3.5;27.5;
1441975711028692;0.4259033203125;-0.532470703125;-0.5396728515625;-0.49383544921875;17.02528131885536;12.27517127350368;16.60053776384122;-0.888671875;0.1376953125;0.08935546875;-14.9375;5.3125;30.0;
1441975711051694;0.42529296875;-0.5330810546875;-0.54388427734375;-0.48907470703125;16.973703338194557;12.344131644388836;16.69173475860945;-0.896484375;0.11181640625;0.0908203125;-20.625;6.0625;32.6875;
1441975711073695;0.4239501953125;-0.5341796875;-0.5478515625;-0.48468017578125;16.91735685732694;12.406563060474916;16.771144326485626;-0.92822265625;0.07470703125;0.0859375;-20.25;5.5;35.5;
1441975711088696;0.42181396484375;-0.535888671875;-0.5513916015625;-0.48052978515625;16.856375119666644;12.468881678040603;16.844459826423964;-0.9580078125;0.068359375;0.09716796875;-14.75;4.6875;38.625;
1441975711111697;0.4193115234375;-0.53802490234375;-0.55462646484375;-0.4765625;16.79354041175392;12.529972616948848;16.912864958078703;-0.9853515625;0.08251953125;0.0927734375;-8.6875;3.625;40.5625;
1441975711133698;0.4166259765625;-0.5401611328125;-0.55780029296875;-0.47283935546875;16.730123699841215;12.58034945481755;16.9691573086901;-1.025390625;0.1025390625;0.0859375;-5.375;3.25;41.5;
1441975711149699;0.41363525390625;-0.54229736328125;-0.56103515625;-0.46917724609375;16.66378018192717;12.622302704673093;17.016143086463977;-1.0458984375;0.1025390625;0.0947265625;-3.875;2.5;42.25;
1441975711171700;0.41046142578125;-0.5445556640625;-0.5640869140625;-0.4656982421875;16.59734101904909;12.660123523042447;17.057062494109942;-1.0205078125;0.10888671875;0.111328125;-2.5625;2.3125;42.9375;
1441975711193702;0.4072265625;-0.54693603515625;-0.56695556640625;-0.46221923828125;16.53099028126195;12.697536398552428;17.096514458164393;-0.9921875;0.11767578125;0.12939453125;-0.4375;3.4375;42.875;
1441975711208703;0.40435791015625;-0.54925537109375;-0.5697021484375;-0.45855712890625;16.46736348221577;12.736114987857285;17.138546377920626;-0.95849609375;0.13818359375;0.140625;0.875;4.9375;41.5;
1441975711231704;0.40234375;-0.55096435546875;-0.57275390625;-0.45452880859375;16.408380793393558;12.769243238072587;17.181320099545037;-0.94580078125;0.1650390625;0.130859375;-0.5625;6.125;39.25;
1441975711253705;0.40118408203125;-0.5517578125;-0.576171875;-0.45025634765625;16.355266983517794;12.791477885554192;17.2201047816356;-0.92431640625;0.1787109375;0.1220703125;-6.6875;7.1875;36.5625;
1441975711268706;0.40087890625;-0.5518798828125;-0.57952880859375;-0.446044921875;16.311444407268016;12.807523299558945;17.256792237955054;-0.916015625;0.19140625;0.12353515625;-13.5625;7.875;33.125;
1441975711291707;0.40118408203125;-0.551513671875;-0.58233642578125;-0.4425048828125;16.280473608149116;12.817083537979542;17.286667545688857;-0.91796875;0.1953125;0.1142578125;-17.6875;7.9375;28.6875;
1441975711313709;0.40185546875;-0.5506591796875;-0.5848388671875;-0.439697265625;16.259387492167757;12.816946541694936;17.30633360381182;-0.94091796875;0.1875;0.099609375;-18.1875;6.9375;23.625;
1441975711328709;0.40252685546875;-0.54986572265625;-0.586669921875;-0.4376220703125;16.245798270623997;12.815734452647554;17.320688078988077;-0.947265625;0.1806640625;0.09912109375;-17.5;5.0625;18.875;
1441975711351711;0.403564453125;-0.549072265625;-0.587646484375;-0.4364013671875;16.244438644414547;12.815160350518731;17.331790339248982;-0.9345703125;0.189453125;0.09130859375;-14.125;4.25;13.875;
1441975711373712;0.4049072265625;-0.5479736328125;-0.58795166015625;-0.43609619140625;16.25506504987878;12.808935226518798;17.33440771152063;-0.95068359375;0.2041015625;0.0830078125;-10.5625;3.75;7.5;
1441975711388713;0.4063720703125;-0.546630859375;-0.5877685546875;-0.4366455078125;16.274651402341856;12.795736043319467;17.32721498071328;-0.96826171875;0.19677734375;0.07275390625;-8.1875;2.0625;1.8125;
1441975711410714;0.4078369140625;-0.545166015625;-0.58709716796875;-0.43798828125;16.301495553895233;12.776676941637506;17.31079695376008;-0.95849609375;0.17626953125;0.0732421875;-5.9375;0.0625;-2.8125;
1441975711441716;0.40924072265625;-0.54388427734375;-0.5859375;-0.4398193359375;16.332562498816216;12.758178992680147;17.291401760635303;-0.927734375;0.1669921875;0.08642578125;-2.4375;-0.3125;-6.9375;
1441975711448716;0.41107177734375;-0.5423583984375;-0.58447265625;-0.44189453125;16.37070085340906;12.738004447324597;17.27068195844365;-0.9287109375;0.1806640625;0.08203125;0.875;-0.4375;-10.6875;
1441975711471718;0.41339111328125;-0.540283203125;-0.583251953125;-0.44390869140625;16.41249713588958;12.71046373341646;17.246478354365873;-0.93359375;0.18994140625;0.076171875;-0.0625;-0.4375;-14.875;
1441975711493719;0.41632080078125;-0.5377197265625;-0.58197021484375;-0.446044921875;16.46139382415396;12.677070106945033;17.219061088591165;-0.94140625;0.2021484375;0.07861328125;-3.8125;-0.4375;-18.375;
1441975711510720;0.41961669921875;-0.534912109375;-0.5802001953125;-0.4486083984375;16.518749890922816;12.639225763342472;17.186302633235194;-0.9521484375;0.19775390625;0.07861328125;-6.5625;-0.1875;-21.8125;
1441975711531721;0.42291259765625;-0.53216552734375;-0.5780029296875;-0.4515380859375;16.58004083239272;12.59859288118048;17.14828227947122;-0.9765625;0.1630859375;0.07177734375;-6.0;-0.25;-24.375;
1441975711553722;0.42596435546875;-0.5296630859375;-0.57568359375;-0.45458984375;16.63972273865829;12.556427946605226;17.106613518602597;-0.9814453125;0.14404296875;0.06494140625;-3.6875;-0.625;-25.6875;
1441975711570723;0.42901611328125;-0.52716064453125;-0.57330322265625;-0.4576416015625;16.69948942757213;12.511009405400172;17.061516094562013;-0.984375;0.14306640625;0.06103515625;-1.5625;-0.9375;-26.0;
1441975711591724;0.43182373046875;-0.524658203125;-0.57098388671875;-0.46075439453125;16.75679608032796;12.458190751222286;17.008317782793938;-0.98876953125;0.12890625;0.05712890625;-1.4375;-1.625;-25.625;
1441975711614726;0.4342041015625;-0.52239990234375;-0.5687255859375;-0.4639892578125;16.809634132472286;12.399730433304708;16.94736887851138;-0.9931640625;0.10400390625;0.056640625;-0.8125;-2.5625;-24.25;
1441975711630727;0.43585205078125;-0.52069091796875;-0.56634521484375;-0.46710205078125;16.855051904968086;12.345573917141424;16.88704603043532;-0.9873046875;0.091796875;0.0634765625;1.5625;-3.25;-22.4375;
1441975711666729;0.43707275390625;-0.5194091796875;-0.564208984375;-0.469970703125;16.892979264334155;12.295330982938486;16.82958682803917;-0.98193359375;0.10009765625;0.06787109375;5.0625;-3.3125;-20.1875;
1441975711673729;0.4381103515625;-0.51837158203125;-0.5623779296875;-0.472412109375;16.924892848358677;12.25086600238498;16.778789241672733;-0.98388671875;0.12109375;0.072265625;6.375;-3.0625;-18.0625;
1441975711690730;0.4390869140625;-0.51739501953125;-0.560791015625;-0.47442626953125;16.952767843791417;12.210714012348708;16.73389065382029;-0.98046875;0.13720703125;0.06884765625;5.5625;-2.75;-16.375;
1441975711711731;0.44012451171875;-0.5164794921875;-0.5594482421875;-0.47607421875;16.97790151690683;12.175259926466362;16.695447393540174;-0.98193359375;0.140625;0.0673828125;3.6875;-2.375;-14.6875;
1441975711733733;0.4410400390625;-0.5157470703125;-0.5582275390625;-0.47747802734375;16.999886460813634;12.145567018147199;16.662942618646305;-0.97900390625;0.1396484375;0.06201171875;2.5;-1.9375;-13.0625;
1441975711750734;0.44189453125;-0.51507568359375;-0.5572509765625;-0.478515625;17.018302188355083;12.12126691374818;16.63723647616705;-0.97119140625;0.14111328125;0.06396484375;1.9375;-1.0625;-11.5625;
1441975711772735;0.442626953125;-0.51446533203125;-0.55657958984375;-0.47930908203125;17.032620141158006;12.099484115281323;16.61510078679387;-0.96142578125;0.14306640625;0.06396484375;1.125;-0.625;-9.875;
1441975711793736;0.4432373046875;-0.5140380859375;-0.555908203125;-0.47991943359375;17.045024137791355;12.08490302761953;16.599816916027173;-0.95849609375;0.14306640625;0.072265625;-0.0625;-0.1875;-8.125;
1441975711818737;0.4437255859375;-0.5137939453125;-0.555419921875;-0.48028564453125;17.054054273125693;12.077681170177156;16.59224325322221;-0.96337890625;0.138671875;0.06884765625;0.125;-0.125;-6.4375;
1441975711831738;0.4439697265625;-0.5137939453125;-0.55499267578125;-0.4805908203125;17.060011910833254;12.075926420847871;16.58908412901243;-0.96142578125;0.14013671875;0.0615234375;0.4375;0.0625;-4.75;
1441975711853739;0.444091796875;-0.51397705078125;-0.5545654296875;-0.48077392578125;17.064288930339497;12.080800274567812;16.592027847119;-0.9716796875;0.13671875;0.05908203125;1.0625;-0.125;-2.5;
1441975711870740;0.44366455078125;-0.5142822265625;-0.55438232421875;-0.4810791015625;17.06239970655921;12.080812948613962;16.58853190995314;-0.9794921875;0.1162109375;0.05322265625;1.875;-0.5;0.0;
1441975711891742;0.44268798828125;-0.51519775390625;-0.55413818359375;-0.48126220703125;17.054969047396607;12.096223891666932;16.59727654239022;-0.96875;0.1103515625;0.07373046875;3.5625;-1.0;2.6875;
1441975711913743;0.4415283203125;-0.51641845703125;-0.55401611328125;-0.481201171875;17.043852853141253;12.1221883073467;16.616222923345163;-0.96533203125;0.11962890625;0.068359375;6.6875;-1.0;5.3125;
1441975711937744;0.4403076171875;-0.51739501953125;-0.554443359375;-0.480712890625;17.027448058145342;12.145670943873984;16.636019585898193;-0.98095703125;0.13427734375;0.06201171875;7.25;-0.9375;7.3125;
1441975711951745;0.4393310546875;-0.51806640625;-0.5552978515625;-0.47991943359375;17.009614181230493;12.165250493771245;16.65559795328684;-0.97509765625;0.14697265625;0.072265625;3.6875;-1.0625;8.875;
1441975711973746;0.4383544921875;-0.51885986328125;-0.55609130859375;-0.47900390625;16.991542497268796;12.19000740802577;16.68017786172069;-0.96630859375;0.13818359375;0.0732421875;0.625;-1.0625;10.3125;
1441975711990747;0.4373779296875;-0.51971435546875;-0.556884765625;-0.47808837890625;16.97326797337996;12.215289599525288;16.705107751024716;-0.96337890625;0.1298828125;0.076171875;0.5625;-0.25;11.4375;
1441975712011748;0.436279296875;-0.5206298828125;-0.5577392578125;-0.47705078125;16.952965584672214;12.242151459955435;16.73161657733494;-0.97705078125;0.13037109375;0.07861328125;1.0;0.0625;12.1875;
1441975712033750;0.4354248046875;-0.52166748046875;-0.55853271484375;-0.4757080078125;16.933683989567122;12.278514538313;16.768680171544734;-0.99267578125;0.1513671875;0.08447265625;0.8125;0.4375;12.3125;
1441975712050751;0.434814453125;-0.5223388671875;-0.5594482421875;-0.47454833984375;16.916844656175076;12.302736114673763;16.79518402843927;-1.017578125;0.1689453125;0.06494140625;-0.1875;1.0625;11.8125;
1441975712071752;0.43402099609375;-0.52276611328125;-0.5604248046875;-0.4736328125;16.899458562722163;12.314868478964858;16.80924745880359;-1.00341796875;0.1494140625;0.068359375;-1.8125;0.1875;11.375;
1441975712093753;0.432861328125;-0.52392578125;-0.5606689453125;-0.47308349609375;16.883710731785754;12.339648152607209;16.829634182390283;-0.9794921875;0.142578125;0.083984375;-1.5;-0.3125;11.375;
1441975712109754;0.431396484375;-0.52557373046875;-0.5604248046875;-0.47296142578125;16.869149539355995;12.368841570026081;16.849514640120525;-1.00439453125;0.16552734375;0.0732421875;4.75;-0.0625;9.75;
1441975712131755;0.4300537109375;-0.52703857421875;-0.5599365234375;-0.47308349609375;16.858527607753985;12.392517750694815;16.863348219850263;-1.013671875;0.18798828125;0.05029296875;9.375;-1.0;8.125;
1441975712155757;0.42852783203125;-0.52813720703125;-0.55963134765625;-0.47357177734375;16.84742299942141;12.399363839339793;16.860349464569317;-0.984375;0.17529296875;0.04052734375;9.625;-2.125;6.75;
1441975712170758;0.42645263671875;-0.5299072265625;-0.55859375;-0.47479248046875;16.83795782063338;12.410322081096053;16.85373115759161;-0.984375;0.16015625;0.06884765625;9.9375;-3.0625;6.25;
1441975712191759;0.42401123046875;-0.5323486328125;-0.55694580078125;-0.47607421875;16.82828086758272;12.436755096369914;16.857656296649846;-1.01025390625;0.17236328125;0.0751953125;17.4375;-3.0625;5.4375;
1441975712220760;0.42205810546875;-0.53411865234375;-0.5560302734375;-0.4769287109375;16.817603086819165;12.453295346005628;16.85836779178487;-1.013671875;0.19482421875;0.056640625;22.125;-2.5;4.625;
1441975712235761;0.42059326171875;-0.53509521484375;-0.5560302734375;-0.4771728515625;16.80431076479988;12.45908412254636;16.85641072447649;-0.97705078125;0.193359375;0.06103515625;15.4375;-2.6875;4.875;
1441975712258763;0.41949462890625;-0.53570556640625;-0.55621337890625;-0.4771728515625;16.792714101054724;12.462390925291762;16.855306836869154;-0.96875;0.19384765625;0.07470703125;8.125;-2.6875;5.9375;
1441975712273763;0.4188232421875;-0.5357666015625;-0.55682373046875;-0.47705078125;16.782562686656515;12.45597342179109;16.84888276108872;-0.978515625;0.1669921875;0.07275390625;4.4375;-2.4375;7.125;
1441975712296765;0.41815185546875;-0.53570556640625;-0.55810546875;-0.4761962890625;16.765377570185745;12.45313282519514;16.850421611171374;-0.92626953125;0.10302734375;0.08349609375;0.25;-2.0625;9.9375;
1441975712318766;0.41748046875;-0.53594970703125;-0.55963134765625;-0.47467041015625;16.74320739553109;12.464299375883805;16.867721847014852;-0.8720703125;0.091796875;0.10400390625;-3.4375;-0.4375;14.0;
1441975712334767;0.4166259765625;-0.53631591796875;-0.56182861328125;-0.47247314453125;16.712092571595548;12.480434337785608;16.892981433777805;-0.8662109375;0.08251953125;0.087890625;-4.75;0.75;18.4375;
1441975712356768;0.4158935546875;-0.53668212890625;-0.56475830078125;-0.46923828125;16.672873645915754;12.5050931571543;16.93221871449296;-0.86962890625;0.10693359375;0.08984375;-7.9375;1.0625;21.9375;
1441975712370769;0.41546630859375;-0.53656005859375;-0.568359375;-0.46527099609375;16.629830285984216;12.52588179987801;16.97392903891164;-0.8515625;0.138671875;0.072265625;-13.25;2.0;24.75;
1441975712393770;0.41510009765625;-0.5364990234375;-0.57232666015625;-0.4608154296875;16.58252266590645;12.549502025422361;17.02095832810609;-0.8232421875;0.146484375;0.080078125;-19.4375;2.75;26.4375;
1441975712416772;0.415283203125;-0.5364990234375;-0.57562255859375;-0.45660400390625;16.544615756592304;12.577496724864185;17.071151289500957;-0.83154296875;0.20361328125;0.0859375;-21.875;4.125;25.4375;
1441975712431773;0.41552734375;-0.53631591796875;-0.57879638671875;-0.4525146484375;16.508817903608268;12.600570592713169;17.11644098225006;-0.85546875;0.20654296875;0.06201171875;-20.6875;5.0;22.3125;
1441975712453774;0.416259765625;-0.53631591796875;-0.581298828125;-0.44866943359375;16.481484102809187;12.63039237986878;17.16672872720904;-0.85986328125;0.24267578125;0.0712890625;-21.0;5.4375;18.9375;
1441975712469775;0.4178466796875;-0.53570556640625;-0.58319091796875;-0.44537353515625;16.46881934201493;12.653603293270315;17.211294091519456;-0.916015625;0.28515625;0.05908203125;-19.0625;7.0625;13.4375;
1441975712492776;0.4205322265625;-0.5338134765625;-0.58502197265625;-0.44268798828125;16.471799429843834;12.657309513486867;17.241286966471495;-0.96728515625;0.28515625;0.0322265625;-20.9375;6.4375;7.4375;
1441975712513777;0.423583984375;-0.53167724609375;-0.5863037109375;-0.44073486328125;16.485228767183155;12.655866115759903;17.264171486843072;-0.9775390625;0.2431640625;0.04638671875;-25.75;5.6875;1.75;
1441975712536779;0.4268798828125;-0.529541015625;-0.5867919921875;-0.439453125;16.508642256720123;12.65521116197754;17.284300602290134;-0.95556640625;0.22802734375;0.05517578125;-23.75;6.5625;-3.5625;
1441975712552779;0.430419921875;-0.527587890625;-0.58636474609375;-0.43896484375;16.54277536829979;12.657932029730866;17.303013882101855;-0.98291015625;0.23779296875;0.06298828125;-20.1875;7.5625;-8.75;
1441975712573781;0.43426513671875;-0.52508544921875;-0.58575439453125;-0.43896484375;16.584489356782996;12.65010439385087;17.31168897533617;-1.04736328125;0.23486328125;0.05224609375;-15.875;7.5625;-13.125;
1441975712595782;0.43817138671875;-0.5220947265625;-0.58526611328125;-0.43927001953125;16.6289391191861;12.629564705361641;17.30869328155767;-1.04736328125;0.19677734375;0.044921875;-16.4375;5.9375;-15.625;
1441975712612783;0.44189453125;-0.51934814453125;-0.58453369140625;-0.43975830078125;16.673547797957077;12.610936177765167;17.305129543426386;-1.01123046875;0.146484375;0.06982421875;-17.25;5.5625;-15.375;
1441975712633784;0.44525146484375;-0.51708984375;-0.58355712890625;-0.44024658203125;16.71527515289486;12.5997915111635;17.305883578123307;-1.0;0.12548828125;0.076171875;-14.625;6.1875;-14.75;
1441975712649785;0.4483642578125;-0.5150146484375;-0.58282470703125;-0.4405517578125;16.752136202694103;12.589872061918701;17.307853742886966;-1.01025390625;0.11767578125;0.06298828125;-11.625;6.0625;-13.0625;
1441975712672786;0.45098876953125;-0.51312255859375;-0.58258056640625;-0.44049072265625;16.779863973656955;12.5796156312349;17.310025995146365;-0.99560546875;0.10205078125;0.05908203125;-11.5;5.375;-10.0;
1441975712693787;0.4530029296875;-0.51153564453125;-0.58270263671875;-0.4400634765625;16.797902951377438;12.571696570882768;17.314038388381675;-0.9833984375;0.10302734375;0.06396484375;-12.0;4.625;-6.3125;
1441975712716789;0.45452880859375;-0.510498046875;-0.5828857421875;-0.439453125;16.80916235477487;12.572218235308771;17.324212661724232;-0.9814453125;0.12060546875;0.07470703125;-11.375;4.1875;-3.0625;
1441975712732790;0.45574951171875;-0.50982666015625;-0.58306884765625;-0.438720703125;16.816306098167786;12.579099152425163;17.33917178889474;-0.98486328125;0.14306640625;0.0654296875;-9.3125;3.9375;-1.0;
1441975712754791;0.45660400390625;-0.50933837890625;-0.583251953125;-0.43817138671875;16.820842590107297;12.583620533638657;17.349663357871826;-0.98291015625;0.16064453125;0.05810546875;-7.5;3.375;-0.1875;
1441975712769792;0.45721435546875;-0.50897216796875;-0.5833740234375;-0.43768310546875;16.823760214725656;12.588162509501872;17.35878697997388;-0.9794921875;0.17138671875;0.06298828125;-5.875;2.5625;0.3125;
1441975712792793;0.45770263671875;-0.5087890625;-0.5833740234375;-0.43743896484375;16.827003468416557;12.592665201267764;17.365914978763243;-0.96533203125;0.17724609375;0.06201171875;-4.25;2.1875;-0.0625;
1441975712813794;0.45819091796875;-0.5086669921875;-0.583251953125;-0.43731689453125;16.831367417917182;12.597791611741533;17.372780197338198;-0.9599609375;0.185546875;0.05908203125;-2.375;1.875;-0.875;
1441975712829795;0.45867919921875;-0.5084228515625;-0.5830078125;-0.4373779296875;16.837761450523924;12.599139574013995;17.37534855568023;-0.95556640625;0.1962890625;0.05615234375;-1.75;1.5;-2.25;
1441975712852797;0.45928955078125;-0.508056640625;-0.5826416015625;-0.4376220703125;16.84711826966462;12.597705347145428;17.374950587988437;-0.9599609375;0.19189453125;0.0537109375;-1.4375;1.125;-3.375;
1441975712873798;0.459716796875;-0.50775146484375;-0.58221435546875;-0.4381103515625;16.85637026441991;12.592587030841344;17.36928022548157;-0.95556640625;0.18408203125;0.0576171875;-1.0;0.8125;-4.3125;
1441975712889799;0.46014404296875;-0.5074462890625;-0.5816650390625;-0.43865966796875;16.866677544424338;12.58778389584534;17.363407081334923;-0.94775390625;0.1875;0.06201171875;0.375;0.5625;-5.125;
1441975712912800;0.46075439453125;-0.507080078125;-0.5811767578125;-0.439208984375;16.87819153275767;12.582596615956495;17.358002078252493;-0.95556640625;0.18408203125;0.056640625;0.8125;0.3125;-5.5;
1441975712933801;0.46124267578125;-0.50665283203125;-0.58074951171875;-0.43975830078125;16.88858533723638;12.57430428851511;17.349508961766062;-0.95703125;0.17578125;0.048828125;-0.0625;0.0625;-5.5625;
1441975712949802;0.461669921875;-0.50628662109375;-0.5802001953125;-0.4404296875;16.899629199590198;12.56587985177422;17.33983105338762;-0.96240234375;0.17724609375;0.05712890625;0.0625;-0.1875;-5.375;
1441975712972803;0.4619140625;-0.506103515625;-0.57958984375;-0.44122314453125;16.90958128437726;12.557948753813506;17.329059379903743;-0.9638671875;0.1708984375;0.05859375;1.125;-0.25;-5.1875;
1441975712993805;0.4620361328125;-0.50592041015625;-0.57904052734375;-0.44195556640625;16.917923609733023;12.549100350257717;17.317387405633443;-0.974609375;0.16162109375;0.05810546875;2.5;-0.4375;-4.5;
1441975713009806;0.4620361328125;-0.5059814453125;-0.57855224609375;-0.44256591796875;16.923572864113254;12.545428460377545;17.310357732835755;-0.95654296875;0.15380859375;0.060546875;2.75;-0.625;-3.5;
1441975713032807;0.46185302734375;-0.50628662109375;-0.578125;-0.4429931640625;16.925805815726925;12.547571679315793;17.3086253245027;-0.9501953125;0.16064453125;0.06396484375;3.5;-0.1875;-2.375;
1441975713053808;0.46173095703125;-0.50653076171875;-0.5780029296875;-0.44293212890625;16.924583470974618;12.553975670585809;17.313809238558463;-0.9599609375;0.17626953125;0.05810546875;3.75;0.125;-1.375;
1441975713069809;0.46197509765625;-0.50628662109375;-0.5782470703125;-0.442626953125;16.924339765712585;12.55363768540546;17.316461735307087;-0.95556640625;0.1953125;0.05810546875;0.875;0.5;-1.125;
1441975713092810;0.46246337890625;-0.50592041015625;-0.57855224609375;-0.44219970703125;16.925437722727928;12.55441749819123;17.321802773120396;-0.95849609375;0.1953125;0.0595703125;-2.9375;0.5625;-1.3125;
1441975713113812;0.4630126953125;-0.505615234375;-0.57867431640625;-0.44183349609375;16.92825390614765;12.558107296885257;17.32935180526079;-0.9462890625;0.18408203125;0.0615234375;-4.5625;1.375;-1.1875;
1441975713129812;0.4635009765625;-0.5054931640625;-0.57879638671875;-0.4412841796875;16.929167300128707;12.568221837630746;17.343158353328512;-0.94091796875;0.17578125;0.06103515625;-3.6875;1.9375;-1.25;
1441975713152814;0.46405029296875;-0.50531005859375;-0.57904052734375;-0.4405517578125;16.929129026079757;12.579398697715648;17.35926360260758;-0.9365234375;0.1865234375;0.0517578125;-3.625;2.375;-1.0625;
1441975713173815;0.46478271484375;-0.5050048828125;-0.5794677734375;-0.4395751953125;16.928599278240448;12.591823865550012;17.378722120656654;-0.9365234375;0.18603515625;0.05712890625;-4.8125;2.8125;-0.375;
1441975713189816;0.465576171875;-0.50457763671875;-0.58001708984375;-0.43853759765625;16.927868105392736;12.601898632697884;17.396882525570618;-0.947265625;0.1875;0.05419921875;-6.875;3.0625;0.125;
