1441975989528622;0.21868896484375;-0.798583984375;-0.50653076171875;-0.24072265625;12.729868693385022;14.89002161786368;0.3807237926616817;-0.55126953125;0.69873046875;-0.369140625;2.5;-3.1875;0.0;
1441975989543622;0.218017578125;-0.79876708984375;-0.50640869140625;-0.24102783203125;12.72863420854293;14.889641566439726;0.37613849074791406;-0.55029296875;0.67724609375;-0.37109375;1.3125;-3.375;0.1875;
1441975989565624;0.21722412109375;-0.799072265625;-0.50616455078125;-0.24127197265625;12.725897241886733;14.890178921588094;0.3714064036194953;-0.548828125;0.6728515625;-0.3623046875;2.125;-4.0625;0.8125;
1441975989588625;0.21636962890625;-0.79949951171875;-0.50567626953125;-0.2415771484375;12.72329580929225;14.892390871446208;0.36674181117606275;-0.5498046875;0.67529296875;-0.36328125;3.25;-3.9375;1.375;
1441975989603626;0.21563720703125;-0.7998046875;-0.50537109375;-0.24188232421875;12.721546130129441;14.89337707860506;0.3622988522872579;-0.56494140625;0.68359375;-0.3740234375;4.0625;-3.75;1.6875;
1441975989625627;0.21490478515625;-0.79998779296875;-0.50518798828125;-0.2421875;12.720064107817818;14.89323070227598;0.35749063656117747;-0.568359375;0.6884765625;-0.37646484375;3.125;-3.875;1.1875;
1441975989648628;0.21429443359375;-0.8001708984375;-0.50506591796875;-0.24249267578125;12.719161080494143;14.892991537483997;0.35327051577393226;-0.5703125;0.69189453125;-0.37890625;2.375;-4.1875;1.1875;
1441975989663629;0.21380615234375;-0.80029296875;-0.50494384765625;-0.24273681640625;12.718554985247794;14.892862068284154;0.3499279480097755;-0.55908203125;0.6865234375;-0.36767578125;1.75;-3.8125;0.6875;
1441975989694631;0.21337890625;-0.80029296875;-0.5048828125;-0.2431640625;12.720341694266093;14.891939587509448;0.34609043395522526;-0.556640625;0.6767578125;-0.380859375;1.0625;-3.75;0.0;
1441975989708632;0.21295166015625;-0.80035400390625;-0.50482177734375;-0.24365234375;12.722488739457633;14.891171743123003;0.3420951214098782;-0.55859375;0.66796875;-0.36767578125;0.5;-4.25;-0.125;
1441975989731633;0.21240234375;-0.8006591796875;-0.50439453125;-0.243896484375;12.721324407992311;14.893331759249497;0.33920809779027045;-0.55419921875;0.66357421875;-0.3583984375;1.25;-4.3125;-0.25;
1441975989745634;0.2117919921875;-0.80096435546875;-0.50421142578125;-0.2437744140625;12.716065325251394;14.894226724988645;0.3366747822921662;-0.54931640625;0.66455078125;-0.36181640625;3.375;-2.625;0.6875;
1441975989768635;0.211181640625;-0.8013916015625;-0.50396728515625;-0.24359130859375;12.709894541403811;14.895948825178602;0.3345831026309649;-0.5439453125;0.67041015625;-0.3623046875;2.0;-1.6875;1.6875;
1441975989791637;0.21044921875;-0.8018798828125;-0.503662109375;-0.2431640625;12.700641483638087;14.898179198180465;0.33278133433537016;-0.544921875;0.65869140625;-0.36083984375;2.4375;-1.25;2.4375;
1441975989805637;0.2099609375;-0.80224609375;-0.5035400390625;-0.2425537109375;12.691163571225704;14.899595521636193;0.3325392997127029;-0.5234375;0.6728515625;-0.35546875;3.4375;-0.3125;2.25;
1441975989828639;0.2099609375;-0.802490234375;-0.5032958984375;-0.24224853515625;12.687777237223838;14.90210949803226;0.3342960062020748;-0.5087890625;0.66748046875;-0.34814453125;1.875;0.875;1.25;
1441975989851640;0.21014404296875;-0.8026123046875;-0.5028076171875;-0.24267578125;12.693013229553578;14.90543651314088;0.3350791630013017;-0.51611328125;0.64599609375;-0.3427734375;1.5;1.0625;-0.8125;
1441975989865641;0.21075439453125;-0.80230712890625;-0.50274658203125;-0.24346923828125;12.704905897557197;14.905423429305502;0.33587471882097575;-0.52099609375;0.625;-0.34326171875;2.25;-1.0625;-3.3125;
1441975989888642;0.21209716796875;-0.80126953125;-0.50274658203125;-0.24560546875;12.73582943759006;14.903038360520101;0.3357044707144272;-0.49755859375;0.63671875;-0.34814453125;-0.875;-4.0;-7.8125;
1441975989911643;0.2137451171875;-0.8001708984375;-0.501953125;-0.249267578125;12.784022680622792;14.904507886725844;0.33383661792725855;-0.5166015625;0.55810546875;-0.3076171875;-2.8125;-7.1875;-12.0;
1441975989926644;0.215576171875;-0.799072265625;-0.500244140625;-0.254638671875;12.850510576106158;14.910336676354957;0.3292917056053491;-0.52294921875;0.5146484375;-0.30859375;0.9375;-12.0625;-17.25;
1441975989948646;0.217529296875;-0.79779052734375;-0.49774169921875;-0.2618408203125;12.936616511672542;14.91889211138971;0.3209007951844519;-0.55029296875;0.48193359375;-0.2861328125;7.25;-17.25;-22.0625;
1441975989972647;0.21954345703125;-0.7962646484375;-0.4945068359375;-0.2706298828125;13.039912363094551;14.929601738058091;0.30895886019990654;-0.5625;0.4423828125;-0.2724609375;12.3125;-23.6875;-27.9375;
1441975989986648;0.22216796875;-0.7943115234375;-0.490966796875;-0.2806396484375;13.159958501186038;14.940834401871804;0.29690894967595044;-0.55078125;0.4208984375;-0.240234375;17.75;-29.625;-34.1875;
1441975990008649;0.2252197265625;-0.7921142578125;-0.48675537109375;-0.29150390625;13.292278005304237;14.95548035292017;0.28611195488370345;-0.5537109375;0.365234375;-0.20849609375;18.9375;-32.5;-39.8125;
1441975990031650;0.22869873046875;-0.78936767578125;-0.48211669921875;-0.3037109375;13.442229107804227;14.97043934187795;0.273984205776552;-0.56591796875;0.33203125;-0.1884765625;21.625;-34.0625;-44.75;
1441975990045651;0.232177734375;-0.78643798828125;-0.47662353515625;-0.3170166015625;13.604678803741393;14.988885584412376;0.26034146668877306;-0.57177734375;0.279296875;-0.15087890625;23.5;-37.75;-49.8125;
1441975990068652;0.235595703125;-0.7833251953125;-0.47064208984375;-0.3309326171875;13.774218351830777;15.008899318204334;0.24562934904662495;-0.58203125;0.2451171875;-0.1318359375;28.625;-41.25;-53.8125;
1441975990090654;0.23956298828125;-0.77947998046875;-0.46466064453125;-0.34527587890625;13.953678935525998;15.027296608973824;0.23241604362022805;-0.5810546875;0.24853515625;-0.123046875;31.3125;-43.75;-57.625;
1441975990105655;0.2440185546875;-0.7747802734375;-0.45849609375;-0.360595703125;14.148704449681833;15.043815391549519;0.21853322146863022;-0.5859375;0.22607421875;-0.123046875;28.9375;-46.0;-62.3125;
1441975990128656;0.24884033203125;-0.769287109375;-0.452392578125;-0.37646484375;14.35406318375348;15.05699678022858;0.20377902455330732;-0.6337890625;0.185546875;-0.10546875;27.25;-49.4375;-65.6875;
1441975990151657;0.25445556640625;-0.762939453125;-0.44580078125;-0.39312744140625;14.57556719921794;15.071907604281616;0.19233310888345825;-0.685546875;0.17578125;-0.1015625;24.9375;-51.375;-69.0;
1441975990165658;0.2596435546875;-0.7564697265625;-0.43768310546875;-0.41094970703125;14.80959201114216;15.094400247192738;0.17948523719534815;-0.7568359375;0.115234375;-0.1103515625;23.0625;-54.3125;-72.4375;
1441975990188659;0.26409912109375;-0.749755859375;-0.42852783203125;-0.42950439453125;15.050529542024542;15.119748172367284;0.16249104485351426;-0.8251953125;0.1015625;-0.1171875;31.4375;-58.3125;-76.0;
1441975990211661;0.26849365234375;-0.7420654296875;-0.41925048828125;-0.448974609375;15.30472880007588;15.138830995873255;0.1391804236032498;-0.91552734375;0.15869140625;-0.1396484375;38.5625;-63.0;-80.5625;
1441975990225661;0.2734375;-0.73284912109375;-0.409912109375;-0.4693603515625;15.577800665512418;15.150180198525893;0.11161970695051267;-1.0126953125;0.1904296875;-0.14892578125;38.875;-69.625;-85.8125;
1441975990249663;0.27874755859375;-0.72210693359375;-0.4000244140625;-0.4908447265625;15.871963030756477;15.154769049177627;0.07792188366615006;-1.1328125;0.15673828125;-0.15673828125;34.875;-76.5;-90.8125;
1441975990271664;0.28192138671875;-0.71185302734375;-0.38970947265625;-0.5118408203125;16.151024954403283;15.145951126121759;0.021992656178344616;-1.212890625;0.095703125;-0.12353515625;34.25;-82.5;-96.4375;
1441975990285665;0.2833251953125;-0.70147705078125;-0.377197265625;-0.5343017578125;16.44173825441591;15.128025698524699;17.940471340048866;-1.2529296875;0.0166015625;-0.09033203125;43.25;-89.8125;-101.4375;
1441975990308666;0.282958984375;-0.69061279296875;-0.363037109375;-0.557861328125;16.74126633697512;15.077125703372632;17.812959054262276;-1.26513671875;-0.01513671875;-0.08349609375;59.5625;-97.0625;-103.8125;
1441975990331667;0.28289794921875;-0.6781005859375;-0.3492431640625;-0.58160400390625;17.05007967895714;14.942083278792905;17.606910620653828;-1.28466796875;0.05908203125;-0.09375;72.6875;-104.6875;-107.6875;
1441975990345668;0.28411865234375;-0.663330078125;-0.33648681640625;-0.6051025390625;17.36515247085305;14.598080326313042;17.205189935304663;-1.3291015625;0.103515625;-0.08544921875;67.1875;-111.5;-112.0;
1441975990368670;0.2864990234375;-0.64678955078125;-0.32421875;-0.628173828125;17.65914070794482;13.533640433889872;16.093120224482178;-1.42919921875;0.0537109375;-0.05517578125;53.625;-117.375;-116.5625;
1441975990390671;0.29010009765625;-0.628173828125;-0.31182861328125;-0.6512451171875;17.743194372036612;9.904380348601384;12.423939830269592;-1.49267578125;0.02392578125;-0.0166015625;44.25;-120.8125;-121.9375;
1441975990414672;0.2933349609375;-0.60784912109375;-0.29815673828125;-0.67498779296875;17.454387025969762;7.96771489385699;10.443067694146706;-1.4990234375;-0.041015625;-0.0048828125;36.3125;-126.6875;-130.375;
1441975990428673;0.2957763671875;-0.58624267578125;-0.28350830078125;-0.69891357421875;17.080672944680295;7.4761196912370815;9.902468570511644;-1.51806640625;-0.119140625;0.0068359375;40.25;-135.25;-137.875;
1441975990450674;0.29827880859375;-0.56317138671875;-0.26873779296875;-0.72235107421875;16.685380495935295;7.284262094753208;9.664387609489856;-1.53662109375;-0.07958984375;9.765625E-4;45.0625;-141.875;-143.1875;
1441975990465675;0.30084228515625;-0.5389404296875;-0.25396728515625;-0.7447509765625;16.28332744022025;7.189768346702756;9.527161439780848;-1.5400390625;-0.09326171875;0.00341796875;42.0;-147.0625;-146.875;
1441975990488676;0.30328369140625;-0.51348876953125;-0.23876953125;-0.76641845703125;15.872799051014457;7.136884032395795;9.432197291585487;-1.53857421875;-0.07861328125;0.0;38.25;-149.75;-148.8125;
1441975990510678;0.30487060546875;-0.48736572265625;-0.2230224609375;-0.78729248046875;15.460178796575473;7.111968263686754;9.361631972329265;-1.5;-0.0908203125;0.0263671875;37.125;-153.1875;-152.3125;
1441975990528679;0.3052978515625;-0.46112060546875;-0.20703125;-0.80706787109375;15.053680766800937;7.107239550548982;9.307036409675458;-1.45556640625;-0.09130859375;0.04443359375;40.125;-154.625;-153.0625;
1441975990548680;0.3050537109375;-0.43548583984375;-0.1910400390625;-0.82513427734375;14.663489618660394;7.1104489368251755;9.258569084762017;-1.36083984375;-0.0712890625;0.05224609375;43.8125;-153.1875;-150.625;
1441975990570681;0.30487060546875;-0.410400390625;-0.17535400390625;-0.8414306640625;14.288865865726441;7.114387585620136;9.213157587560671;-1.23876953125;-0.02001953125;0.0283203125;44.625;-147.75;-146.75;
1441975990585682;0.30364990234375;-0.38677978515625;-0.16009521484375;-0.85595703125;13.940143259975487;7.126180963683103;9.172559269170732;-1.12890625;-0.0224609375;0.02685546875;41.0625;-141.0;-142.375;
1441975990608683;0.30218505859375;-0.36456298828125;-0.145263671875;-0.8687744140625;13.615135334254193;7.138610914025453;9.132663113826125;-1.0791015625;0.0185546875;-0.005859375;43.1875;-132.125;-134.5625;
1441975990630685;0.30029296875;-0.3438720703125;-0.131591796875;-0.87994384765625;13.317115703264541;7.154666443967421;9.098460666992953;-1.001953125;0.03662109375;-0.0185546875;41.875;-122.9375;-127.75;
1441975990647686;0.299072265625;-0.32568359375;-0.1195068359375;-0.88897705078125;13.05780533549683;7.165231335172358;9.066656154902425;-0.9072265625;0.080078125;-0.0654296875;39.5;-114.1875;-117.1875;
1441975990668687;0.2982177734375;-0.31585693359375;-0.11041259765625;-0.89398193359375;12.908963888787468;7.167039560539804;9.033310263392773;-0.75927734375;0.13720703125;-0.11181640625;31.3125;-98.875;-104.25;
1441975990707689;0.29815673828125;-0.30975341796875;-0.1031494140625;-0.89697265625;12.810923421912992;7.16172223786713;9.00121699050084;-0.61669921875;0.1572265625;-0.158203125;21.0;-77.625;-91.5;
1441975990710689;0.29705810546875;-0.30767822265625;-0.0975341796875;-0.898681640625;12.765641739777829;7.161631969964017;8.972889603601482;-0.5380859375;0.16845703125;-0.1875;13.3125;-55.75;-74.375;
1441975990728690;0.2947998046875;-0.3106689453125;-0.094970703125;-0.898681640625;12.790372434398083;7.168314455853712;8.954713896645691;-0.48876953125;0.2060546875;-0.203125;15.0;-34.375;-56.0625;
1441975990752692;0.29345703125;-0.3194580078125;-0.09619140625;-0.89593505859375;12.896209280442353;7.166695666540855;8.94425257978155;-0.4873046875;0.28564453125;-0.22216796875;12.125;-12.0625;-32.125;
1441975990765692;0.29388427734375;-0.33575439453125;-0.1015625;-0.88922119140625;13.105102383055685;7.147363481555986;8.936475873033325;-0.505859375;0.36669921875;-0.271484375;-2.1875;13.875;-7.1875;
1441975990789694;0.296142578125;-0.3592529296875;-0.111328125;-0.87799072265625;13.41678107598644;7.108076202864752;8.930941331781261;-0.59130859375;0.42919921875;-0.35888671875;-21.1875;46.1875;20.3125;
1441975990819695;0.30108642578125;-0.38116455078125;-0.1219482421875;-0.8656005859375;13.71596588956404;7.048194213478493;8.922431566393469;-0.65966796875;0.51416015625;-0.48388671875;-40.9375;77.0;47.375;
1441975990825696;0.30450439453125;-0.40765380859375;-0.136474609375;-0.85003662109375;14.090342154699673;6.9939890193401;8.926188469295226;-0.78466796875;0.61962890625;-0.654296875;-55.0;105.5625;75.0;
1441975990848697;0.3035888671875;-0.43646240234375;-0.15155029296875;-0.83331298828125;14.502495326858151;6.965888728032623;8.937863247181337;-1.064453125;0.642578125;-0.7626953125;-56.8125;123.5625;105.3125;
1441975990870698;0.29815673828125;-0.47393798828125;-0.16815185546875;-0.81134033203125;15.037352568166337;6.94933098329169;8.943446032273336;-1.3076171875;0.64453125;-0.8369140625;-37.5625;152.25;138.9375;
1441975990893700;0.2940673828125;-0.520263671875;-0.19146728515625;-0.77862548828125;15.732815200325481;6.892248083397492;8.941860714549444;-1.4775390625;0.9169921875;-0.9521484375;-21.1875;200.375;177.125;
1441975990908700;0.287109375;-0.57464599609375;-0.22100830078125;-0.73388671875;16.599522067717444;6.811742275222871;8.933916279478833;-1.76904296875;0.955078125;-0.90625;-55.8125;260.875;230.5;
1441975990930702;0.26708984375;-0.63531494140625;-0.250244140625;-0.6800537109375;17.61257923356271;6.894860155799829;9.041829678118692;-2.18603515625;0.52685546875;-0.76025390625;-72.9375;319.3125;294.375;
1441975990945703;0.238037109375;-0.6981201171875;-0.2762451171875;-0.6162109375;17.267168608103205;15.681131833293485;17.818113802235363;-2.6806640625;0.39013671875;-0.8671875;-23.9375;360.625;358.125;
1441975990968704;0.2086181640625;-0.75701904296875;-0.3028564453125;-0.5401611328125;16.07514091875489;15.749643326087096;17.901561587003414;-2.96728515625;0.80859375;-1.08203125;10.75;397.5625;396.625;
1441975990990705;0.178955078125;-0.806396484375;-0.3297119140625;-0.45721435546875;14.879866509794912;15.736040608174745;17.928767414595445;-3.2998046875;1.16552734375;-1.2822265625;-13.3125;431.375;414.375;
1441975991008706;0.16229248046875;-0.8363037109375;-0.36749267578125;-0.373291015625;13.80345320891794;15.622253813463168;17.987526797925085;-3.63671875;1.5771484375;-1.49755859375;-38.0;431.3125;417.0625;
1441975991028707;0.1622314453125;-0.842041015625;-0.42510986328125;-0.2899169921875;12.876295215000164;15.355815839693076;0.09816928075809123;-3.2470703125;1.92236328125;-1.53466796875;-161.3125;397.75;366.75;
1441975991050709;0.16998291015625;-0.82720947265625;-0.49224853515625;-0.2110595703125;12.109883998640397;14.9929189225829;0.24598397701229707;-3.39501953125;1.78662109375;-1.2412109375;-343.4375;360.0;306.0;
1441975991065709;0.1739501953125;-0.79638671875;-0.56103515625;-0.14453125;11.517156910489465;14.565130471719366;0.3645997989084125;-3.30126953125;1.267578125;-1.03271484375;-448.625;314.0;253.875;
1441975991088711;0.169677734375;-0.762939453125;-0.6175537109375;-0.0887451171875;11.017842108600064;14.182774622086306;0.4575653999793059;-3.3271484375;0.52490234375;-0.8017578125;-484.875;223.125;222.875;
1441975991111712;0.16387939453125;-0.72247314453125;-0.670654296875;-0.03887939453125;10.601925459366665;13.791174209614184;0.5537265031908163;-2.93603515625;0.35595703125;-0.79833984375;-419.25;157.3125;213.1875;
1441975991125713;0.15606689453125;-0.6717529296875;-0.72418212890625;3.662109375E-4;10.303455809352506;13.356356546786703;0.6229944022981965;-2.66748046875;0.3154296875;-0.98388671875;-422.0625;125.75;189.8125;
1441975991148714;0.1453857421875;-0.63372802734375;-0.7593994140625;0.02471923828125;10.092198932462185;13.047216403039174;0.6527758556503577;-2.3251953125;-0.49365234375;-0.8955078125;-453.125;71.1875;148.0;
1441975991170715;0.1358642578125;-0.62115478515625;-0.77093505859375;0.037353515625;9.938546961826114;12.940579903894697;0.6632191538153116;-1.8251953125;-0.91845703125;-0.595703125;-315.9375;17.75;108.25;
1441975991185716;0.1343994140625;-0.6229248046875;-0.7696533203125;0.0399169921875;9.904105855673226;12.95173814057677;0.670011879665713;-1.216796875;-0.69580078125;-0.37841796875;-112.375;-8.0;99.6875;
1441975991208718;0.13189697265625;-0.62591552734375;-0.76763916015625;0.04052734375;9.872853641957297;12.970265520078701;0.6647916120332964;-0.94091796875;-0.09228515625;-0.201171875;-2.125;-11.25;81.875;
1441975991230719;0.1259765625;-0.62786865234375;-0.7669677734375;0.04144287109375;9.81168304857837;12.976619496879595;0.6471978271504248;-0.73828125;-0.083984375;-0.0224609375;18.6875;-17.6875;64.6875;
1441975991255720;0.1192626953125;-0.63299560546875;-0.763671875;0.0439453125;9.72683450409168;13.005979948289212;0.6350541983630313;-0.47998046875;-0.23193359375;0.26025390625;29.1875;-26.0;61.1875;
1441975991268721;0.11419677734375;-0.63507080078125;-0.76263427734375;0.04608154296875;9.664055319166433;13.014986582105529;0.6259624746006182;-0.14697265625;0.0390625;0.2978515625;50.5625;-18.3125;49.25;
1441975991290722;0.11199951171875;-0.62884521484375;-0.76806640625;0.04718017578125;9.647052374702259;12.966021972163677;0.6198168279643366;0.09521484375;0.28369140625;0.24169921875;23.1875;-11.0625;20.625;
1441975991313724;0.11431884765625;-0.61260986328125;-0.78082275390625;0.04522705078125;9.70711299162893;12.849674182402554;0.6128298062518854;0.11279296875;0.505859375;0.16015625;-44.0;-5.0625;-4.3125;
1441975991328725;0.1187744140625;-0.59283447265625;-0.7955322265625;0.04034423828125;9.811349872686844;12.711899484812434;0.5975586072592203;-0.13818359375;0.52880859375;0.16015625;-114.9375;-1.0;-29.9375;
1441975991350726;0.12396240234375;-0.5767822265625;-0.80682373046875;0.0328369140625;9.933101401275202;12.60291854279251;0.5727450368405576;-0.28857421875;0.44287109375;0.20263671875;-134.3125;-2.25;-50.4375;
1441975991367727;0.13031005859375;-0.5665283203125;-0.81341552734375;0.02203369140625;10.077862280345553;12.53657287936285;0.5382378550799437;-0.36572265625;0.390625;0.21875;-104.0;-7.25;-60.625;
1441975991388728;0.135009765625;-0.56304931640625;-0.8153076171875;0.01123046875;10.197475088646083;12.515602952866498;0.501366745697014;-0.39501953125;0.427734375;0.2509765625;-54.0;-14.75;-59.375;
1441975991410729;0.13916015625;-0.56463623046875;-0.8135986328125;0.00115966796875;10.300897022172796;12.529724894360017;0.46965100065179405;-0.365234375;0.4501953125;0.2578125;-7.3125;-18.8125;-51.75;
1441975991433731;0.14324951171875;-0.5653076171875;-0.8123779296875;-0.00872802734375;10.4039021729029;12.537320981098585;0.4380401900240395;-0.3193359375;0.66796875;0.24755859375;21.5625;-15.5;-49.0625;
1441975991448731;0.1478271484375;-0.56097412109375;-0.81439208984375;-0.01861572265625;10.516688992350984;12.509823056090813;0.4035700266947476;-0.2939453125;0.859375;0.24658203125;11.4375;-14.125;-54.6875;
1441975991470733;0.1527099609375;-0.551513671875;-0.81964111328125;-0.0286865234375;10.637616209405998;12.445920303675296;0.3634748921369681;-0.271484375;0.9560546875;0.28076171875;-22.9375;-13.6875;-64.4375;
1441975991493734;0.15802001953125;-0.541015625;-0.82513427734375;-0.03912353515625;10.764356583794777;12.374966721309251;0.32056851868338;-0.25048828125;0.9091796875;0.36669921875;-51.9375;-14.0;-72.625;
1441975991508735;0.16339111328125;-0.53118896484375;-0.82989501953125;-0.0498046875;10.891017342882632;12.308152632405408;0.2757276028491064;-0.2783203125;0.8955078125;0.38671875;-57.25;-13.3125;-75.9375;
1441975991539737;0.168701171875;-0.52398681640625;-0.8326416015625;-0.06085205078125;11.01635213854404;12.25925716216522;0.23053099716525313;-0.31005859375;0.83154296875;0.42333984375;-49.375;-13.125;-75.0;
1441975991553737;0.17401123046875;-0.51947021484375;-0.83355712890625;-0.0712890625;11.135535507456169;12.229065218265344;0.19066273832620215;-0.38720703125;0.75927734375;0.41943359375;-29.875;-13.4375;-69.875;
1441975991568738;0.178955078125;-0.515625;-0.8341064453125;-0.0804443359375;11.242387866880021;12.203288023688023;0.15609997249918403;-0.43212890625;0.77783203125;0.4150390625;-13.375;-10.1875;-64.4375;
1441975991590739;0.18426513671875;-0.51025390625;-0.83538818359375;-0.088623046875;11.347134377371795;12.167599774906117;0.1248837736413614;-0.41259765625;0.84716796875;0.41064453125;-13.1875;-6.5;-60.6875;
1441975991613741;0.19012451171875;-0.50299072265625;-0.837646484375;-0.0963134765625;11.45427900063205;12.11889297595239;0.09420136467084432;-0.44482421875;0.85986328125;0.42431640625;-23.875;-3.6875;-57.875;
1441975991628742;0.19622802734375;-0.4959716796875;-0.839599609375;-0.10333251953125;11.559222875850214;12.07238223185357;0.0671212003546082;-0.47705078125;0.76171875;0.4228515625;-35.0;-2.1875;-55.9375;
1441975991650743;0.20269775390625;-0.48944091796875;-0.8409423828125;-0.11065673828125;11.669260442054428;12.029364587912003;0.039455517324472146;-0.4892578125;0.74267578125;0.40771484375;-34.625;0.5625;-53.125;
1441975991673744;0.20977783203125;-0.48565673828125;-0.8404541015625;-0.11767578125;11.783196370728854;12.00693050372352;0.019299274066795616;-0.4560546875;0.60205078125;0.43310546875;-26.0625;4.4375;-54.125;
1441975991688745;0.21807861328125;-0.4803466796875;-0.84033203125;-0.12493896484375;11.911186246396271;11.974891416103679;17.99844664566516;-0.53564453125;0.70849609375;0.369140625;-15.3125;8.125;-52.9375;
1441975991710746;0.2275390625;-0.475341796875;-0.83953857421875;-0.13238525390625;12.052233339026849;11.946414108043557;17.980156044156374;-0.5732421875;0.5703125;0.35400390625;-21.0;10.5625;-53.625;
1441975991733748;0.23834228515625;-0.46832275390625;-0.83917236328125;-0.140380859375;12.210556742620561;11.904454733141849;17.958181401075144;-0.6025390625;0.61376953125;0.291015625;-23.5;14.25;-59.625;
1441975991748749;0.25018310546875;-0.4625244140625;-0.837646484375;-0.1480712890625;12.378300769407462;11.873215208586544;17.94267765744876;-0.57275390625;0.541015625;0.35595703125;-29.875;20.4375;-68.625;
1441975991770750;0.26446533203125;-0.45281982421875;-0.837158203125;-0.15582275390625;12.572236683443862;11.816580706114014;17.924533304340336;-0.58154296875;0.69287109375;0.25830078125;-31.9375;25.8125;-76.0625;
1441975991793751;0.28057861328125;-0.44244384765625;-0.83575439453125;-0.16461181640625;12.792385190484584;11.756115273246607;17.902405172535413;-0.59814453125;0.5234375;0.236328125;-51.5625;31.4375;-82.5;
1441975991808752;0.2974853515625;-0.43438720703125;-0.8321533203125;-0.1744384765625;13.02850947316881;11.712557396501477;17.880285440880815;-0.64892578125;0.32421875;0.19482421875;-48.8125;35.4375;-85.375;
1441975991838754;0.3148193359375;-0.4344482421875;-0.82342529296875;-0.184814453125;13.276683350855503;11.734556976307877;17.87971411030818;-0.6669921875;0.17578125;0.240234375;-24.8125;44.125;-85.625;
1441975991853755;0.33099365234375;-0.4345703125;-0.8143310546875;-0.19622802734375;13.52017324152124;11.754645780128698;17.870226979200268;-0.73095703125;0.3974609375;0.1318359375;16.0625;56.1875;-89.5;
1441975991868755;0.34808349609375;-0.43218994140625;-0.805419921875;-0.20849609375;13.78026880764336;11.755663478304388;17.85076939502002;-0.7900390625;0.47021484375;0.046875;23.75;59.625;-101.5;
1441975991890757;0.3651123046875;-0.42962646484375;-0.79559326171875;-0.221923828125;14.04950548442019;11.753203266291683;17.82247988066142;-0.8779296875;0.42919921875;0.03564453125;12.3125;58.25;-111.375;
1441975991913758;0.3817138671875;-0.42913818359375;-0.7835693359375;-0.23712158203125;14.328855088035914;11.764936906941472;17.78902694955373;-0.84033203125;0.39794921875;0.11767578125;17.5;58.125;-118.875;
1441975991928759;0.3978271484375;-0.43017578125;-0.7696533203125;-0.2537841796875;14.616521593632125;11.787145697883433;17.750786173739005;-0.7724609375;0.3623046875;0.0830078125;36.625;59.1875;-124.9375;
1441975991952760;0.41326904296875;-0.43157958984375;-0.7542724609375;-0.27215576171875;14.912707758071052;11.806810102240345;17.69886400366265;-0.85546875;0.38037109375;0.060546875;51.9375;59.625;-129.8125;
1441975991973761;0.42852783203125;-0.43231201171875;-0.7379150390625;-0.29144287109375;15.218194662581682;11.81496760243953;17.633088729676917;-0.951171875;0.384765625;0.044921875;61.75;56.0;-136.9375;
1441975991988762;0.44378662109375;-0.43182373046875;-0.720947265625;-0.31134033203125;15.532306588124895;11.80174910818663;17.547738353946905;-0.98779296875;0.43701171875;0.01025390625;63.4375;53.8125;-145.1875;
1441975992010764;0.458251953125;-0.43170166015625;-0.702392578125;-0.3321533203125;15.851108011478486;11.7766646256218;17.441653239854794;-1.03076171875;0.36572265625;0.0126953125;61.75;52.25;-151.0625;
1441975992033765;0.47088623046875;-0.43359375;-0.68182373046875;-0.35418701171875;16.165953187635903;11.748901069965942;17.31396734205182;-1.09375;0.28564453125;0.02880859375;71.625;51.5625;-154.1875;
1441975992048766;0.481201171875;-0.4373779296875;-0.65911865234375;-0.3778076171875;16.475228317967197;11.70357900235353;17.147578102854453;-1.13134765625;0.3056640625;0.12109375;91.875;52.75;-154.125;
1441975992070767;0.4903564453125;-0.4404296875;-0.63629150390625;-0.40093994140625;16.77266629108222;11.594676183884681;16.919474736602886;-1.14599609375;0.35546875;0.05615234375;113.25;48.25;-155.875;
1441975992093768;0.498779296875;-0.442626953125;-0.61328125;-0.42340087890625;17.05819853577726;11.372083172407333;16.581081383731526;-1.2451171875;0.349609375;0.0576171875;112.0625;44.5;-153.625;
1441975992108769;0.50531005859375;-0.44561767578125;-0.58953857421875;-0.4456787109375;17.3171386302565;10.955344539175018;16.040503593471044;-1.28369140625;0.31298828125;0.10693359375;109.375;43.25;-152.5;
1441975992130770;0.50933837890625;-0.4498291015625;-0.56500244140625;-0.468017578125;17.525368667122493;10.120669242927297;15.069827698492608;-1.25;0.287109375;0.13427734375;118.4375;41.6875;-147.5;
1441975992153772;0.51202392578125;-0.45367431640625;-0.54107666015625;-0.4891357421875;17.628477915507368;8.558206500879445;13.374491285128027;-1.26416015625;0.31689453125;0.0849609375;130.6875;38.4375;-140.8125;
1441975992169773;0.51458740234375;-0.45648193359375;-0.518310546875;-0.5081787109375;17.579944081023502;6.8581391621515815;11.55378748279347;-1.287109375;0.35986328125;0.06982421875;128.3125;34.1875;-134.875;
1441975992190774;0.51605224609375;-0.45843505859375;-0.496826171875;-0.52606201171875;17.430094097089597;5.915784010869392;10.497191939381464;-1.22509765625;0.4140625;0.0927734375;115.9375;33.75;-129.6875;
1441975992213775;0.515380859375;-0.460693359375;-0.47674560546875;-0.54302978515625;17.26254280908608;5.5097612624834325;9.976470511408998;-1.169921875;0.345703125;0.07373046875;110.1875;27.0625;-121.625;
1441975992229776;0.51141357421875;-0.46527099609375;-0.46173095703125;-0.55572509765625;17.163059251032635;5.379823869820822;9.742362825770352;-1.15087890625;0.37353515625;0.07958984375;110.625;20.25;-109.3125;
1441975992250777;0.508056640625;-0.4691162109375;-0.44903564453125;-0.56591796875;17.080387264473554;5.2934737438918456;9.569418438746983;-1.08154296875;0.43896484375;0.06884765625;99.875;16.4375;-98.4375;
1441975992273779;0.50531005859375;-0.472412109375;-0.4395751953125;-0.572998046875;17.02521215879776;5.236300782636629;9.447159660723395;-1.0146484375;0.423828125;0.0634765625;82.5625;15.1875;-87.625;
1441975992289779;0.5040283203125;-0.47430419921875;-0.43310546875;-0.57745361328125;16.984383663272798;5.189351378003622;9.359508563802764;-0.95166015625;0.4501953125;0.08349609375;60.875;15.6875;-74.1875;
1441975992310781;0.5003662109375;-0.47698974609375;-0.428466796875;-0.5819091796875;16.968039670534928;5.216081474976971;9.341704059043575;-0.9052734375;0.32763671875;0.10595703125;37.25;14.375;-56.875;
1441975992333782;0.4931640625;-0.482421875;-0.425048828125;-0.58599853515625;16.994224997649408;5.2996845019280405;9.36729906628479;-0.8974609375;0.25732421875;0.15869140625;41.625;9.625;-37.4375;
1441975992349783;0.48480224609375;-0.4891357421875;-0.42425537109375;-0.5880126953125;17.059501303571324;5.417816212045388;9.434079872938227;-0.8369140625;0.31396484375;0.1455078125;55.4375;6.625;-17.5625;
1441975992370784;0.47650146484375;-0.496337890625;-0.42620849609375;-0.58734130859375;17.156749681523692;5.563916981167855;9.54336296879762;-0.82666015625;0.35595703125;0.13720703125;49.5;5.3125;0.6875;
1441975992393785;0.46917724609375;-0.5035400390625;-0.43133544921875;-0.58343505859375;17.28325637351885;5.750770030359733;9.71480053274583;-0.80908203125;0.36669921875;0.12548828125;35.625;6.4375;18.4375;
1441975992409786;0.46319580078125;-0.51031494140625;-0.4395751953125;-0.5760498046875;17.43379567774819;6.025419971438038;9.99808401344219;-0.79541015625;0.37255859375;0.11767578125;14.5625;8.9375;35.0625;
1441975992430788;0.4586181640625;-0.51629638671875;-0.45074462890625;-0.565673828125;17.594773300700577;6.544704392933122;10.549306599308228;-0.80859375;0.36572265625;0.107421875;-9.125;11.5625;50.75;
1441975992453789;0.45477294921875;-0.5216064453125;-0.4639892578125;-0.55303955078125;17.734560375341808;7.790637561520008;11.843496638781641;-0.828125;0.33837890625;0.09619140625;-31.625;12.75;65.25;
1441975992469790;0.45068359375;-0.52667236328125;-0.478515625;-0.5390625;17.75313288300485;10.245891563208936;14.354363052002045;-0.8701171875;0.2978515625;0.0810546875;-47.4375;12.5625;78.8125;
1441975992490791;0.44671630859375;-0.53106689453125;-0.49267578125;-0.52508544921875;17.624395489088723;11.788186415019812;15.953327862538755;-0.91943359375;0.26318359375;0.05859375;-54.125;10.75;91.375;
1441975992513792;0.44097900390625;-0.5360107421875;-0.50714111328125;-0.510986328125;17.426613914983292;12.42776439566739;16.644041676992494;-0.9638671875;0.232421875;0.0322265625;-54.625;7.9375;102.125;
1441975992529793;0.432861328125;-0.54193115234375;-0.52105712890625;-0.49749755859375;17.19916465736804;12.709780413795603;16.96414459425729;-1.0;0.1884765625;0.00927734375;-48.9375;4.0;111.6875;
1441975992550794;0.42230224609375;-0.54913330078125;-0.5340576171875;-0.48480224609375;16.953767849153962;12.857930620991175;17.13472202304596;-1.0283203125;0.166015625;-0.013671875;-36.0;-0.625;119.5;
1441975992573796;0.40948486328125;-0.5574951171875;-0.5457763671875;-0.47296142578125;16.697702596582857;12.94887824618454;17.23201377113582;-1.05419921875;0.162109375;-0.02783203125;-20.5625;-5.125;126.0;
1441975992589797;0.394775390625;-0.56695556640625;-0.55621337890625;-0.46197509765625;16.43483731729906;13.014481995638297;17.289046716732912;-1.07763671875;0.15869140625;-0.0546875;-4.375;-8.9375;130.8125;
1441975992610798;0.37884521484375;-0.57720947265625;-0.56524658203125;-0.45147705078125;16.1703998827404;13.072802705971322;17.32726304163667;-1.07470703125;0.1630859375;-0.0595703125;9.9375;-11.6875;134.0625;
1441975992643800;0.362548828125;-0.5877685546875;-0.5732421875;-0.44110107421875;15.908369353667341;13.127746002591731;17.35650185388356;-1.0546875;0.19189453125;-0.06689453125;21.1875;-11.875;134.9375;
1441975992649800;0.34674072265625;-0.5980224609375;-0.58038330078125;-0.4305419921875;15.65441869027395;13.180153901127227;17.383230102151153;-1.0341796875;0.2294921875;-0.06005859375;27.0;-10.375;133.6875;
1441975992670801;0.33197021484375;-0.6075439453125;-0.58697509765625;-0.4197998046875;15.412302248803808;13.227484125447816;17.408705007040048;-1.0107421875;0.24560546875;-0.064453125;26.875;-7.375;130.25;
1441975992693803;0.318603515625;-0.61602783203125;-0.59326171875;-0.4088134765625;15.184026356812184;13.268552023208661;17.43470046996099;-0.99267578125;0.2802734375;-0.060546875;23.375;-3.625;124.625;
1441975992709803;0.3070068359375;-0.62310791015625;-0.59942626953125;-0.3978271484375;14.97405485010142;13.300530779584712;17.460545042564874;-0.98291015625;0.302734375;-0.05615234375;17.3125;0.0625;118.0;
1441975992730805;0.299072265625;-0.62847900390625;-0.6043701171875;-0.38775634765625;14.808714722971914;13.330892580520867;17.494630955005157;-0.98095703125;0.3310546875;-0.052734375;8.9375;3.5625;109.125;
1441975992753806;0.2933349609375;-0.632080078125;-0.609619140625;-0.3780517578125;14.666326631127578;13.348838085820118;17.5281823751592;-0.962890625;0.34423828125;-0.0498046875;-1.5;6.8125;99.0;
1441975992769807;0.2899169921875;-0.63409423828125;-0.61480712890625;-0.36871337890625;14.54903508201938;13.359328677911995;17.564978374110943;-0.94140625;0.3466796875;-0.0390625;-12.4375;10.125;88.0625;
1441975992790808;0.28857421875;-0.634765625;-0.6199951171875;-0.35992431640625;14.455264601985998;13.362955443692135;17.60387441546674;-0.92529296875;0.3427734375;-0.04736328125;-22.4375;13.125;76.625;
1441975992813809;0.289306640625;-0.6341552734375;-0.6248779296875;-0.351806640625;14.387072892864168;13.362022522973106;17.64569265177776;-0.89990234375;0.33984375;-0.041015625;-30.5;15.6875;64.875;
1441975992829810;0.2918701171875;-0.63250732421875;-0.62945556640625;-0.3443603515625;14.341923951937256;13.357926288935156;17.690324080147505;-0.87548828125;0.328125;-0.0546875;-37.75;18.25;52.9375;
1441975992850812;0.296142578125;-0.630126953125;-0.63336181640625;-0.33782958984375;14.321160565406572;13.353963711112732;17.737869394806644;-0.8525390625;0.3271484375;-0.05029296875;-42.875;20.5625;41.0;
1441975992873813;0.30181884765625;-0.62725830078125;-0.636474609375;-0.33233642578125;14.323005785539653;13.351589090930512;17.787284902260573;-0.83349609375;0.31494140625;-0.064453125;-45.4375;22.625;29.3125;
1441975992889814;0.3084716796875;-0.6241455078125;-0.6385498046875;-0.32806396484375;14.345608414360264;13.352437823549224;17.836786799525832;-0.8193359375;0.30322265625;-0.07177734375;-45.6875;23.9375;17.75;
1441975992912815;0.3157958984375;-0.62115478515625;-0.63922119140625;-0.32537841796875;14.389312451663052;13.359383464946275;17.884946169197946;-0.81103515625;0.29931640625;-0.07275390625;-42.5;24.1875;7.0;
1441975992933816;0.32342529296875;-0.61834716796875;-0.638671875;-0.3243408203125;14.450737332698324;13.370975687525652;17.929356318546375;-0.82080078125;0.2998046875;-0.08056640625;-35.5625;23.3125;-3.375;
1441975992949817;0.331298828125;-0.61553955078125;-0.6370849609375;-0.32489013671875;14.528870148830215;13.385360047900893;17.96926230302178;-0.83837890625;0.31494140625;-0.0791015625;-28.375;21.375;-13.375;
1441975992970818;0.33917236328125;-0.61285400390625;-0.63446044921875;-0.32696533203125;14.621037268341873;13.403051887876494;0.00429130845367663;-0.837890625;0.31640625;-0.07958984375;-21.9375;18.6875;-22.875;
1441975992993820;0.3470458984375;-0.6102294921875;-0.6309814453125;-0.33038330078125;14.725481255566345;13.423362897111602;0.03507869749234113;-0.83935546875;0.32373046875;-0.0703125;-14.4375;16.25;-31.5625;
1441975993009821;0.3548583984375;-0.607421875;-0.626953125;-0.33489990234375;14.839849129668638;13.44346045616997;0.06103433677316182;-0.8388671875;0.33251953125;-0.0595703125;-8.0625;14.0625;-39.3125;
1441975993030822;0.36273193359375;-0.6043701171875;-0.6224365234375;-0.34027099609375;14.963378871175195;13.463880301179538;0.08418774054681315;-0.84033203125;0.3349609375;-0.04248046875;-3.75;12.3125;-46.125;
1441975993053823;0.3707275390625;-0.600830078125;-0.61785888671875;-0.34625244140625;15.094169395743888;13.481099296536946;0.10393199188933822;-0.85205078125;0.34619140625;-0.02490234375;-0.4375;10.8125;-52.0625;
1441975993069824;0.37921142578125;-0.59649658203125;-0.61346435546875;-0.352294921875;15.231286166937615;13.49481660927431;0.124304023670138;-0.8740234375;0.3623046875;-0.00341796875;-0.3125;10.0;-57.9375;
1441975993092825;0.3883056640625;-0.591064453125;-0.60968017578125;-0.35809326171875;15.373098741189024;13.501280068377387;0.1449294294776753;-0.89208984375;0.3828125;-0.00146484375;-4.125;10.0;-63.0625;
1441975993113827;0.39825439453125;-0.5843505859375;-0.60650634765625;-0.36346435546875;15.520895423183038;13.500791704471203;0.16784435616578264;-0.9072265625;0.39013671875;0.02197265625;-11.3125;10.6875;-67.5625;
1441975993129828;0.40850830078125;-0.5767822265625;-0.60400390625;-0.368408203125;15.668894833902513;13.492844197735414;0.18979618921422042;-0.9140625;0.36962890625;0.0361328125;-20.125;12.1875;-70.5;
1441975993152829;0.418701171875;-0.5689697265625;-0.6016845703125;-0.372802734375;15.813112119210576;13.484857076418328;0.21428819558209664;-0.92919921875;0.35595703125;0.064453125;-26.0;13.0625;-71.25;
1441975993173830;0.42901611328125;-0.560791015625;-0.599853515625;-0.37646484375;15.952816320170822;13.475358156817817;0.24214114615491023;-0.93994140625;0.3408203125;0.06689453125;-28.9375;13.6875;-69.6875;
1441975993197831;0.43878173828125;-0.552734375;-0.59808349609375;-0.3798828125;16.08649521402546;13.465304178655634;0.2682977018644133;-0.96435546875;0.3203125;0.06787109375;-33.875;15.0625;-67.375;
1441975993212832;0.446533203125;-0.54644775390625;-0.5958251953125;-0.38348388671875;16.20187951965263;13.462226967390981;0.2884779329234446;-0.97216796875;0.26611328125;0.078125;-32.75;14.3125;-62.1875;
1441975993233833;0.452880859375;-0.5416259765625;-0.59326171875;-0.3868408203125;16.300643962066758;13.469168901316207;0.3102166486761453;-0.96142578125;0.27685546875;0.08544921875;-20.4375;12.75;-55.5;
1441975993249834;0.4580078125;-0.5379638671875;-0.5909423828125;-0.38946533203125;16.37970791237832;13.482344014040118;0.3341937511152536;-0.9541015625;0.28955078125;0.07177734375;-12.375;11.5625;-48.9375;
1441975993272836;0.46246337890625;-0.5347900390625;-0.5889892578125;-0.39154052734375;16.446646776292805;13.496367816079742;0.3583602380274853;-0.95751953125;0.32763671875;0.064453125;-8.6875;11.3125;-42.9375;
1441975993293837;0.465576171875;-0.5321044921875;-0.5875244140625;-0.39361572265625;16.500534911055492;13.497542905384911;0.3658583092050745;-0.97265625;0.33837890625;0.05810546875;-8.1875;10.6875;-37.9375;
1441975993309838;0.465576171875;-0.53173828125;-0.5859375;-0.396484375;16.528933344048376;13.488540135984781;0.344897880328769;-0.97900390625;0.3310546875;0.0615234375;-4.875;6.25;-32.0625;
1441975993332839;0.46258544921875;-0.53350830078125;-0.58428955078125;-0.40008544921875;16.532740857681194;13.467810654311585;0.2951812787899839;-0.98681640625;0.32861328125;0.087890625;12.8125;0.5625;-18.8125;
1441975993353840;0.45758056640625;-0.53662109375;-0.58355712890625;-0.4027099609375;16.506073109585753;13.44030114176404;0.2345729382664074;-0.98486328125;0.34375;0.08447265625;28.75;-6.9375;-8.0625;
1441975993369841;0.4527587890625;-0.5394287109375;-0.5841064453125;-0.40362548828125;16.46458701074564;13.412138968279052;0.18341058989036163;-0.966796875;0.4404296875;0.041015625;31.625;-13.4375;0.625;
1441975993392843;0.44970703125;-0.5396728515625;-0.5867919921875;-0.4027099609375;16.424852642764826;13.362576298461512;0.1348715511721784;-0.95068359375;0.48291015625;-0.00537109375;20.875;-14.625;5.3125;
1441975993416844;0.44854736328125;-0.537353515625;-0.59124755859375;-0.400634765625;16.39344314562623;13.291348271110058;0.086018942900354;-0.97412109375;0.4462890625;0.0;-3.125;-14.75;7.5625;
1441975993429845;0.448974609375;-0.533203125;-0.59613037109375;-0.39849853515625;16.37812008148486;13.209366053979284;0.037694471633029296;-0.97802734375;0.3642578125;0.0078125;-24.8125;-15.25;9.1875;
1441975993452846;0.44781494140625;-0.531005859375;-0.5997314453125;-0.3973388671875;16.354793758950294;13.14456335106417;17.98979920290076;-0.99853515625;0.19482421875;0.03369140625;-35.25;-13.625;12.875;
1441975993473847;0.445068359375;-0.531494140625;-0.601318359375;-0.39739990234375;16.325731800353875;13.111613385577307;17.952016238640606;-0.958984375;0.14794921875;0.04833984375;-18.1875;-13.875;18.8125;
1441975993495848;0.4410400390625;-0.5340576171875;-0.60162353515625;-0.39801025390625;16.28835096803332;13.103297865670328;17.92385052920934;-0.931640625;0.138671875;0.03955078125;3.5;-12.625;22.5;
1441975993512849;0.43634033203125;-0.5379638671875;-0.60107421875;-0.39874267578125;16.24556896421218;13.114086079569072;17.906122173478664;-0.91015625;0.1689453125;0.0234375;18.625;-11.4375;24.625;
1441975993536851;0.43121337890625;-0.54278564453125;-0.5997314453125;-0.3997802734375;16.20181238887377;13.13769910124472;17.89411307511539;-0.89501953125;0.20849609375;0.0048828125;27.1875;-10.625;24.875;
1441975993549852;0.42584228515625;-0.54803466796875;-0.59808349609375;-0.40087890625;16.156496785933264;13.166586431982916;17.88433419219104;-0.8857421875;0.24462890625;-0.01416015625;34.0;-10.0625;24.125;
1441975993579853;0.420654296875;-0.5528564453125;-0.5965576171875;-0.4019775390625;16.113750492293136;13.190460628398682;17.871632926049852;-0.8818359375;0.28857421875;-0.0390625;36.625;-10.625;22.1875;
1441975993593854;0.41558837890625;-0.55743408203125;-0.59503173828125;-0.40313720703125;16.073352306729664;13.211830708907865;17.85727425360126;-0.87353515625;0.3056640625;-0.0498046875;34.3125;-11.875;20.1875;
1441975993609855;0.4107666015625;-0.561767578125;-0.59332275390625;-0.40460205078125;16.03859148203152;13.23145164110919;17.841117319556314;-0.86767578125;0.31689453125;-0.0625;32.5625;-12.875;18.375;
1441975993632856;0.40618896484375;-0.56585693359375;-0.5914306640625;-0.40643310546875;16.00984989624699;13.248973042958681;17.822641325530036;-0.87060546875;0.31689453125;-0.0654296875;32.5;-13.375;16.3125;
1441975993653857;0.40179443359375;-0.56964111328125;-0.58917236328125;-0.40869140625;15.988258220098487;13.264679976456119;17.801438270707404;-0.88720703125;0.310546875;-0.0625;32.75;-13.5625;14.25;
1441975993669858;0.39752197265625;-0.57330322265625;-0.58642578125;-0.41162109375;15.974745084559954;13.279426262734914;17.776584386620364;-0.89501953125;0.29345703125;-0.05615234375;33.5;-13.5625;12.1875;
1441975993692860;0.39324951171875;-0.57745361328125;-0.58282470703125;-0.41510009765625;15.967017694774086;13.302829716494323;17.754868226025394;-0.8916015625;0.27001953125;-0.03466796875;36.75;-13.0;10.0;
1441975993713861;0.3890380859375;-0.58184814453125;-0.5784912109375;-0.41900634765625;15.965189494242972;13.33250930350994;17.73551548282871;-0.900390625;0.2548828125;-0.01708984375;43.0625;-10.8125;8.125;
1441975993735862;0.385009765625;-0.58636474609375;-0.5738525390625;-0.42279052734375;15.965053077367415;13.368137622758534;17.721749305867387;-0.90380859375;0.248046875;-0.0048828125;47.3125;-8.3125;6.3125;
1441975993751863;0.38153076171875;-0.59063720703125;-0.569091796875;-0.42626953125;15.968588785066254;13.407948310912055;17.714997285801957;-0.89599609375;0.26123046875;0.00927734375;48.4375;-5.3125;4.1875;
1441975993773864;0.37896728515625;-0.59454345703125;-0.564697265625;-0.4290771484375;15.973997137006348;13.451256742756247;17.71851851857035;-0.89599609375;0.28271484375;0.01904296875;46.25;-1.75;1.375;
1441975993795866;0.377685546875;-0.597412109375;-0.56085205078125;-0.43121337890625;15.985614342802565;13.492077612104373;17.729869966718155;-0.89501953125;0.32177734375;0.01171875;40.1875;1.75;-2.125;
1441975993812867;0.37786865234375;-0.599365234375;-0.55755615234375;-0.43267822265625;16.00404775157338;13.533097660295828;17.751954759705846;-0.89599609375;0.337890625;0.009765625;30.125;4.6875;-6.375;
1441975993833868;0.379150390625;-0.60040283203125;-0.55462646484375;-0.43389892578125;16.030355590453194;13.5710565315116;17.77865705194539;-0.912109375;0.3525390625;-0.00537109375;20.4375;7.125;-10.75;
1441975993855869;0.38140869140625;-0.60064697265625;-0.5518798828125;-0.43499755859375;16.06482962656755;13.607699860540883;17.81011281194185;-0.92041015625;0.3623046875;-0.01123046875;12.625;8.8125;-15.5;
1441975993872870;0.38427734375;-0.600341796875;-0.54925537109375;-0.43621826171875;16.105810767475;13.64224150698881;17.8428820258256;-0.92529296875;0.3544921875;-0.01513671875;6.9375;9.8125;-19.5;
1441975993893871;0.3873291015625;-0.59967041015625;-0.5467529296875;-0.43756103515625;16.149680901589246;13.673691201857379;17.874162930224088;-0.9345703125;0.34423828125;-0.0166015625;3.6875;9.6875;-22.8125;
1441975993915872;0.3917236328125;-0.59771728515625;-0.54461669921875;-0.43902587890625;16.20719606827937;13.69895805121217;17.90765254358761;-0.92529296875;0.3486328125;-0.013671875;1.9375;9.125;-25.25;
1441975993931873;0.395751953125;-0.59576416015625;-0.542724609375;-0.44036865234375;16.26023523995383;13.721347340796186;17.938216110305266;-0.92529296875;0.2744140625;-0.01171875;-6.3125;9.25;-27.6875;
1441975993953875;0.39996337890625;-0.59368896484375;-0.540771484375;-0.44183349609375;16.31598581332862;13.745386931375862;17.970788557472215;-0.93994140625;0.30712890625;0.00341796875;-6.5625;8.9375;-28.25;
1441975993975876;0.40350341796875;-0.591552734375;-0.53900146484375;-0.44366455078125;16.36935739940196;13.759372221832537;17.990975408334716;-0.9580078125;0.3056640625;-0.00390625;-6.375;8.75;-29.6875;
1441975993992877;0.40521240234375;-0.59039306640625;-0.53668212890625;-0.44635009765625;16.414747645836073;13.767868721878008;17.993423859105125;-0.9755859375;0.3173828125;0.01318359375;-4.6875;6.1875;-29.375;
1441975994013878;0.40472412109375;-0.59088134765625;-0.53363037109375;-0.4498291015625;16.446975856399057;13.776839101334948;17.980772834114223;-0.99072265625;0.2978515625;0.03759765625;7.25;2.6875;-24.0;
1441975994035879;0.403076171875;-0.59197998046875;-0.53082275390625;-0.45318603515625;16.467002210999276;13.779564539525555;17.957774681629775;-0.974609375;0.3212890625;0.0419921875;22.6875;-0.3125;-19.25;
1441975994052880;0.40155029296875;-0.59271240234375;-0.5291748046875;-0.45550537109375;16.477202904908278;13.77349995415003;17.93372555239576;-0.94970703125;0.3681640625;0.0322265625;26.0;-3.0625;-16.5625;
1441975994075882;0.40167236328125;-0.59197998046875;-0.52935791015625;-0.45611572265625;16.484865088853756;13.75812939053527;17.919618901611415;-0.92919921875;0.4130859375;0.02685546875;18.6875;-3.25;-15.6875;
1441975994095883;0.4041748046875;-0.58880615234375;-0.53179931640625;-0.45526123046875;16.499028850057122;13.721168135834517;17.908692553976536;-0.91064453125;0.431640625;0.0166015625;-1.0625;-1.625;-16.3125;
1441975994112884;0.408447265625;-0.5841064453125;-0.53521728515625;-0.4534912109375;16.52111412100355;13.678515552384717;17.907075284728187;-0.88330078125;0.39501953125;0.02685546875;-25.375;-0.25;-17.6875;
1441975994134885;0.4134521484375;-0.57891845703125;-0.53875732421875;-0.4512939453125;16.546878185973387;13.638932612975067;17.91360548062747;-0.8623046875;0.337890625;0.02490234375;-40.3125;1.1875;-18.4375;
1441975994155886;0.41888427734375;-0.57366943359375;-0.54248046875;-0.44854736328125;16.571252438698682;13.605433232121298;17.929717111866037;-0.859375;0.31103515625;0.0087890625;-45.4375;2.25;-19.0;
1441975994172887;0.42498779296875;-0.56793212890625;-0.5465087890625;-0.4453125;16.59776172563547;13.573141993538636;17.952640933208443;-0.873046875;0.3310546875;-0.02197265625;-49.4375;2.3125;-20.0;
1441975994194888;0.4315185546875;-0.56158447265625;-0.55059814453125;-0.44195556640625;16.629076302523462;13.537499583626335;17.975685307843527;-0.9033203125;0.3388671875;-0.0615234375;-55.3125;1.4375;-21.0625;
1441975994215890;0.4378662109375;-0.55511474609375;-0.5546875;-0.43878173828125;16.661135261887438;13.495936951286462;17.992063950127182;-0.93212890625;0.31689453125;-0.0771484375;-59.375;0.0;-21.625;
1441975994231891;0.44354248046875;-0.5489501953125;-0.55828857421875;-0.43621826171875;16.693800827640324;13.4506119344344;17.998657952467447;-0.95751953125;0.2900390625;-0.0849609375;-58.9375;-2.125;-20.625;
1441975994254892;0.44805908203125;-0.54339599609375;-0.5615234375;-0.43438720703125;16.722445816494027;13.396798470674144;17.988468118378197;-0.9765625;0.25048828125;-0.09228515625;-53.5;-4.9375;-17.9375;
1441975994275893;0.451171875;-0.53900146484375;-0.56439208984375;-0.43292236328125;16.740330464611752;13.343852603452406;17.969639234124763;-0.978515625;0.208984375;-0.0751953125;-45.0625;-7.4375;-13.4375;
1441975994292894;0.4530029296875;-0.5357666015625;-0.56707763671875;-0.43157958984375;16.745726666617674;13.294311494653131;17.946304433343645;-0.955078125;0.18505859375;-0.052734375;-35.5625;-8.375;-7.4375;
1441975994314895;0.4541015625;-0.53363037109375;-0.569580078125;-0.42974853515625;16.73890575732761;13.261778136848466;17.935604348121473;-0.93017578125;0.18017578125;-0.02685546875;-27.375;-7.6875;-1.25;
1441975994335897;0.454833984375;-0.53216552734375;-0.572265625;-0.42724609375;16.721420029375885;13.241385065075034;17.93653806140394;-0.92529296875;0.1904296875;-0.02587890625;-22.625;-5.625;4.5;
1441975994351897;0.4554443359375;-0.53106689453125;-0.5751953125;-0.42401123046875;16.695708077857642;13.230853173101247;17.94877279050963;-0.927734375;0.1982421875;-0.025390625;-22.0;-3.8125;9.25;
1441975994374899;0.45599365234375;-0.53033447265625;-0.578369140625;-0.41998291015625;16.661808562782184;13.230878135618736;17.973364152623468;-0.94287109375;0.20703125;-0.037109375;-23.5;-2.0625;13.75;
1441975994395900;0.45648193359375;-0.530029296875;-0.58154296875;-0.4154052734375;16.622128198960784;13.241697540455508;0.008967272241610966;-0.9560546875;0.212890625;-0.0322265625;-24.875;-0.125;18.3125;
1441975994411901;0.45672607421875;-0.5302734375;-0.58465576171875;-0.410400390625;16.57580910379865;13.261457362113944;0.05232638801449174;-0.97900390625;0.2158203125;-0.05078125;-24.8125;1.6875;22.1875;
1441975994434902;0.4569091796875;-0.5308837890625;-0.587646484375;-0.4051513671875;16.52625615057607;13.287291438032305;0.10091280600297134;-0.98876953125;0.22119140625;-0.05322265625;-23.8125;3.25;25.8125;
1441975994455903;0.45697021484375;-0.5318603515625;-0.5904541015625;-0.39971923828125;16.473634585704925;13.318013514871812;0.1530228727146444;-0.994140625;0.216796875;-0.06201171875;-22.3125;4.6875;28.6875;
1441975994478905;0.4569091796875;-0.53302001953125;-0.59320068359375;-0.39404296875;16.41775567493123;13.349891358623097;0.20600518946012025;-0.98681640625;0.21484375;-0.064453125;-21.125;6.125;30.8125;
1441975994494906;0.45697021484375;-0.5343017578125;-0.59588623046875;-0.38818359375;16.36082355999952;13.38357099754937;0.2611712656136298;-0.97412109375;0.22265625;-0.05712890625;-20.5625;7.875;32.375;
1441975994515907;0.4571533203125;-0.53558349609375;-0.5985107421875;-0.38214111328125;16.30338357177915;13.417449872264324;0.3172957991999185;-0.9658203125;0.21484375;-0.0625;-20.75;8.6875;33.6875;
1441975994531908;0.4573974609375;-0.53692626953125;-0.60107421875;-0.37591552734375;16.244681660927945;13.451554052422575;0.3740565272140094;-0.95947265625;0.2158203125;-0.0625;-21.25;10.5;34.5625;
1441975994553909;0.4578857421875;-0.5382080078125;-0.603515625;-0.3695068359375;16.1866975023769;13.486753507423103;0.4330336324811759;-0.9599609375;0.21826171875;-0.05810546875;-21.5625;11.9375;35.25;
1441975994576910;0.45831298828125;-0.53948974609375;-0.6058349609375;-0.36322021484375;16.12927585682821;13.519069262046006;0.48829620354654074;-0.95068359375;0.20703125;-0.0673828125;-22.3125;12.8125;36.1875;
1441975994591911;0.4586181640625;-0.54119873046875;-0.607666015625;-0.35711669921875;16.071709062535902;13.555838403336752;0.5445157376741284;-0.94873046875;0.19970703125;-0.06298828125;-21.4375;13.75;36.8125;
1441975994613912;0.45892333984375;-0.5433349609375;-0.6090087890625;-0.35125732421875;16.015025174277298;13.59745636780943;0.6022111144632208;-0.94677734375;0.2041015625;-0.060546875;-17.6875;15.0625;36.875;
1441975994636914;0.4593505859375;-0.54547119140625;-0.60992431640625;-0.34564208984375;15.96189134793047;13.640434855374933;0.6597169059575859;-0.9462890625;0.2158203125;-0.0693359375;-14.25;16.1875;36.0625;
1441975994651915;0.45989990234375;-0.54754638671875;-0.610595703125;-0.3404541015625;15.913253762411705;13.68170241126991;0.714054447901884;-0.94580078125;0.22021484375;-0.06884765625;-12.3125;17.25;34.25;
1441975994673916;0.4605712890625;-0.549560546875;-0.6109619140625;-0.33563232421875;15.868906819784627;13.7226517728508;0.7666428060822007;-0.947265625;0.22021484375;-0.06201171875;-11.0;18.0;32.5;
1441975994696917;0.46142578125;-0.55157470703125;-0.61102294921875;-0.33111572265625;15.828381844720926;13.764838004853061;0.8191925405799952;-0.94775390625;0.220703125;-0.0517578125;-8.8125;18.875;30.3125;
1441975994711918;0.4625244140625;-0.55340576171875;-0.61083984375;-0.32684326171875;15.792338822545721;13.807226455819569;0.8717628835294104;-0.94140625;0.232421875;-0.05126953125;-7.4375;19.9375;27.8125;
1441975994733919;0.46405029296875;-0.55487060546875;-0.61041259765625;-0.32281494140625;15.76278324375778;13.850176372231125;0.925775875072202;-0.93408203125;0.23974609375;-0.0458984375;-7.0625;20.8125;24.8125;
1441975994756921;0.46588134765625;-0.5560302734375;-0.60986328125;-0.31927490234375;15.740184720727608;13.891430917201372;0.9779964453525508;-0.9306640625;0.23828125;-0.048828125;-7.4375;21.75;21.4375;
1441975994771921;0.468017578125;-0.5570068359375;-0.60906982421875;-0.31591796875;15.72181218167651;13.934634003866545;1.0323324197448778;-0.919921875;0.23681640625;-0.03857421875;-7.1875;22.5;17.8125;
1441975994793923;0.47052001953125;-0.55755615234375;-0.60809326171875;-0.31298828125;15.711097505382988;13.977421359335738;1.0867353987817425;-0.91064453125;0.25048828125;-0.037109375;-6.6875;23.1875;14.1875;
1441975994816924;0.473388671875;-0.5577392578125;-0.6070556640625;-0.3104248046875;15.706869377610738;14.019634336044124;1.1413594816587023;-0.90478515625;0.25439453125;-0.03515625;-7.25;23.4375;9.875;
1441975994831925;0.47650146484375;-0.55755615234375;-0.6058349609375;-0.308349609375;15.709801743680538;14.061626448604997;1.1955274168880836;-0.8984375;0.26123046875;-0.03759765625;-7.8125;23.1875;5.6875;
1441975994861927;0.47991943359375;-0.5570068359375;-0.60443115234375;-0.306884765625;15.721183285422748;14.103984791352968;1.2495855400226228;-0.89013671875;0.26708984375;-0.04248046875;-7.5;22.6875;1.0625;
1441975994876927;0.4835205078125;-0.55609130859375;-0.602783203125;-0.3060302734375;15.740568223223923;14.146922018204656;1.3032702480684024;-0.88525390625;0.271484375;-0.04638671875;-7.1875;21.5;-3.75;
1441975994891928;0.48724365234375;-0.55462646484375;-0.6011962890625;-0.30596923828125;15.769697679853072;14.185583474756397;1.3523506103664615;-0.8984375;0.28955078125;-0.056640625;-6.4375;19.625;-9.125;
1441975994913930;0.4910888671875;-0.5526123046875;-0.59942626953125;-0.306884765625;15.810730148851224;14.222586491463314;1.3982208111165473;-0.9091796875;0.302734375;-0.0615234375;-6.4375;16.6875;-14.9375;
1441975994936931;0.4947509765625;-0.5504150390625;-0.597412109375;-0.30889892578125;15.86123507828379;14.258340277198872;1.4387732607060344;-0.91455078125;0.298828125;-0.06689453125;-5.1875;13.125;-20.3125;
1441975994951932;0.4981689453125;-0.5479736328125;-0.59521484375;-0.31201171875;15.921348674049158;14.29150176043496;1.472870443053903;-0.91845703125;0.30029296875;-0.0654296875;-1.5625;9.875;-25.3125;
1441975994973933;0.50140380859375;-0.5452880859375;-0.59295654296875;-0.31573486328125;15.987185053134468;14.322571388140538;1.5030684782739023;-0.92333984375;0.30615234375;-0.05224609375;2.125;6.8125;-30.0;
1441975994996934;0.5045166015625;-0.5421142578125;-0.5909423828125;-0.320068359375;16.060140991786465;14.346867152709486;1.5264104477874485;-0.923828125;0.3173828125;-0.0498046875;3.875;3.875;-34.1875;
1441975995012935;0.5076904296875;-0.5384521484375;-0.58905029296875;-0.32464599609375;16.138240380753864;14.368409403844803;1.5482535804537452;-0.92138671875;0.31884765625;-0.04443359375;3.5;0.6875;-38.125;
1441975995033936;0.51080322265625;-0.5341796875;-0.5875244140625;-0.3294677734375;16.221454739905937;14.381710197045097;1.563808617508251;-0.9248046875;0.32470703125;-0.05322265625;1.9375;-2.1875;-41.4375;
1441975995056938;0.51385498046875;-0.529541015625;-0.5863037109375;-0.33441162109375;16.307321859604805;14.388662400411175;1.574414066634404;-0.927734375;0.33154296875;-0.0439453125;-0.25;-5.0;-44.125;
1441975995071939;0.5167236328125;-0.52496337890625;-0.58489990234375;-0.3397216796875;16.395434178064935;14.396171289140925;1.583267676272386;-0.93310546875;0.326171875;-0.0458984375;-1.9375;-7.125;-45.9375;
1441975995093940;0.518798828125;-0.52105712890625;-0.583251953125;-0.3453369140625;16.479016283664663;14.401523191324486;1.584203258074084;-0.94970703125;0.31298828125;-0.04345703125;-0.125;-8.5;-46.0;
1441975995116941;0.520263671875;-0.517333984375;-0.58184814453125;-0.35101318359375;16.559163156901363;14.395800802280677;1.5723648913808357;-0.95947265625;0.318359375;-0.0576171875;5.25;-11.0;-44.75;
1441975995132942;0.521240234375;-0.51385498046875;-0.58074951171875;-0.35638427734375;16.632736751504183;14.379807825469829;1.5499993252135127;-0.9580078125;0.314453125;-0.0537109375;6.8125;-13.6875;-42.6875;
1441975995153943;0.52203369140625;-0.51043701171875;-0.58001708984375;-0.361328125;16.700904507672828;14.354799865615739;1.5202627627549825;-0.9599609375;0.3173828125;-0.0625;6.25;-15.875;-40.0;
1441975995176945;0.5224609375;-0.50714111328125;-0.57965087890625;-0.36590576171875;16.762952617408466;14.317023063168055;1.4785438142645788;-0.94921875;0.30224609375;-0.06689453125;4.125;-17.125;-36.875;
1441975995192946;0.5224609375;-0.50469970703125;-0.57928466796875;-0.369873046875;16.812370264881103;14.279470435165402;1.4351931880730056;-0.94091796875;0.28271484375;-0.0478515625;3.6875;-16.8125;-32.875;
1441975995213947;0.52203369140625;-0.5028076171875;-0.57928466796875;-0.373046875;16.848884500654123;14.234359736673918;1.384913211710752;-0.94287109375;0.28173828125;-0.0478515625;5.0625;-15.375;-27.5625;
1441975995236948;0.521484375;-0.501220703125;-0.5797119140625;-0.37530517578125;16.874155875110006;14.185077716762718;1.3331827448096207;-0.947265625;0.287109375;-0.0419921875;4.6875;-14.0;-22.25;
1441975995252949;0.52081298828125;-0.49993896484375;-0.58050537109375;-0.37664794921875;16.88833889481912;14.13417317656643;1.2823932696780007;-0.94677734375;0.28857421875;-0.03759765625;1.875;-12.6875;-16.9375;
1441975995273950;0.51995849609375;-0.49908447265625;-0.5816650390625;-0.377197265625;16.891314934075858;14.08245514529876;1.2324207045214717;-0.9501953125;0.2802734375;-0.0361328125;-0.8125;-10.9375;-11.375;
1441975995296951;0.51885986328125;-0.49896240234375;-0.582763671875;-0.377197265625;16.88401085845433;14.040271317701226;1.1906257496776949;-0.95556640625;0.2666015625;-0.0302734375;-2.1875;-8.9375;-5.375;
1441975995312952;0.517578125;-0.49945068359375;-0.58404541015625;-0.37628173828125;16.864095169934714;14.006481258089908;1.1581970753766417;-0.9521484375;0.25341796875;-0.025390625;-1.3125;-6.6875;0.375;
1441975995333954;0.516357421875;-0.5003662109375;-0.58551025390625;-0.3746337890625;16.83537511882294;13.982125737675291;1.1367948880274024;-0.94287109375;0.26611328125;-0.03955078125;-1.8125;-4.9375;5.3125;
1441975995356955;0.5150146484375;-0.5015869140625;-0.5870361328125;-0.372314453125;16.79876680040676;13.96450790762404;1.1231457255825026;-0.94482421875;0.2607421875;-0.04345703125;-3.3125;-2.4375;10.125;
1441975995372956;0.51373291015625;-0.50299072265625;-0.5887451171875;-0.36944580078125;16.756466896903042;13.951654886570374;1.1160521043909535;-0.93798828125;0.2646484375;-0.04638671875;-4.5625;-0.6875;13.75;
1441975995393957;0.512451171875;-0.50469970703125;-0.59033203125;-0.36639404296875;16.711195112040258;13.946060995919227;1.1155232914856434;-0.9443359375;0.2626953125;-0.05224609375;-5.75;0.625;17.0;
1441975995416958;0.51104736328125;-0.50665283203125;-0.5919189453125;-0.36309814453125;16.661929566400296;13.943150793122383;1.1173741437993385;-0.943359375;0.25927734375;-0.0595703125;-5.625;1.4375;19.375;
1441975995432959;0.50958251953125;-0.5086669921875;-0.59344482421875;-0.35980224609375;16.612181731519808;13.941030111410903;1.1195152962013017;-0.947265625;0.2607421875;-0.06982421875;-5.3125;1.9375;21.5;
1441975995453960;0.5079345703125;-0.51092529296875;-0.5947265625;-0.3568115234375;16.56310657377637;13.940703367240896;1.1206133008980759;-0.93994140625;0.2490234375;-0.0654296875;-4.375;2.0625;23.0625;
1441975995476962;0.506103515625;-0.51348876953125;-0.595703125;-0.35406494140625;16.514039989769216;13.943984576090104;1.1223234009153271;-0.93212890625;0.23193359375;-0.06689453125;-2.0625;2.0;24.4375;
1441975995492963;0.50408935546875;-0.51654052734375;-0.5963134765625;-0.35150146484375;16.463535379703515;13.953563017128044;1.1267833607007685;-0.91455078125;0.21826171875;-0.07080078125;1.125;2.1875;25.75;
1441975995513964;0.5018310546875;-0.51995849609375;-0.59649658203125;-0.349365234375;16.41412902669032;13.966739156639818;1.1305860074420782;-0.9111328125;0.216796875;-0.07080078125;4.6875;2.5625;26.625;
1441975995536965;0.4996337890625;-0.523681640625;-0.59625244140625;-0.34735107421875;16.36528972440444;13.987913762156266;1.140074452377529;-0.91015625;0.21435546875;-0.07275390625;8.6875;3.1875;26.875;
1441975995552966;0.49749755859375;-0.52728271484375;-0.59588623046875;-0.34564208984375;16.320203348434053;14.007994378327146;1.1477127592365204;-0.92236328125;0.22314453125;-0.08447265625;11.0;3.6875;26.5;
1441975995573967;0.49554443359375;-0.53076171875;-0.59527587890625;-0.3441162109375;16.278849357750595;14.030684534225239;1.15759524878932;-0.9306640625;0.22607421875;-0.08251953125;12.125;4.0;25.25;
1441975995596969;0.49395751953125;-0.5340576171875;-0.5943603515625;-0.3428955078125;16.24356832774911;14.057596418774672;1.1714525264107842;-0.93994140625;0.23046875;-0.0849609375;12.5;4.4375;23.5;
1441975995612970;0.49267578125;-0.53704833984375;-0.59326171875;-0.3419189453125;16.213983687535066;14.08583312549258;1.187132091764924;-0.94091796875;0.2294921875;-0.0888671875;12.625;5.1875;20.875;
1441975995633971;0.49169921875;-0.53973388671875;-0.592041015625;-0.34124755859375;16.190389338893937;14.11448752844137;1.2036927411734966;-0.9384765625;0.22412109375;-0.0810546875;12.375;6.125;18.125;
1441975995656972;0.4912109375;-0.54217529296875;-0.590576171875;-0.340576171875;16.171087923448038;14.14884280765761;1.227356378633036;-0.93310546875;0.22900390625;-0.07421875;12.375;7.125;15.1875;
1441975995672973;0.49127197265625;-0.54412841796875;-0.589111328125;-0.34002685546875;16.158164506918038;14.184222577299751;1.2546297711940333;-0.91943359375;0.2353515625;-0.078125;11.4375;8.3125;11.6875;
1441975995693974;0.491943359375;-0.5452880859375;-0.587646484375;-0.33966064453125;16.1542830792271;14.219177305748008;1.2850016185350388;-0.9267578125;0.24365234375;-0.08056640625;9.0;9.375;7.9375;
1441975995716975;0.49346923828125;-0.5455322265625;-0.58642578125;-0.3392333984375;16.158703725561264;14.25360361853667;1.320803112049224;-0.93212890625;0.24267578125;-0.07470703125;5.9375;10.125;3.5625;
1441975995731976;0.49566650390625;-0.544921875;-0.58544921875;-0.338623046875;16.169206036094543;14.286924630087757;1.3611736312584863;-0.9267578125;0.23779296875;-0.08740234375;-0.0625;9.8125;-0.9375;
1441975995753978;0.49859619140625;-0.54351806640625;-0.58453369140625;-0.338134765625;16.188487308563076;14.32197320013056;1.4074616519536813;-0.921875;0.23095703125;-0.08447265625;-5.4375;10.75;-4.625;
1441975995776979;0.50201416015625;-0.54150390625;-0.58380126953125;-0.3377685546875;16.214029067665148;14.35637433353834;1.4563856057736484;-0.92431640625;0.21826171875;-0.08447265625;-9.4375;11.375;-8.25;
1441975995798980;0.5057373046875;-0.5391845703125;-0.582763671875;-0.337646484375;16.245004440123175;14.396817319433515;1.5115340075622405;-0.9189453125;0.2099609375;-0.07373046875;-12.25;11.5;-11.9375;
1441975995813981;0.509521484375;-0.5367431640625;-0.5814208984375;-0.33807373046875;16.281643377656525;14.441519067658596;1.5689377988648345;-0.9111328125;0.1962890625;-0.08349609375;-12.5625;11.625;-14.6875;
1441975995836982;0.51318359375;-0.53448486328125;-0.57965087890625;-0.339111328125;16.32183995469331;14.492485825336434;1.6286519764467202;-0.91455078125;0.17578125;-0.0771484375;-10.5;11.5;-16.6875;
1441975995851983;0.5166015625;-0.5325927734375;-0.57745361328125;-0.3406982421875;16.36329032357225;14.550147043083069;1.6904085630133312;-0.90771484375;0.1533203125;-0.06982421875;-6.5;11.3125;-17.8125;
1441975995873984;0.51971435546875;-0.53125;-0.57476806640625;-0.34259033203125;16.402435651691434;14.616800505414412;1.7563960806120553;-0.9013671875;0.13818359375;-0.0625;-1.5;11.625;-18.125;
1441975995896986;0.52252197265625;-0.5302734375;-0.57177734375;-0.34478759765625;16.44015633674383;14.68880852672077;1.8240360371771192;-0.90185546875;0.13818359375;-0.0595703125;3.0625;12.1875;-18.25;
1441975995918987;0.525146484375;-0.529541015625;-0.568603515625;-0.34716796875;16.47642135024784;14.765574404384715;1.8941389176844503;-0.91259765625;0.1474609375;-0.064453125;6.9375;12.375;-18.75;
1441975995933988;0.52764892578125;-0.52880859375;-0.5653076171875;-0.34991455078125;16.514571013258074;14.845558284722634;1.9656744304601708;-0.93798828125;0.15966796875;-0.06494140625;9.5;12.375;-19.6875;
1441975995956989;0.52996826171875;-0.5281982421875;-0.5618896484375;-0.352783203125;16.551467190394522;14.929260580251952;2.0393776176499854;-0.95751953125;0.17041015625;-0.0595703125;11.25;11.9375;-21.1875;
1441975995978990;0.53228759765625;-0.52752685546875;-0.558349609375;-0.35595703125;16.590347911907198;15.018611899632551;2.117649739870563;-0.9658203125;0.1875;-0.0693359375;12.875;11.25;-23.1875;
1441975995993991;0.5345458984375;-0.52655029296875;-0.55487060546875;-0.359375;16.632202086282398;15.109327034310617;2.1974887827260168;-0.966796875;0.19580078125;-0.0732421875;14.125;10.625;-25.5;
1441975996016993;0.53692626953125;-0.525390625;-0.55133056640625;-0.3629150390625;16.675372134709438;15.207861437333277;2.285506550496665;-0.962890625;0.19775390625;-0.05859375;14.125;10.1875;-27.8125;
1441975996031994;0.53936767578125;-0.5240478515625;-0.5478515625;-0.366455078125;16.718515024901166;15.311909792829557;2.3799402057192096;-0.9423828125;0.1923828125;-0.05078125;13.9375;10.1875;-29.9375;
1441975996055995;0.54193115234375;-0.5225830078125;-0.5445556640625;-0.3697509765625;16.759042897201372;15.420625984301331;2.480992371049934;-0.93017578125;0.19384765625;-0.04296875;13.4375;10.5625;-31.625;
1441975996077996;0.54473876953125;-0.52069091796875;-0.54168701171875;-0.37255859375;16.797295351112343;15.53034755233319;2.5876740291781726;-0.91943359375;0.2041015625;-0.04296875;11.5;10.75;-32.625;
1441975996091997;0.5478515625;-0.518310546875;-0.53924560546875;-0.37481689453125;16.83322401051299;15.641885215977359;2.7013321196934044;-0.9150390625;0.20947265625;-0.04833984375;6.9375;10.6875;-33.4375;
1441975996115998;0.55120849609375;-0.51556396484375;-0.5372314453125;-0.3765869140625;16.866402454824495;15.754154385828446;2.820143525488128;-0.93017578125;0.20458984375;-0.06201171875;1.5;10.3125;-33.25;
1441975996137000;0.5546875;-0.512451171875;-0.5355224609375;-0.378173828125;16.899299410469464;15.868461008038786;2.9438199951099997;-0.93505859375;0.1875;-0.06884765625;-3.0625;9.6875;-32.5;
1441975996152000;0.55804443359375;-0.50921630859375;-0.53399658203125;-0.3797607421875;16.931594797359274;15.98353707277823;3.068802485787908;-0.94873046875;0.166015625;-0.07275390625;-6.25;9.0625;-31.4375;
1441975996176002;0.56085205078125;-0.50640869140625;-0.53228759765625;-0.3817138671875;16.962047991636634;16.09972926311428;3.1905119896125185;-0.94677734375;0.130859375;-0.06884765625;-6.6875;8.375;-29.375;
1441975996197003;0.5628662109375;-0.50469970703125;-0.5302734375;-0.38385009765625;16.984493779619058;16.209952546651785;3.2993865779318043;-0.92578125;0.08544921875;-0.0439453125;-3.0625;8.125;-25.8125;
1441975996219004;0.564208984375;-0.50433349609375;-0.52777099609375;-0.38580322265625;16.993952791667574;16.313685220203947;3.3951363108186325;-0.89013671875;0.0791015625;-0.029296875;3.9375;9.75;-21.25;
1441975996235005;0.5654296875;-0.50433349609375;-0.5255126953125;-0.38702392578125;16.99465445424144;16.402128028607578;3.47706469675785;-0.87939453125;0.0947265625;-0.03125;10.0625;12.375;-17.1875;
1441975996257006;0.56683349609375;-0.5045166015625;-0.523681640625;-0.38720703125;16.985870190495714;16.473450303298023;3.546134028255588;-0.85009765625;0.09130859375;-0.01904296875;8.75;15.1875;-13.0625;
1441975996279008;0.56842041015625;-0.50518798828125;-0.5220947265625;-0.38616943359375;16.96373520965699;16.526457434009522;3.6002944240404258;-0.82568359375;0.08251953125;4.8828125E-4;4.0;18.5625;-8.4375;
1441975996296009;0.57073974609375;-0.50567626953125;-0.52093505859375;-0.3836669921875;16.930644695015054;16.568689696252548;3.6518587180036417;-0.81396484375;0.0927734375;-0.009765625;0.5625;22.9375;-4.375;
1441975996317010;0.5736083984375;-0.505859375;-0.5203857421875;-0.37994384765625;16.89063825229315;16.595502102507098;3.6958050291444406;-0.8349609375;0.0771484375;-0.01220703125;-7.625;27.4375;-0.3125;
1441975996339011;0.576416015625;-0.506591796875;-0.51959228515625;-0.37567138671875;16.841584634026713;16.614786823805346;3.7314548685904416;-0.85009765625;0.048828125;-0.02099609375;-15.875;30.5625;4.3125;
1441975996356012;0.578857421875;-0.50799560546875;-0.5185546875;-0.3714599609375;16.788326646937197;16.626881150860523;3.7560459368782615;-0.87646484375;0.02880859375;-0.044921875;-15.6875;32.5625;8.75;
1441975996377013;0.5806884765625;-0.510009765625;-0.517578125;-0.36724853515625;16.732698105748092;16.623271399762334;3.7616034348358673;-0.8837890625;0.01220703125;-0.060546875;-12.1875;33.3125;13.0;
1441975996399015;0.5819091796875;-0.5128173828125;-0.516357421875;-0.363037109375;16.672256414458854;16.610433413182662;3.7532392037870728;-0.8603515625;-0.00732421875;-0.0654296875;-9.5625;32.625;18.1875;
1441975996416015;0.58258056640625;-0.51617431640625;-0.5150146484375;-0.35919189453125;16.611853384492207;16.59303503736314;3.735690411256873;-0.8349609375;0.013671875;-0.087890625;-5.125;32.0;21.125;
1441975996437017;0.58258056640625;-0.5198974609375;-0.51348876953125;-0.3558349609375;16.553703333297374;16.573072989112998;3.7106735874029986;-0.8173828125;-0.00634765625;-0.09033203125;-1.25;30.5;24.6875;
1441975996459018;0.58203125;-0.524169921875;-0.51177978515625;-0.35308837890625;16.497203998859227;16.55274527663693;3.6797143204584812;-0.79736328125;-0.02099609375;-0.0986328125;3.1875;28.1875;27.125;
1441975996476019;0.58062744140625;-0.529541015625;-0.50933837890625;-0.350830078125;16.436159457530977;16.533769975048;3.640970807465841;-0.76416015625;-0.05029296875;-0.09423828125;7.9375;26.8125;30.625;
1441975996497020;0.57855224609375;-0.5360107421875;-0.5062255859375;-0.34893798828125;16.36937646327185;16.517240452673043;3.596525195845289;-0.73193359375;-0.0498046875;-0.09228515625;16.75;27.3125;34.0;
1441975996519021;0.57623291015625;-0.54278564453125;-0.5029296875;-0.34710693359375;16.300692081083245;16.5022963308243;3.5513494281077906;-0.7412109375;-0.01953125;-0.11328125;24.625;28.0625;35.5625;
1441975996536022;0.5736083984375;-0.5496826171875;-0.49957275390625;-0.3453369140625;16.231894138621175;16.487171396187218;3.504403430900239;-0.76123046875;0.0048828125;-0.1357421875;27.0625;27.6875;35.9375;
1441975996557024;0.57061767578125;-0.55682373046875;-0.495849609375;-0.34417724609375;16.165713350597613;16.478236089172988;3.4589688048357026;-0.791015625;0.03076171875;-0.185546875;28.5;25.0;35.5;
1441975996579025;0.5672607421875;-0.564453125;-0.49151611328125;-0.3436279296875;16.099713095238886;16.477551754878455;3.415681909747975;-0.83544921875;0.0595703125;-0.2333984375;32.6875;21.5;34.3125;
1441975996596026;0.56365966796875;-0.572509765625;-0.486083984375;-0.343994140625;16.035059004150067;16.493725418181054;3.3813888246839765;-0.88623046875;0.1142578125;-0.3037109375;38.9375;18.875;31.3125;
1441975996617027;0.55926513671875;-0.5802001953125;-0.4803466796875;-0.34619140625;15.988616225327597;16.517024486139547;3.3466212320069224;-0.9462890625;0.1484375;-0.3798828125;47.25;16.3125;27.25;
1441975996639028;0.5535888671875;-0.5880126953125;-0.47479248046875;-0.34991455078125;15.957107793593828;16.533881146009538;3.2972674276533054;-0.98828125;0.13232421875;-0.38916015625;54.125;9.25;24.8125;
1441975996663030;0.54730224609375;-0.59515380859375;-0.47003173828125;-0.35406494140625;15.937533173244903;16.539361502291758;3.23773685179926;-0.9990234375;0.1591796875;-0.40576171875;61.5;-0.1875;24.1875;
1441975996677030;0.540771484375;-0.60162353515625;-0.4659423828125;-0.3585205078125;15.927716363933945;16.5376219831338;3.173257400153237;-0.9609375;0.18701171875;-0.4150390625;60.3125;-8.25;22.1875;
1441975996699032;0.53375244140625;-0.60760498046875;-0.46258544921875;-0.36328125;15.926750008330039;16.524931163605135;3.0990554758918063;-0.9677734375;0.2158203125;-0.4287109375;58.0;-14.125;19.625;
1441975996722033;0.52703857421875;-0.61273193359375;-0.4599609375;-0.36785888671875;15.931618768059181;16.50662627203493;3.025288168534216;-0.94677734375;0.2490234375;-0.41162109375;57.1875;-18.875;18.125;
1441975996737034;0.52008056640625;-0.61688232421875;-0.45849609375;-0.37261962890625;15.9479839353011;16.47343901132451;2.941633028429468;-0.9208984375;0.23974609375;-0.4482421875;50.1875;-24.5625;16.875;
1441975996759035;0.5130615234375;-0.6202392578125;-0.4578857421875;-0.37750244140625;15.972503536420266;16.429294916086892;2.8513184960783997;-0.89501953125;0.2509765625;-0.4453125;45.0;-32.125;15.875;
1441975996776036;0.50677490234375;-0.62274169921875;-0.45770263671875;-0.38201904296875;15.999253187290508;16.384699464182866;2.7675102095501645;-0.8544921875;0.2314453125;-0.3896484375;40.4375;-34.625;16.125;
1441975996798037;0.50030517578125;-0.6258544921875;-0.4569091796875;-0.38641357421875;16.018458575978638;16.343695315751756;2.6835758833679466;-0.822265625;0.19482421875;-0.3642578125;33.3125;-34.125;15.1875;
1441975996827039;0.4935302734375;-0.6295166015625;-0.45550537109375;-0.3907470703125;16.031267100862536;16.306000683327227;2.598856595196789;-0.79296875;0.21142578125;-0.3720703125;37.375;-32.1875;15.125;
1441975996836040;0.4869384765625;-0.6329345703125;-0.4542236328125;-0.39495849609375;16.044124040772825;16.267476525160692;2.515268874097252;-0.80224609375;0.25390625;-0.390625;41.8125;-31.375;13.8125;
1441975996857041;0.48040771484375;-0.63580322265625;-0.453125;-0.39971923828125;16.06526749610616;16.227856180155552;2.43135029021021;-0.8359375;0.28369140625;-0.4072265625;40.4375;-31.875;11.75;
1441975996879042;0.473876953125;-0.6380615234375;-0.45184326171875;-0.40521240234375;16.096123061608886;16.191112137816514;2.349448035789757;-0.8779296875;0.28955078125;-0.4248046875;39.25;-36.25;9.5625;
1441975996895043;0.46661376953125;-0.64141845703125;-0.44940185546875;-0.4110107421875;16.11944534178377;16.16182215796711;2.26539519801543;-0.90625;0.23291015625;-0.4130859375;39.25;-39.0;9.25;
1441975996917044;0.4593505859375;-0.64483642578125;-0.44677734375;-0.41668701171875;16.14043515368563;16.13349651776953;2.1819396379831058;-0.9208984375;0.28564453125;-0.478515625;49.125;-40.625;8.1875;
1441975996941046;0.45281982421875;-0.64764404296875;-0.44476318359375;-0.42169189453125;16.160203199999884;16.101627554064216;2.1025820670556956;-0.94091796875;0.328125;-0.4951171875;49.9375;-40.625;6.0;
1441975996955046;0.44696044921875;-0.64996337890625;-0.44329833984375;-0.42584228515625;16.176121368165727;16.066371493230644;2.027240730905022;-0.9296875;0.3193359375;-0.47119140625;42.625;-38.5;5.0625;
1441975996977048;0.4422607421875;-0.65167236328125;-0.44256591796875;-0.4288330078125;16.186839337541;16.030373084586234;1.9617803331494827;-0.9169921875;0.3232421875;-0.43310546875;35.6875;-34.0625;4.4375;
1441975997001049;0.43878173828125;-0.6522216796875;-0.44293212890625;-0.4312744140625;16.202112819676334;15.989313872954252;1.903071352324325;-0.9130859375;0.34033203125;-0.42626953125;26.375;-30.1875;2.375;
1441975997015050;0.43646240234375;-0.6514892578125;-0.44415283203125;-0.433349609375;16.224252411227248;15.94565083919715;1.8524387093995427;-0.93212890625;0.33154296875;-0.42431640625;14.3125;-30.5625;-0.1875;
1441975997038051;0.43505859375;-0.650634765625;-0.4451904296875;-0.43505859375;16.24449548422571;15.913749806198998;1.817164529478852;-0.953125;0.283203125;-0.3916015625;3.5;-29.3125;-1.1875;
1441975997060052;0.433837890625;-0.65057373046875;-0.4451904296875;-0.4364013671875;16.255516236617424;15.900179433426247;1.796399341289563;-0.9482421875;0.216796875;-0.3896484375;-0.375;-25.9375;0.3125;
1441975997075053;0.43194580078125;-0.65167236328125;-0.4447021484375;-0.4371337890625;16.2518709672781;15.887904438354946;1.7718185845388792;-0.95849609375;0.17236328125;-0.392578125;3.375;-19.4375;2.75;
1441975997098054;0.4300537109375;-0.65338134765625;-0.44476318359375;-0.4364013671875;16.230890108992757;15.86830951517268;1.7438652264420473;-0.953125;0.20556640625;-0.3671875;9.125;-13.375;6.3125;
1441975997119056;0.4288330078125;-0.6539306640625;-0.44671630859375;-0.4346923828125;16.210412041503062;15.826397185649169;1.7072726909296052;-0.94287109375;0.275390625;-0.375;5.8125;-8.375;8.4375;
1441975997135057;0.42828369140625;-0.653564453125;-0.44921875;-0.4332275390625;16.19925188706814;15.782707306910876;1.6745327960904444;-0.93505859375;0.2861328125;-0.32275390625;-7.0625;-7.0625;9.8125;
1441975997158058;0.42681884765625;-0.654052734375;-0.451171875;-0.43194580078125;16.18198238515954;15.739423920241148;1.6348531208378767;-0.9365234375;0.18359375;-0.29736328125;-14.375;-8.5;13.125;
1441975997179059;0.423828125;-0.65643310546875;-0.45208740234375;-0.43023681640625;16.144844624168346;15.700403551797352;1.5874753770893502;-0.91748046875;0.14599609375;-0.28271484375;-7.75;-7.375;19.25;
1441975997195060;0.42071533203125;-0.65948486328125;-0.45281982421875;-0.42791748046875;16.097040199969225;15.6665560762967;1.5441269785218212;-0.90234375;0.22509765625;-0.3291015625;4.1875;-5.25;23.125;
1441975997224062;0.417724609375;-0.66241455078125;-0.45391845703125;-0.42510986328125;16.045503152118098;15.63080602350847;1.5019986183605587;-0.93505859375;0.2685546875;-0.3662109375;5.375;-3.5625;24.5625;
1441975997239063;0.4150390625;-0.66461181640625;-0.45556640625;-0.42254638671875;16.00121326108191;15.590373641473926;1.4591777687739342;-0.955078125;0.28857421875;-0.3740234375;2.25;-2.25;25.8125;
1441975997255063;0.41278076171875;-0.6656494140625;-0.4569091796875;-0.421630859375;15.980258356032788;15.554694918560827;1.420244258495148;-0.97412109375;0.2841796875;-0.373046875;-2.375;-4.875;24.4375;
1441975997278065;0.4095458984375;-0.66790771484375;-0.45635986328125;-0.421875;15.959981006977516;15.537864951474461;1.3848156577376858;-1.001953125;0.17626953125;-0.32568359375;-2.375;-8.5625;23.75;
1441975997299066;0.40496826171875;-0.6719970703125;-0.45404052734375;-0.42230224609375;15.926841429878644;15.53750156919827;1.350640538875936;-0.9677734375;0.14697265625;-0.32421875;12.5625;-8.5625;23.75;
1441975997315067;0.39935302734375;-0.6771240234375;-0.45135498046875;-0.42236328125;15.881191290207347;15.536648850502099;1.3096739351816133;-0.9462890625;0.18310546875;-0.32763671875;28.625;-4.8125;26.1875;
1441975997338068;0.39422607421875;-0.6815185546875;-0.44891357421875;-0.422607421875;15.843083325628307;15.53534608496913;1.2719766511604411;-0.93408203125;0.2568359375;-0.33056640625;35.4375;-2.375;27.6875;
1441975997359069;0.389404296875;-0.68511962890625;-0.44635009765625;-0.42401123046875;15.821489408360815;15.534902024840452;1.234784539342633;-0.955078125;0.2568359375;-0.326171875;31.5625;-3.3125;25.4375;
1441975997375070;0.3843994140625;-0.6885986328125;-0.442626953125;-0.427001953125;15.815435444414156;15.545039408359585;1.2000983453011123;-0.99072265625;0.203125;-0.32177734375;31.3125;-7.4375;23.375;
1441975997398072;0.37774658203125;-0.6929931640625;-0.43701171875;-0.43145751953125;15.81392512529109;15.56528428757063;1.1579306026202894;-1.04833984375;0.12353515625;-0.31494140625;38.125;-10.5625;23.5;
1441975997427073;0.3685302734375;-0.699951171875;-0.42901611328125;-0.43621826171875;15.794026767918755;15.600776535610512;1.1075115224003547;-1.11181640625;0.107421875;-0.2744140625;55.8125;-10.125;25.9375;
1441975997435074;0.35687255859375;-0.708740234375;-0.4193115234375;-0.4410400390625;15.758386395791767;15.642438131543068;1.0446552010267636;-1.12646484375;0.19775390625;-0.3154296875;79.4375;-8.125;28.9375;
1441975997459075;0.34368896484375;-0.7158203125;-0.4100341796875;-0.44879150390625;15.756283719138708;15.656825705802907;0.9478728879475204;-1.12548828125;0.326171875;-0.412109375;97.75;-12.0625;29.875;
1441975997479076;0.330810546875;-0.7216796875;-0.40081787109375;-0.4573974609375;15.770807544311442;15.667167387183303;0.8491663021718447;-1.19677734375;0.3232421875;-0.42138671875;103.25;-27.9375;26.625;
1441975997503078;0.32000732421875;-0.72613525390625;-0.3914794921875;-0.46600341796875;15.800704160310447;15.690373301458369;0.7733139698051206;-1.1748046875;0.341796875;-0.373046875;101.1875;-32.75;20.4375;
1441975997518079;0.30804443359375;-0.73211669921875;-0.381103515625;-0.47320556640625;15.806848998538845;15.724157496268884;0.7000514656721267;-1.1455078125;0.25146484375;-0.33154296875;91.75;-32.1875;14.375;
1441975997548080;0.29083251953125;-0.7442626953125;-0.3641357421875;-0.478515625;15.751975238668686;15.820192349975141;0.6377180231030141;-1.21142578125;0.11181640625;-0.41748046875;100.25;-22.8125;20.6875;
1441975997565081;0.27191162109375;-0.75689697265625;-0.34747314453125;-0.482177734375;15.675487911896752;15.903083986635966;0.5590246139070378;-1.26123046875;0.0537109375;-0.501953125;151.8125;0.75;40.9375;
1441975997594083;0.25994873046875;-0.76611328125;-0.33612060546875;-0.4822998046875;15.601554715690122;15.972695427046137;0.5249638938681096;-1.23828125;0.400390625;-0.59033203125;154.6875;4.25;47.375;
1441975997599083;0.26116943359375;-0.76971435546875;-0.3349609375;-0.4766845703125;15.532592853114872;16.015227984465913;0.5713237804456068;-0.88623046875;0.935546875;-0.6171875;103.125;13.8125;23.5;
1441975997615084;0.26287841796875;-0.77532958984375;-0.324951171875;-0.47357177734375;15.483663557422958;16.15854361256376;0.6790739956571356;-0.79150390625;0.60791015625;-0.48876953125;4.75;25.4375;-16.4375;
1441975997638085;0.2750244140625;-0.7679443359375;-0.33013916015625;-0.47509765625;15.567322537668744;16.16913530834992;0.7650062495843422;-0.8642578125;0.30810546875;-0.462890625;44.6875;38.375;-24.625;
1441975997659087;0.266845703125;-0.7559814453125;-0.33050537109375;-0.49810791015625;15.834969363366344;16.033174083055265;0.5801255376193473;-1.7705078125;-0.5517578125;1.1669921875;-67.5;-11.8125;-53.8125;
1441975997682088;0.24560546875;-0.77008056640625;-0.312744140625;-0.49896240234375;15.721973652755386;16.117145495457727;0.4919841261878457;-1.630859375;0.49365234375;0.708984375;56.5;-69.875;-30.0625;
1441975997698089;0.23150634765625;-0.77825927734375;-0.31646728515625;-0.49053955078125;15.550600013237474;16.00949455058889;0.3453678053814861;-0.68115234375;0.22998046875;-0.1796875;166.1875;24.0625;60.5;
1441975997719090;0.23992919921875;-0.77349853515625;-0.32843017578125;-0.4862060546875;15.545595819954933;15.929714469022441;0.35813102743266284;-0.93701171875;1.3740234375;-0.57763671875;46.5;14.5;28.0625;
1441975997735091;0.24822998046875;-0.77001953125;-0.33343505859375;-0.484130859375;15.56463481965622;15.926127920240324;0.4142776830196901;-0.85791015625;0.21826171875;-0.55078125;-97.125;-11.1875;0.3125;
1441975997758092;0.250732421875;-0.76983642578125;-0.33074951171875;-0.48492431640625;15.58430357837763;15.972435754216514;0.45883339082481955;-0.9267578125;-0.26318359375;-0.5048828125;-70.4375;-3.4375;10.9375;
1441975997781094;0.25244140625;-0.77001953125;-0.33062744140625;-0.48382568359375;15.5781146288474;15.989024207837872;0.48298277967028874;-1.09765625;-0.12841796875;-0.53515625;-6.9375;-5.625;8.5;
1441975997810095;0.25628662109375;-0.76959228515625;-0.33349609375;-0.4805908203125;15.557863874397844;15.98931498659573;0.5149076221443609;-0.97021484375;0.12451171875;-0.560546875;-13.1875;-6.0625;4.5;
1441975997818096;0.26123046875;-0.76849365234375;-0.3380126953125;-0.4764404296875;15.53422357353259;15.978318752945107;0.5486806579751857;-0.951171875;0.16650390625;-0.47509765625;-34.0;7.0;3.875;
1441975997856098;0.265380859375;-0.76776123046875;-0.34185791015625;-0.47265625;15.510472332911636;15.969376347206408;0.5777539155846224;-0.93017578125;0.1552734375;-0.38427734375;-45.5625;14.25;4.8125;
1441975997862098;0.2674560546875;-0.7672119140625;-0.34429931640625;-0.47052001953125;15.49686425301073;15.958916602640628;0.589028762120713;-0.9423828125;0.1142578125;-0.33544921875;-39.375;16.8125;9.25;
1441975997877099;0.2681884765625;-0.76708984375;-0.34564208984375;-0.46929931640625;15.486744515303013;15.950884406459576;0.5911879963494527;-0.93896484375;0.13916015625;-0.2841796875;-23.0625;11.375;10.125;
1441975997899100;0.27044677734375;-0.76654052734375;-0.3468017578125;-0.46807861328125;15.483667492422473;15.954355778778492;0.6106342921259753;-0.93115234375;0.2587890625;-0.31298828125;-10.4375;5.375;4.375;
1441975997915101;0.27410888671875;-0.76556396484375;-0.34808349609375;-0.466552734375;15.484018987028444;15.965569760974835;0.6448489473262451;-0.91064453125;0.2783203125;-0.380859375;-15.125;2.75;-5.3125;
1441975997937102;0.27984619140625;-0.76373291015625;-0.34991455078125;-0.46478271484375;15.492115132709536;15.983424638678379;0.6974796380503808;-0.92919921875;0.3193359375;-0.46337890625;-21.8125;0.9375;-13.25;
1441975997959104;0.28765869140625;-0.76043701171875;-0.3526611328125;-0.46337890625;15.516766048980987;16.00188878750224;0.7638162975110019;-0.9052734375;0.349609375;-0.5458984375;-32.3125;-2.9375;-24.1875;
1441975997975105;0.29693603515625;-0.7554931640625;-0.35601806640625;-0.4630126953125;15.56398513398372;16.019723120587656;0.8382510821962859;-0.87109375;0.361328125;-0.58984375;-44.9375;-9.1875;-36.0;
1441975997997106;0.307373046875;-0.74920654296875;-0.35992431640625;-0.46343994140625;15.628896472918251;16.03783884278605;0.9201579470036502;-0.84765625;0.3583984375;-0.5703125;-52.4375;-15.875;-46.125;
1441975998020107;0.3193359375;-0.7421875;-0.36358642578125;-0.4637451171875;15.70018522114512;16.072350362737087;1.0246479206245886;-0.81884765625;0.34130859375;-0.51025390625;-58.625;-19.0625;-53.4375;
1441975998035108;0.33282470703125;-0.73480224609375;-0.36614990234375;-0.46405029296875;15.775769844203106;16.136968350547715;1.1613423262177411;-0.7890625;0.31591796875;-0.50146484375;-63.25;-17.3125;-61.8125;
1441975998057109;0.345703125;-0.72735595703125;-0.36785888671875;-0.46490478515625;15.85331518211072;16.213715210611873;1.303745914446767;-0.81005859375;0.232421875;-0.46484375;-64.1875;-10.75;-66.625;
1441975998081111;0.35650634765625;-0.720458984375;-0.3697509765625;-0.466064453125;15.924654243348979;16.277468053433097;1.424500069679394;-0.89599609375;0.20068359375;-0.43408203125;-58.125;-9.25;-65.0625;
1441975998095112;0.36578369140625;-0.71368408203125;-0.3717041015625;-0.4676513671875;15.995657313944243;16.332284547428518;1.5298683115658362;-0.9033203125;0.23046875;-0.40380859375;-49.9375;-12.1875;-58.875;
1441975998117113;0.3740234375;-0.70751953125;-0.37371826171875;-0.46893310546875;16.05751935445596;16.381682482953714;1.6256462134220846;-0.9150390625;0.22998046875;-0.3759765625;-44.375;-15.4375;-53.25;
1441975998140114;0.3817138671875;-0.70233154296875;-0.3756103515625;-0.46905517578125;16.100531063825166;16.430765563654937;1.7191107067100533;-0.9111328125;0.2216796875;-0.3798828125;-41.25;-15.5625;-47.125;
1441975998163115;0.3900146484375;-0.69696044921875;-0.37799072265625;-0.46832275390625;16.136686973968683;16.481131318321996;1.8199065957083957;-0.89892578125;0.26513671875;-0.416015625;-38.9375;-12.25;-44.5;
1441975998177116;0.39837646484375;-0.6920166015625;-0.380126953125;-0.4669189453125;16.1623088185988;16.53721037273116;1.9262942557049474;-0.91357421875;0.24853515625;-0.40625;-45.0625;-8.3125;-43.3125;
1441975998201118;0.40673828125;-0.68731689453125;-0.382080078125;-0.4649658203125;16.179649093252273;16.596686535311445;2.036124268183027;-0.88427734375;0.25;-0.41259765625;-44.375;-4.875;-42.75;
1441975998222119;0.41497802734375;-0.68328857421875;-0.3834228515625;-0.46258544921875;16.18600348035641;16.663472957941813;2.1502027594427604;-0.88330078125;0.25048828125;-0.421875;-44.5;-2.25;-41.9375;
1441975998237120;0.42303466796875;-0.6795654296875;-0.38433837890625;-0.46002197265625;16.18618061857514;16.73397095272034;2.2656456898984323;-0.90185546875;0.23486328125;-0.453125;-41.4375;0.625;-40.0625;
1441975998260121;0.43109130859375;-0.67584228515625;-0.38555908203125;-0.45697021484375;16.180986895536922;16.798183509542866;2.3769863750108406;-0.888671875;0.2314453125;-0.47607421875;-39.25;1.375;-39.3125;
1441975998282122;0.43951416015625;-0.67181396484375;-0.3876953125;-0.45306396484375;16.17076428272729;16.84985046939417;2.4828416663941533;-0.8779296875;0.23779296875;-0.49853515625;-41.5625;1.0;-38.5;
1441975998298123;0.4482421875;-0.66741943359375;-0.39080810546875;-0.44830322265625;16.15668703518119;16.887186253335898;2.581590932649898;-0.87158203125;0.248046875;-0.498046875;-48.1875;2.1875;-37.125;
1441975998320124;0.45782470703125;-0.66229248046875;-0.39471435546875;-0.4427490234375;16.140943708043576;16.919387445933232;2.684404583353009;-0.88671875;0.2578125;-0.4990234375;-55.5;3.1875;-35.75;
1441975998342126;0.46728515625;-0.6573486328125;-0.3980712890625;-0.43719482421875;16.121704342732052;16.95611633852637;2.7891394490879913;-0.91845703125;0.19140625;-0.4736328125;-65.0625;7.1875;-32.625;
1441975998357127;0.47625732421875;-0.65234375;-0.40142822265625;-0.431884765625;16.104972063137524;16.987910047076603;2.8869352224580167;-0.95703125;0.1279296875;-0.46923828125;-64.0;10.125;-28.5;
1441975998380128;0.48382568359375;-0.64764404296875;-0.4044189453125;-0.42779541015625;16.097321392311002;17.015229077719983;2.970683229897555;-0.99462890625;0.056640625;-0.45654296875;-63.0;10.0;-22.5;
1441975998402129;0.48883056640625;-0.644287109375;-0.40679931640625;-0.4249267578125;16.093663153714648;17.027614958027254;3.0227465401828826;-1.0;-0.02685546875;-0.43994140625;-55.875;5.25;-14.5;
1441975998417130;0.49169921875;-0.6422119140625;-0.40838623046875;-0.42315673828125;16.092231088630452;17.03150901681939;3.050815993791894;-0.99169921875;-0.0478515625;-0.43701171875;-41.375;-0.125;-4.875;
1441975998440131;0.49224853515625;-0.641357421875;-0.40985107421875;-0.42242431640625;16.095852967881534;17.01629706424803;3.0461312967883387;-0.99609375;-0.046875;-0.44287109375;-26.875;-4.375;2.375;
1441975998469133;0.49127197265625;-0.64117431640625;-0.4112548828125;-0.4224853515625;16.10454583287104;16.989116300860548;3.020613205317188;-0.96826171875;-0.0068359375;-0.39892578125;-14.25;-7.9375;8.6875;
1441975998477133;0.48876953125;-0.64178466796875;-0.41241455078125;-0.42333984375;16.116573411943683;16.951625375034435;2.975025710384958;-0.93359375;-0.0029296875;-0.33740234375;-5.75;-9.3125;13.75;
1441975998500135;0.48480224609375;-0.64324951171875;-0.4130859375;-0.42498779296875;16.13020309982733;16.907065790102788;2.911880097195999;-0.87060546875;-0.0078125;-0.27392578125;3.3125;-10.5;19.25;
1441975998521136;0.47918701171875;-0.6458740234375;-0.41375732421875;-0.4267578125;16.138983180837773;16.842465415591636;2.8201351827351835;-0.8125;-0.01416015625;-0.2080078125;12.9375;-10.875;24.1875;
1441975998537137;0.47265625;-0.64910888671875;-0.41485595703125;-0.42803955078125;16.140407785120924;16.75828707132271;2.7069552393402483;-0.759765625;0.0302734375;-0.14404296875;21.8125;-9.1875;29.9375;
1441975998560138;0.4656982421875;-0.65301513671875;-0.416015625;-0.4285888671875;16.129239468051445;16.664799650675786;2.5834606269396403;-0.74462890625;0.0751953125;-0.08251953125;23.8125;-5.5;34.6875;
1441975998582139;0.45867919921875;-0.65692138671875;-0.4173583984375;-0.4288330078125;16.11325553287672;16.56850977079989;2.458331566125579;-0.763671875;0.11181640625;-0.03515625;25.1875;0.625;38.1875;
1441975998597140;0.45172119140625;-0.66070556640625;-0.41888427734375;-0.428955078125;16.094685879979448;16.472040944958035;2.3344192724203503;-0.81103515625;0.13134765625;0.0068359375;24.875;4.9375;39.6875;
1441975998620142;0.44451904296875;-0.66424560546875;-0.421142578125;-0.4288330078125;16.074127900931444;16.364673979582772;2.202413917847255;-0.84423828125;0.13623046875;0.04296875;23.6875;7.6875;40.375;
1441975998642143;0.4376220703125;-0.66778564453125;-0.423583984375;-0.42803955078125;16.044661302292518;16.259367997804727;2.075738916810902;-0.86572265625;0.173828125;0.091796875;21.625;8.9375;41.5625;
1441975998657144;0.431884765625;-0.6710205078125;-0.42645263671875;-0.42596435546875;16.00387986611312;16.161420273459445;1.9655657639987831;-0.87646484375;0.20947265625;0.123046875;19.5;13.875;41.125;
1441975998680145;0.42779541015625;-0.67340087890625;-0.42987060546875;-0.4228515625;15.959065386906486;16.074359291517947;1.8781860931602306;-0.9189453125;0.25537109375;0.12744140625;12.4375;21.0625;38.5;
1441975998702146;0.4254150390625;-0.6744384765625;-0.43426513671875;-0.41912841796875;15.918698349559143;15.992145849856417;1.8093228846023484;-0.986328125;0.25390625;0.12109375;1.25;25.9375;35.6875;
1441975998717147;0.42413330078125;-0.674560546875;-0.439453125;-0.414794921875;15.879520688109078;15.910962038256793;1.751523813406616;-1.02392578125;0.22705078125;0.13037109375;-11.375;28.4375;33.0625;
1441975998740148;0.42352294921875;-0.67401123046875;-0.44512939453125;-0.4102783203125;15.843283641252679;15.830867844657465;1.7007796883318222;-1.029296875;0.19873046875;0.13232421875;-21.5;29.6875;32.6875;
1441975998762150;0.42303466796875;-0.673095703125;-0.4510498046875;-0.40570068359375;15.808200149189659;15.750155859893185;1.6517349066613658;-1.00634765625;0.16796875;0.134765625;-27.3125;28.5625;32.625;
1441975998777151;0.42236328125;-0.67242431640625;-0.4569091796875;-0.40093994140625;15.768458739997262;15.671236686450197;1.6035821354274489;-0.95556640625;0.14013671875;0.150390625;-29.875;27.375;33.5;
1441975998800152;0.4217529296875;-0.671875;-0.46307373046875;-0.3953857421875;15.719818421571398;15.591964095034243;1.558052032916791;-0.89794921875;0.140625;0.1533203125;-29.125;27.375;34.875;
1441975998821153;0.42138671875;-0.671142578125;-0.46966552734375;-0.38922119140625;15.666373894502986;15.512058288917649;1.516182334161215;-0.86572265625;0.177734375;0.13525390625;-31.25;28.0;35.8125;
1441975998837154;0.42138671875;-0.66973876953125;-0.4769287109375;-0.38275146484375;15.614330516517441;15.428273276171018;1.4763962365315244;-0.85791015625;0.2109375;0.107421875;-35.6875;27.5625;35.1875;
1441975998860155;0.42181396484375;-0.66754150390625;-0.48455810546875;-0.37646484375;15.569160342252665;15.343603814519684;1.4399481959542486;-0.85498046875;0.23193359375;0.07861328125;-41.4375;24.4375;34.0;
1441975998882157;0.422119140625;-0.664794921875;-0.49237060546875;-0.3707275390625;15.531115624815385;15.25578805349323;1.4006221102964376;-0.8583984375;0.236328125;0.03759765625;-46.6875;19.3125;31.4375;
1441975998897157;0.42230224609375;-0.6617431640625;-0.5;-0.36578369140625;15.500909755321258;15.168960381175415;1.3600572334349594;-0.8603515625;0.236328125;0.01416015625;-47.6875;13.4375;30.3125;
1441975998920159;0.421875;-0.65899658203125;-0.50732421875;-0.36114501953125;15.468739423683605;15.083183633281307;1.31607593710871;-0.841796875;0.216796875;0.00830078125;-46.3125;8.75;29.125;
1441975998943160;0.42108154296875;-0.6563720703125;-0.5145263671875;-0.35662841796875;15.434631119324395;14.997979491479649;1.2705382713368678;-0.828125;0.24169921875;-0.01318359375;-42.5625;5.3125;29.1875;
1441975998957161;0.41998291015625;-0.6534423828125;-0.521728515625;-0.3529052734375;15.407104095135654;14.909852329493608;1.2198157375505643;-0.82177734375;0.27294921875;-0.04150390625;-41.0625;1.5;28.8125;
1441975998980162;0.41796875;-0.6505126953125;-0.52874755859375;-0.35015869140625;15.38340543038344;14.817084654155598;1.1583793485595923;-0.826171875;0.2783203125;-0.06640625;-40.25;-4.8125;27.375;
1441975999003163;0.41473388671875;-0.6483154296875;-0.53558349609375;-0.3477783203125;15.351935552393373;14.72207985482313;1.0873545035849845;-0.8564453125;0.30615234375;-0.07666015625;-35.625;-11.375;27.375;
1441975999017164;0.4093017578125;-0.64752197265625;-0.54193115234375;-0.3458251953125;15.304957955296093;14.625491439611839;1.0014239297995386;-0.8974609375;0.32080078125;-0.09912109375;-30.125;-16.375;33.0625;
1441975999040166;0.40252685546875;-0.6483154296875;-0.54766845703125;-0.34320068359375;15.235589650491313;14.538944959365164;0.9170344545407944;-0.9208984375;0.35498046875;-0.0625;-17.4375;-18.5625;41.5625;
1441975999063167;0.3948974609375;-0.649658203125;-0.55450439453125;-0.3385009765625;15.136780763399221;14.449527878865437;0.8349335535085484;-0.9404296875;0.451171875;-0.06640625;-8.3125;-16.4375;47.125;
1441975999085168;0.3870849609375;-0.6500244140625;-0.563232421875;-0.3323974609375;15.02381822600866;14.347003026241847;0.751838469250399;-0.93994140625;0.58984375;-0.05712890625;-12.625;-13.0;53.125;
1441975999100169;0.3775634765625;-0.6505126953125;-0.57293701171875;-0.32574462890625;14.891113225070775;14.236783246070441;0.6601949958275548;-0.93017578125;0.59765625;-0.033203125;-24.9375;-13.375;60.75;
1441975999129171;0.364990234375;-0.6529541015625;-0.58221435546875;-0.318603515625;14.724916261120926;14.135789787388521;0.5630735975546562;-0.94384765625;0.5625;-0.00439453125;-26.125;-18.125;75.625;
1441975999144172;0.350830078125;-0.65728759765625;-0.59075927734375;-0.309814453125;14.525658914578521;14.057041859495953;0.4804615011466559;-0.91455078125;0.61865234375;-0.01123046875;-14.1875;-23.25;90.1875;
1441975999160172;0.33624267578125;-0.6619873046875;-0.60015869140625;-0.29779052734375;14.29148833036493;13.988863389810053;0.4182316200043256;-0.85888671875;0.70361328125;-0.08056640625;-9.3125;-23.6875;105.0625;
1441975999183174;0.32122802734375;-0.66607666015625;-0.61090087890625;-0.282958984375;14.02943124571069;13.921111468077546;0.369618967406828;-0.85400390625;0.76708984375;-0.12109375;-17.6875;-15.0;120.125;
1441975999204175;0.30517578125;-0.669921875;-0.6220703125;-0.2667236328125;13.747815445037034;13.856164081212002;0.3272706525347153;-0.83740234375;0.79052734375;-0.1650390625;-30.125;-10.0625;132.75;
1441975999220176;0.287841796875;-0.674072265625;-0.6328125;-0.24981689453125;13.450957449265243;13.799260896071228;0.2892126739708048;-0.81640625;0.75537109375;-0.17578125;-34.0;-9.625;143.0625;
1441975999243177;0.26983642578125;-0.678466796875;-0.64251708984375;-0.2325439453125;13.14734822718814;13.7535283222546;0.2577477335199793;-0.71728515625;0.708984375;-0.16259765625;-30.6875;-10.5;150.5625;
1441975999264178;0.25177001953125;-0.68170166015625;-0.65252685546875;-0.21490478515625;12.842759574761935;13.70542060548144;0.2298875760519339;-0.6123046875;0.6533203125;-0.2060546875;-26.125;-9.875;153.9375;
1441975999280179;0.23431396484375;-0.68341064453125;-0.6632080078125;-0.19580078125;12.533414167413076;13.653759505892978;0.21280493826834515;-0.54248046875;0.67431640625;-0.2392578125;-32.75;-11.1875;153.5;
1441975999303181;0.2178955078125;-0.68170166015625;-0.67596435546875;-0.17584228515625;12.229642985136623;13.582523155887053;0.20131076426422284;-0.50439453125;0.71728515625;-0.21630859375;-44.0625;-6.0;155.375;
1441975999324182;0.20361328125;-0.67724609375;-0.68927001953125;-0.1575927734375;11.961192931714466;13.500632632753563;0.19305076298148774;-0.4384765625;0.6298828125;-0.2197265625;-67.625;-5.25;152.75;
1441975999340183;0.19097900390625;-0.672119140625;-0.7010498046875;-0.142578125;11.734988062611796;13.42393199335174;0.18336100952594706;-0.40673828125;0.51513671875;-0.18310546875;-80.5625;-6.9375;135.9375;
1441975999363184;0.182373046875;-0.668701171875;-0.70904541015625;-0.13018798828125;11.563809667277667;13.375178933252236;0.18850960340214729;-0.35595703125;0.48681640625;-0.181640625;-75.0625;-11.375;114.625;
1441975999384185;0.17681884765625;-0.66375732421875;-0.716552734375;-0.12152099609375;11.450033875192933;13.322407883283327;0.19084378237538013;-0.3642578125;0.4951171875;-0.20458984375;-65.125;-5.9375;93.8125;
1441975999400186;0.173828125;-0.65679931640625;-0.72430419921875;-0.11761474609375;11.397177629089766;13.258791737735296;0.1818381853188996;-0.375;0.4677734375;-0.1923828125;-67.5625;-7.875;66.9375;
1441975999423187;0.174560546875;-0.6484375;-0.73150634765625;-0.11846923828125;11.41415137964275;13.191160060151866;0.1666592567142512;-0.37109375;0.4619140625;-0.11279296875;-69.75;-15.3125;36.4375;
1441975999444189;0.1800537109375;-0.638916015625;-0.7374267578125;-0.1251220703125;11.517604335946514;13.122817362231288;0.14421033902251615;-0.330078125;0.4560546875;-0.02685546875;-66.5;-16.125;-2.0;
1441975999460190;0.19049072265625;-0.62591552734375;-0.7435302734375;-0.138427734375;11.716365194678751;13.034495896730064;0.10502514705023404;-0.33251953125;0.50439453125;0.0830078125;-57.9375;-14.125;-48.0625;
1441975999483191;0.2041015625;-0.61138916015625;-0.7490234375;-0.15362548828125;11.95747531704064;12.93919642562809;0.06401010291468226;-0.4423828125;0.53173828125;0.18359375;-65.125;-18.6875;-93.1875;
1441975999504192;0.22216796875;-0.5987548828125;-0.75054931640625;-0.169921875;12.247590721863368;12.868988975815736;0.03728097992356346;-0.4814453125;0.55810546875;0.2763671875;-73.0625;-13.3125;-122.9375;
1441975999528193;0.24542236328125;-0.58514404296875;-0.7506103515625;-0.18463134765625;12.576265009295732;12.805284710236293;0.03545099547720033;-0.53076171875;0.56591796875;0.24560546875;-55.0;8.25;-144.375;
1441975999543194;0.2735595703125;-0.56884765625;-0.75067138671875;-0.19537353515625;12.926576749466264;12.739065722880326;0.06625114396065633;-0.56201171875;0.72802734375;0.19677734375;-62.4375;36.1875;-160.125;
1441975999564196;0.3016357421875;-0.55242919921875;-0.75091552734375;-0.20013427734375;13.238160711462516;12.683276699213502;0.12683837418438743;-0.6806640625;0.75732421875;0.1630859375;-85.4375;66.9375;-163.0;
1441975999580196;0.32818603515625;-0.5369873046875;-0.7513427734375;-0.19879150390625;13.495814011318064;12.645495657169961;0.217762991303937;-0.73681640625;0.88671875;0.16064453125;-96.875;86.0;-138.75;
1441975999603198;0.3538818359375;-0.52325439453125;-0.75030517578125;-0.195068359375;13.732008437754482;12.633302393476027;0.32872315629354987;-0.484375;0.7529296875;0.0966796875;-102.1875;99.25;-108.0625;
1441975999632199;0.3785400390625;-0.5120849609375;-0.74542236328125;-0.19720458984375;14.001953350618384;12.644630966278303;0.41918583820836974;-0.544921875;0.39453125;-0.025390625;-93.9375;106.25;-89.0625;
1441975999640200;0.39935302734375;-0.50836181640625;-0.73406982421875;-0.2080078125;14.29167554299973;12.709869389748167;0.48041318118217924;-0.873046875;-0.05615234375;-0.115234375;-57.6875;92.875;-101.3125;
1441975999663201;0.415771484375;-0.5074462890625;-0.720458984375;-0.22503662109375;14.583486334158009;12.781759476421808;0.5009317512465565;-1.15576171875;-0.02587890625;-0.23046875;15.25;71.125;-116.125;
1441975999684202;0.42926025390625;-0.50726318359375;-0.70623779296875;-0.244384765625;14.86703056450291;12.850336049870672;0.5000617210328062;-1.1630859375;0.16845703125;-0.17138671875;52.9375;44.125;-129.125;
1441975999700203;0.43939208984375;-0.5089111328125;-0.690673828125;-0.2664794921875;15.141356538480862;12.921443737265522;0.475861265168001;-1.06884765625;0.275390625;-0.025390625;68.5;30.625;-132.9375;
1441975999722205;0.44488525390625;-0.51239013671875;-0.6737060546875;-0.292724609375;15.407820103310655;12.978764351127843;0.40428990294350187;-1.00146484375;0.35107421875;0.07763671875;92.0625;16.5;-133.75;
1441975999744206;0.4442138671875;-0.51898193359375;-0.65472412109375;-0.32354736328125;15.656213765882612;13.017484100494695;0.2698327412722361;-0.9599609375;0.37158203125;0.12255859375;121.5625;-6.1875;-135.6875;
1441975999760207;0.43743896484375;-0.52862548828125;-0.6334228515625;-0.3577880859375;15.881322323267856;13.03474369266102;0.07309346175312645;-0.99267578125;0.39697265625;0.08544921875;160.875;-33.375;-132.0;
1441975999782208;0.42462158203125;-0.54095458984375;-0.610107421875;-0.3935546875;16.071217710466666;13.027983397242085;17.819325363346998;-1.00634765625;0.4658203125;0.06884765625;199.4375;-55.0;-124.5625;
1441975999804209;0.40771484375;-0.5557861328125;-0.58514404296875;-0.42724609375;16.217563925456876;13.031840677393982;17.56033523906668;-0.98828125;0.57275390625;0.0322265625;231.25;-71.5625;-111.75;
1441975999820210;0.38751220703125;-0.57354736328125;-0.55963134765625;-0.45587158203125;16.304478493121735;13.08717672663581;17.348817816753993;-0.9423828125;0.6083984375;0.03662109375;249.25;-69.0625;-90.9375;
1441975999842211;0.36700439453125;-0.58978271484375;-0.53662109375;-0.4791259765625;16.353392096990973;13.145495142106993;17.166519443897357;-0.93310546875;0.75341796875;-0.0693359375;256.5;-57.625;-60.625;
1441975999873213;0.34857177734375;-0.6024169921875;-0.51776123046875;-0.49761962890625;16.382119352258023;13.177612361885565;16.999829706599073;-0.9248046875;0.75439453125;-0.06640625;232.125;-49.875;-39.25;
1441975999881214;0.33538818359375;-0.60943603515625;-0.50518798828125;-0.5108642578125;16.40402893692293;13.162726837318969;16.850865154154757;-0.88818359375;0.85546875;-0.13037109375;191.4375;-47.3125;-29.875;
1441975999902215;0.32568359375;-0.61492919921875;-0.49853515625;-0.51708984375;16.385371209767325;13.172649467242866;16.77847147836176;-0.8173828125;0.84130859375;-0.1455078125;126.9375;-42.1875;-25.875;
1441975999931217;0.31573486328125;-0.62017822265625;-0.49005126953125;-0.5250244140625;16.38555856177603;13.174889437281994;16.687983473411727;-0.78662109375;0.61474609375;-0.1806640625;74.8125;-34.8125;-19.5625;
1441975999940217;0.297607421875;-0.630615234375;-0.4776611328125;-0.534423828125;16.34011861541429;13.22356215887751;16.587717332137224;-0.8916015625;0.173828125;-0.158203125;85.375;-37.6875;2.5;
1441975999963218;0.27105712890625;-0.6490478515625;-0.459716796875;-0.54217529296875;16.236147329446194;13.400158220566547;16.552924860817992;-1.021484375;0.01708984375;-0.1953125;144.0;-34.25;24.0625;
1441975999993220;0.24041748046875;-0.6708984375;-0.439453125;-0.546875;16.091040344644657;13.637687459316698;16.55510563006911;-1.0537109375;0.19775390625;-0.298828125;208.5625;-18.875;53.25;
1441976000000220;0.2109375;-0.69085693359375;-0.42205810546875;-0.5478515625;15.922506831598104;13.852233604405354;16.558993930311782;-0.97314453125;0.541015625;-0.34521484375;233.6875;-4.1875;69.0;
1441976000022222;0.18255615234375;-0.7086181640625;-0.4058837890625;-0.54754638671875;15.754529869954128;14.03500597019568;16.54504138340821;-0.94091796875;0.6083984375;-0.22021484375;210.1875;5.9375;79.5625;
1441976000045223;0.1575927734375;-0.72259521484375;-0.39385986328125;-0.54583740234375;15.591461654906421;14.165205221792025;16.514910569564368;-0.8896484375;0.67529296875;-0.119140625;195.875;7.0625;78.9375;
1441976000066224;0.13671875;-0.73419189453125;-0.3843994140625;-0.542724609375;15.442205039286897;14.275239528949339;16.495309500578347;-0.93115234375;0.62646484375;0.0517578125;159.1875;7.8125;78.5625;
1441976000083225;0.11590576171875;-0.75067138671875;-0.37335205078125;-0.53271484375;15.240324776540408;14.469176188094163;16.55598160474592;-1.10009765625;0.359375;0.22900390625;130.125;16.3125;77.125;
1441976000105226;0.09423828125;-0.7685546875;-0.36572265625;-0.5164794921875;14.962821305833941;14.65913864909246;16.62855407484502;-1.30078125;0.22509765625;0.27978515625;142.1875;63.875;94.4375;
1441976000128228;0.0718994140625;-0.7864990234375;-0.3590087890625;-0.49749755859375;14.651910514638463;14.831823112456146;16.686994164573893;-1.39453125;0.41748046875;0.19677734375;129.6875;90.75;121.6875;
1441976000142229;0.0498046875;-0.80621337890625;-0.35260009765625;-0.47259521484375;14.284845787958366;15.015273508053182;16.76200449231669;-1.1474609375;0.625;-0.06103515625;125.0;97.8125;128.75;
1441976000166230;0.03839111328125;-0.8233642578125;-0.35931396484375;-0.43780517578125;13.845185193643056;15.136248972743152;16.88649642240348;-0.82470703125;0.85205078125;-0.69580078125;120.375;120.125;136.375;
1441976000194232;0.02935791015625;-0.835205078125;-0.37164306640625;-0.40435791015625;13.420500513819652;15.180411714928987;16.973060972977784;-0.65380859375;1.1552734375;-0.7578125;24.5;176.6875;137.625;
1441976000202232;0.019775390625;-0.8475341796875;-0.379638671875;-0.37054443359375;13.001790869942983;15.240641073999406;17.056098645880457;-0.6259765625;0.78271484375;-0.5908203125;-19.5;163.375;142.125;
1441976000225233;0.01593017578125;-0.85467529296875;-0.39385986328125;-0.33807373046875;12.618189064183548;15.242544427635298;17.13865103550196;-0.337890625;0.8037109375;-0.49658203125;5.0;165.875;133.0;
1441976000246235;0.01873779296875;-0.85699462890625;-0.40838623046875;-0.3138427734375;12.358615849039687;15.215143498110068;17.21935141470162;-0.09716796875;0.763671875;-0.56787109375;-49.5625;157.75;113.9375;
1441976000262235;0.0242919921875;-0.856689453125;-0.4219970703125;-0.29583740234375;12.182501468597327;15.174574260123443;17.29134715448631;9.765625E-4;0.51904296875;-0.408203125;-74.1875;124.375;64.375;
1441976000286237;0.02789306640625;-0.85504150390625;-0.434814453125;-0.2813720703125;12.035603042536573;15.124816469511165;17.34025841611214;-0.25732421875;0.52392578125;-0.3876953125;-81.625;93.5;32.5625;
1441976000306238;0.0330810546875;-0.85211181640625;-0.4476318359375;-0.2694091796875;11.925380335884318;15.068483779201177;17.38860625424652;-0.19677734375;0.515625;-0.41455078125;-79.4375;66.5;30.875;
1441976000322239;0.04107666015625;-0.84808349609375;-0.4591064453125;-0.26141357421875;11.875692751808893;15.013078013142842;17.43975685639616;-0.14794921875;0.599609375;-0.45703125;-85.3125;53.5625;11.9375;
1441976000345240;0.05181884765625;-0.8447265625;-0.46697998046875;-0.25653076171875;11.879861496033026;14.977988276034107;17.5004858558661;-0.21435546875;0.55517578125;-0.4921875;-89.3125;41.375;-8.75;
1441976000366241;0.06500244140625;-0.84112548828125;-0.4736328125;-0.25299072265625;11.915305245558159;14.949884913956165;17.57099500965841;-0.2861328125;0.4765625;-0.5439453125;-78.875;35.375;-28.9375;
1441976000382242;0.079345703125;-0.83673095703125;-0.48016357421875;-0.251220703125;11.97729834585201;14.91951028920544;17.64108513034659;-0.4208984375;0.57861328125;-0.59130859375;-77.0;37.5;-42.8125;
1441976000405244;0.09417724609375;-0.83209228515625;-0.48486328125;-0.25250244140625;12.076295075117255;14.896019749132119;17.705694485811183;-0.47607421875;0.54345703125;-0.5888671875;-80.5625;32.0625;-49.875;
1441976000426245;0.10784912109375;-0.827880859375;-0.4873046875;-0.25628662109375;12.1963034553979;14.882851346067733;17.759310103976734;-0.5419921875;0.47802734375;-0.56591796875;-72.75;21.0625;-58.0;
1441976000442246;0.12054443359375;-0.82373046875;-0.48828125;-0.26190185546875;12.330882924732236;14.87549969927542;17.80388288326445;-0.56396484375;0.48876953125;-0.529296875;-55.5625;8.8125;-62.9375;
1441976000465247;0.13262939453125;-0.81884765625;-0.48968505859375;-0.2686767578125;12.474032052910115;14.861865735376401;17.839815636114135;-0.5849609375;0.54248046875;-0.51806640625;-43.5;-1.875;-67.3125;
1441976000486248;0.1441650390625;-0.81396484375;-0.49029541015625;-0.27630615234375;12.623796238853465;14.851563524100014;17.87120070546749;-0.61669921875;0.53662109375;-0.47607421875;-44.1875;-9.1875;-67.25;
1441976000502249;0.1551513671875;-0.80963134765625;-0.4893798828125;-0.28472900390625;12.779385561216934;14.85085164321171;17.90047747120836;-0.6259765625;0.50634765625;-0.45751953125;-38.6875;-13.9375;-67.5625;
1441976000525251;0.1636962890625;-0.80694580078125;-0.48626708984375;-0.292724609375;12.916545809357418;14.865731506932109;17.924264850921407;-0.68505859375;0.45361328125;-0.4189453125;-27.8125;-15.25;-65.75;
1441976000554252;0.17059326171875;-0.80462646484375;-0.48309326171875;-0.30035400390625;13.039807851359168;14.880275879760017;17.941055265321744;-0.69873046875;0.52197265625;-0.40673828125;-6.5;-15.0625;-59.125;
1441976000562253;0.17626953125;-0.80224609375;-0.48052978515625;-0.3074951171875;13.150547767477368;14.889516471023692;17.95142940263661;-0.6962890625;0.60400390625;-0.3779296875;0.875;-17.3125;-55.125;
1441976000586254;0.18048095703125;-0.80010986328125;-0.47833251953125;-0.31378173828125;13.243650168591135;14.895617134358172;17.95584509515814;-0.71044921875;0.60205078125;-0.34716796875;0.875;-17.375;-47.4375;
1441976000606255;0.18389892578125;-0.79803466796875;-0.47637939453125;-0.320068359375;13.33160331518296;14.89865498115039;17.954986271240085;-0.6962890625;0.6201171875;-0.31494140625;3.8125;-16.8125;-40.5;
1441976000622256;0.18524169921875;-0.79803466796875;-0.4725341796875;-0.3250732421875;13.393261249596687;14.918384398307133;17.95402703042302;-0.716796875;0.61181640625;-0.25048828125;6.9375;-16.1875;-35.4375;
1441976000645257;0.18505859375;-0.79962158203125;-0.4681396484375;-0.3275146484375;13.418672053488091;14.947971330424162;17.957287268150015;-0.69970703125;0.60107421875;-0.25634765625;23.375;-10.6875;-25.3125;
1441976000666259;0.18438720703125;-0.8011474609375;-0.46514892578125;-0.3284912109375;13.425083733798145;14.96953344981899;17.9594003683901;-0.6923828125;0.67919921875;-0.287109375;31.5;-1.375;-15.1875;
1441976000682259;0.18292236328125;-0.80242919921875;-0.46331787109375;-0.3287353515625;13.418823064807325;14.98188561318179;17.95584101595379;-0.681640625;0.69921875;-0.30322265625;23.875;1.5;-7.8125;
1441976000705261;0.18109130859375;-0.80377197265625;-0.46197509765625;-0.32843017578125;13.40427061795814;14.991256610892838;17.950820701858262;-0.68310546875;0.71044921875;-0.29541015625;19.625;2.1875;-0.9375;
1441976000718262;0.17889404296875;-0.8052978515625;-0.4608154296875;-0.32745361328125;13.380540075037173;15.00024300322189;17.945756227655547;-0.68212890625;0.7080078125;-0.27490234375;18.5625;4.1875;3.4375;
1441976000741263;0.17633056640625;-0.80694580078125;-0.4600830078125;-0.32574462890625;13.346745544775318;15.007165114562573;17.94015464357585;-0.66943359375;0.70068359375;-0.2900390625;17.8125;5.4375;7.25;
1441976000756264;0.1739501953125;-0.80841064453125;-0.4599609375;-0.3236083984375;13.309324878326619;15.010665059692968;17.93547243771809;-0.66064453125;0.7021484375;-0.28955078125;15.75;8.0625;11.875;
1441976000778265;0.171630859375;-0.8099365234375;-0.45989990234375;-0.321044921875;13.267947009134573;15.01480761762016;17.93267088392863;-0.65771484375;0.67919921875;-0.29833984375;10.875;8.875;14.25;
1441976000801266;0.16925048828125;-0.81109619140625;-0.46075439453125;-0.3182373046875;13.223290081461913;15.012119407526477;17.927639670189084;-0.65234375;0.66845703125;-0.31298828125;9.75;10.75;16.25;
1441976000816267;0.1673583984375;-0.8118896484375;-0.46185302734375;-0.31561279296875;13.183696320572327;15.007536560775105;17.923940403384794;-0.650390625;0.68359375;-0.3125;4.5;10.5;18.0625;
1441976000838268;0.16558837890625;-0.812744140625;-0.462646484375;-0.3131103515625;13.146330665696933;15.00522496555688;17.92140795329418;-0.646484375;0.6318359375;-0.310546875;0.375;10.0;18.125;
1441976000861270;0.16448974609375;-0.81304931640625;-0.46405029296875;-0.31085205078125;13.115421266385471;14.998395044784255;17.919998337480845;-0.6259765625;0.62109375;-0.32470703125;0.875;9.0625;16.625;
1441976000884271;0.16387939453125;-0.8128662109375;-0.466064453125;-0.30877685546875;13.089204325595862;14.986949827358277;17.918919491801656;-0.64111328125;0.615234375;-0.33154296875;-4.625;8.5;14.6875;
1441976000898272;0.16357421875;-0.8125;-0.4678955078125;-0.3070068359375;13.068480350059975;14.97626137061126;17.918824724129784;-0.64404296875;0.6025390625;-0.32666015625;-10.0;7.75;13.8125;
1441976000921273;0.163330078125;-0.81231689453125;-0.4693603515625;-0.30535888671875;13.049386505686163;14.968455082208184;17.919774833542466;-0.6435546875;0.56005859375;-0.32373046875;-10.875;7.0625;12.9375;
1441976000936274;0.1629638671875;-0.812255859375;-0.47064208984375;-0.3037109375;13.029609233498388;14.961949967188502;17.920585737153417;-0.6376953125;0.57470703125;-0.3330078125;-9.0625;6.875;11.75;
1441976000958275;0.162353515625;-0.8125;-0.47137451171875;-0.3023681640625;13.011468623107335;14.95892846746673;17.920462037873346;-0.63916015625;0.57470703125;-0.33837890625;-7.625;6.5625;11.8125;
1441976000990277;0.16168212890625;-0.8128662109375;-0.471923828125;-0.30072021484375;12.990151768087367;14.95774706100624;17.921638603306036;-0.63818359375;0.57568359375;-0.34912109375;-4.375;5.1875;11.8125;
1441976000996277;0.161376953125;-0.8131103515625;-0.47271728515625;-0.29913330078125;12.971304138940559;14.955354639098271;17.924117156633745;-0.61962890625;0.60888671875;-0.37353515625;-3.625;5.5;10.5625;
1441976001020279;0.1611328125;-0.8133544921875;-0.47332763671875;-0.29766845703125;12.95431068883431;14.954023120780215;17.92691782702269;-0.61083984375;0.60107421875;-0.373046875;-5.75;5.375;8.9375;
1441976001041280;0.1610107421875;-0.81353759765625;-0.47381591796875;-0.2962646484375;12.939010252364158;14.95337457942822;17.930407152489817;-0.61279296875;0.61962890625;-0.376953125;-4.625;5.4375;7.8125;
1441976001056281;0.160888671875;-0.81378173828125;-0.4742431640625;-0.29498291015625;12.924769256265838;14.953135949527;17.93366643165122;-0.60498046875;0.625;-0.37890625;-4.375;4.9375;6.3125;
1441976001078282;0.16064453125;-0.81414794921875;-0.4744873046875;-0.29364013671875;12.909267962403149;14.954241517216817;17.93694998266429;-0.6025390625;0.6259765625;-0.37841796875;-3.625;4.875;5.5625;
1441976001101283;0.16015625;-0.8148193359375;-0.47430419921875;-0.29241943359375;12.893435144493157;14.958298945197457;17.939619044508508;-0.587890625;0.630859375;-0.37646484375;-2.4375;4.9375;5.5625;
1441976001116284;0.15924072265625;-0.81591796875;-0.47357177734375;-0.291015625;12.873274035013017;14.9664744397213;17.94205117016266;-0.5849609375;0.61669921875;-0.37451171875;0.8125;4.75;6.5;
1441976001138286;0.15826416015625;-0.81695556640625;-0.4732666015625;-0.28924560546875;12.848696224683602;14.972198345814697;17.944404941997796;-0.56884765625;0.6337890625;-0.37744140625;5.8125;5.0625;7.3125;
1441976001161287;0.1575927734375;-0.81756591796875;-0.4736328125;-0.2872314453125;12.823543690687101;14.973335956827482;17.94748319240036;-0.5673828125;0.67138671875;-0.376953125;4.25;6.625;7.5625;
1441976001176288;0.1571044921875;-0.8182373046875;-0.47393798828125;-0.2850341796875;12.797607928847384;14.975622790046026;17.952465708982963;-0.5517578125;0.67138671875;-0.36376953125;0.0625;7.5625;7.0;
1441976001198289;0.15667724609375;-0.8189697265625;-0.4742431640625;-0.28265380859375;12.770093953136735;14.978430071665347;17.9584874979344;-0.53564453125;0.67529296875;-0.36376953125;0.125;8.6875;5.9375;
1441976001221290;0.15643310546875;-0.81951904296875;-0.4747314453125;-0.2803955078125;12.744944146941956;14.979694659348699;17.964546647093133;-0.513671875;0.6904296875;-0.36865234375;0.0625;8.75;4.6875;
1441976001236291;0.1561279296875;-0.8199462890625;-0.475341796875;-0.27825927734375;12.72075260295919;14.979518654259984;17.96941482090266;-0.498046875;0.69091796875;-0.3779296875;-1.6875;8.0625;3.375;
1441976001258292;0.1561279296875;-0.820068359375;-0.4761962890625;-0.2763671875;12.701019585258164;14.977145508837273;17.974388978369554;-0.49072265625;0.67578125;-0.392578125;-3.5625;6.25;3.4375;
