1441975399157854;-0.92816162109375;-0.25579833984375;-0.26568603515625;-0.05047607421875;6.213753967290325;17.24732592771099;10.728521156768258;1.05712890625;2.16748046875;-0.16552734375;267.25;-73.1875;-93.125;
1441975399180856;-0.92681884765625;-0.24853515625;-0.26544189453125;-0.093994140625;6.355836572989986;17.000286076007054;10.738264819469947;1.099609375;1.3369140625;-0.130859375;-45.4375;-100.5;-57.0;
1441975399194856;-0.92340087890625;-0.2398681640625;-0.26727294921875;-0.13580322265625;6.463300234421635;16.760065737192186;10.73943034639243;1.138671875;0.3330078125;-0.06103515625;-238.4375;-81.25;-32.4375;
1441975399217858;-0.91937255859375;-0.2354736328125;-0.2686767578125;-0.1649169921875;6.539701454532289;16.589681170605733;10.750191504594147;0.984375;-0.10107421875;-0.10009765625;-241.875;-62.75;-28.125;
1441975399240859;-0.9156494140625;-0.23419189453125;-0.27691650390625;-0.1737060546875;6.4804622771062395;16.517050064064655;10.773300030536852;0.8974609375;-0.25927734375;-0.01513671875;-169.5;-42.375;-34.125;
1441975399254860;-0.91217041015625;-0.23834228515625;-0.28631591796875;-0.17108154296875;6.3848992664078565;16.501004575121236;10.820210464699668;0.95263671875;-0.24169921875;-0.06005859375;-78.3125;-14.5;-40.0625;
1441975399276861;-0.9083251953125;-0.24566650390625;-0.29730224609375;-0.16204833984375;6.258390089789524;16.512682485527414;10.884065943981366;0.95556640625;-0.09716796875;-0.1533203125;-6.3125;15.5625;-45.375;
1441975399300862;-0.9033203125;-0.2529296875;-0.31182861328125;-0.1512451171875;6.086835798330431;16.52190253514689;10.956438385158572;0.9755859375;0.06640625;-0.248046875;35.875;38.625;-46.4375;
1441975399314863;-0.89666748046875;-0.25830078125;-0.33099365234375;-0.14068603515625;5.860993918027278;16.51379934602288;11.033446468015102;0.99365234375;0.21044921875;-0.2998046875;45.0625;63.5625;-36.125;
1441975399337865;-0.8897705078125;-0.2633056640625;-0.34881591796875;-0.132080078125;5.65574417420998;16.494229716935973;11.110550684870288;0.9892578125;0.27294921875;-0.28857421875;35.9375;90.1875;-21.8125;
1441975399360866;-0.88140869140625;-0.26666259765625;-0.3701171875;-0.12310791015625;5.4075780669629;16.46121239274174;11.193131849920862;1.0029296875;0.24267578125;-0.248046875;22.75;111.4375;-10.0625;
1441975399374867;-0.87164306640625;-0.26904296875;-0.3939208984375;-0.11309814453125;5.125972474472155;16.41837688088431;11.284089881399796;1.04736328125;0.23486328125;-0.21923828125;15.1875;130.8125;-0.875;
1441975399396868;-0.86029052734375;-0.26959228515625;-0.42034912109375;-0.1031494140625;4.812153579064999;16.356604966156997;11.383909014265733;1.12548828125;0.25048828125;-0.2197265625;13.4375;147.75;5.5;
1441975399419869;-0.84765625;-0.2667236328125;-0.44921875;-0.09295654296875;4.460972699570838;16.277907270995975;11.485248280256368;1.2373046875;0.31103515625;-0.24462890625;4.5625;162.4375;14.3125;
1441975399442871;-0.8338623046875;-0.25982666015625;-0.47998046875;-0.0831298828125;4.078381958262477;16.177894805352715;11.588071696707813;1.36962890625;0.38623046875;-0.314453125;-7.25;177.25;31.6875;
1441975399457871;-0.8193359375;-0.2491455078125;-0.5111083984375;-0.0738525390625;3.680470588335724;16.058266168223316;11.692312279095406;1.46630859375;0.38525390625;-0.3369140625;-23.125;187.25;49.125;
1441975399479873;-0.80413818359375;-0.23406982421875;-0.5423583984375;-0.0672607421875;3.2787186473292707;15.902219585628934;11.80398409086454;1.46484375;0.3662109375;-0.31005859375;-37.625;190.0;65.1875;
1441975399502874;-0.78912353515625;-0.2125244140625;-0.5726318359375;-0.06549072265625;2.8854419515407286;15.703531008278498;11.912724975175811;1.419921875;0.4501953125;-0.2861328125;-63.0;188.5625;79.625;
1441975399517875;-0.7744140625;-0.1832275390625;-0.60174560546875;-0.06890869140625;2.495687934801735;15.45764570458342;12.017225275145114;1.38232421875;0.47509765625;-0.32763671875;-104.3125;177.0;95.125;
1441975399539876;-0.759521484375;-0.14947509765625;-0.6287841796875;-0.07403564453125;2.109974062045627;15.171741797677411;12.139293129205178;1.37060546875;0.35791015625;-0.35986328125;-153.125;164.125;112.125;
1441975399554877;-0.74468994140625;-0.11505126953125;-0.65301513671875;-0.0765380859375;1.7274479196309034;14.857465301462263;12.300370904186776;1.31787109375;0.17431640625;-0.3037109375;-174.8125;153.1875;123.4375;
1441975399577878;-0.7303466796875;-0.08184814453125;-0.6739501953125;-0.07586669921875;1.360330660033121;14.496016933759975;12.52838741445036;1.31689453125;0.07080078125;-0.2470703125;-163.125;143.0625;133.3125;
1441975399599880;-0.716796875;-0.0504150390625;-0.69171142578125;-0.072509765625;1.0178760580039243;14.031768009552911;12.878361681551285;1.28955078125;0.04248046875;-0.23095703125;-142.4375;130.8125;139.875;
1441975399614880;-0.70391845703125;-0.02008056640625;-0.706787109375;-0.06817626953125;0.7159390314533264;13.309284736278293;13.495450290237237;1.26513671875;0.0849609375;-0.24658203125;-122.5625;118.0625;143.5;
1441975399645882;-0.69189453125;0.00946044921875;-0.71923828125;-0.0631103515625;0.4880473394153434;12.002472295309227;14.703130131560698;1.224609375;0.1015625;-0.2412109375;-112.8125;105.75;143.3125;
1441975399659883;-0.68072509765625;0.03790283203125;-0.72943115234375;-0.0565185546875;0.42257879596000636;9.854321656598438;16.762608476404132;1.18701171875;0.11572265625;-0.208984375;-106.125;92.8125;143.6875;
1441975399674884;-0.6707763671875;0.063720703125;-0.7374267578125;-0.0479736328125;0.5551154806756913;8.108591014568795;0.43790593597717775;1.1484375;0.06591796875;-0.19873046875;-94.8125;80.375;144.875;
1441975399696885;-0.66204833984375;0.08538818359375;-0.74371337890625;-0.03729248046875;0.7684882248805287;7.225848101096463;1.2753959071833962;1.095703125;0.01025390625;-0.17041015625;-76.1875;67.4375;141.9375;
1441975399719886;-0.65460205078125;0.1026611328125;-0.74859619140625;-0.02508544921875;0.9887058476975258;6.763222876433827;1.7165927085681854;1.0595703125;-0.00732421875;-0.12548828125;-50.625;55.375;134.625;
1441975399745888;-0.6483154296875;0.1163330078125;-0.75238037109375;-0.0123291015625;1.1942630970639299;6.488429099999391;1.9867483790293219;1.0302734375;0.01806640625;-0.11083984375;-26.4375;44.375;124.625;
1441975399765889;-0.643310546875;0.127197265625;-0.75506591796875;3.662109375E-4;1.3773939203376662;6.301918167866886;2.179834017400922;0.9521484375;0.01953125;-0.10595703125;-9.1875;35.625;113.25;
1441975399779890;-0.6414794921875;0.13446044921875;-0.7552490234375;0.01123046875;1.5020278879238274;6.147207051992976;2.348591683581646;0.869140625;0.03515625;-0.10546875;1.75;26.375;101.9375;
1441975399797891;-0.64117431640625;0.139892578125;-0.75433349609375;0.02130126953125;1.6009235699215927;6.010587421128493;2.5036757575195687;0.7919921875;0.05908203125;-0.0947265625;9.6875;15.0;91.25;
1441975399817892;-0.64251708984375;0.14422607421875;-0.7520751953125;0.0296630859375;1.6711476064846549;5.875830475669441;2.6545505492300774;0.70703125;0.06640625;-0.09033203125;13.3125;3.25;79.9375;
1441975399848894;-0.64569091796875;0.148193359375;-0.748291015625;0.0361328125;1.7156506925814612;5.725262064517854;2.815132335408125;0.640625;0.08544921875;-0.0810546875;10.4375;-8.9375;68.6875;
1441975399862895;-0.65081787109375;0.15191650390625;-0.7427978515625;0.040771484375;1.73667974286242;5.547885371727472;2.9961287979876974;0.60986328125;0.09423828125;-0.0654296875;3.3125;-22.75;58.0;
1441975399877895;-0.6575927734375;0.15533447265625;-0.7359619140625;0.04376220703125;1.7403143089415314;5.345412751338538;3.1968360615666436;0.58447265625;0.09423828125;-0.06396484375;-4.0625;-36.8125;48.0625;
1441975399899897;-0.666015625;0.15802001953125;-0.7276611328125;0.04510498046875;1.726479786748024;5.112516359105806;3.4242876453938687;0.54541015625;0.09228515625;-0.06494140625;-10.4375;-48.8125;38.0625;
1441975399914898;-0.67596435546875;0.159912109375;-0.718017578125;0.04473876953125;1.699078856984549;4.844439061843204;3.6832454999081983;0.53564453125;0.0908203125;-0.04833984375;-15.6875;-61.375;27.1875;
1441975399945899;-0.6873779296875;0.161376953125;-0.7069091796875;0.0421142578125;1.6622380459969228;4.529675498093057;3.9814254353713454;0.54541015625;0.08837890625;-0.0615234375;-19.75;-72.3125;16.25;
1441975399959900;-0.7001953125;0.16241455078125;-0.69427490234375;0.0369873046875;1.6218131928056365;4.157981730834141;4.328047796191456;0.58837890625;0.09716796875;-0.0654296875;-28.3125;-82.4375;5.375;
1441975399982901;-0.7138671875;0.1634521484375;-0.68035888671875;0.02923583984375;1.5897961890627401;3.731813896999996;4.718317999840376;0.638671875;0.12890625;-0.08056640625;-37.8125;-92.625;-4.625;
1441975399997902;-0.72747802734375;0.16619873046875;-0.66546630859375;0.02044677734375;1.5987408620872214;3.2823910808827206;5.120263219198469;0.705078125;0.13037109375;-0.12353515625;-48.625;-98.3125;-14.75;
1441975400019904;-0.7415771484375;0.16839599609375;-0.6494140625;0.0089111328125;1.624533885289553;2.7997083256456556;5.546219900082897;0.83984375;0.1328125;-0.1396484375;-61.8125;-104.5;-27.5625;
1441975400042905;-0.75555419921875;0.1697998046875;-0.63275146484375;-0.005126953125;1.6703220487520984;2.305264430940917;5.976592207808376;0.96728515625;0.13330078125;-0.15625;-72.4375;-109.1875;-40.1875;
1441975400056906;-0.76873779296875;0.17010498046875;-0.6162109375;-0.0211181640625;1.7342298078979004;1.8233033948783222;6.390570652510934;1.08056640625;0.10546875;-0.20166015625;-81.0625;-109.625;-53.125;
1441975400079907;-0.7803955078125;0.16754150390625;-0.6011962890625;-0.0391845703125;1.7933406142664747;1.3551661087311224;6.793836847587484;1.15771484375;0.06689453125;-0.22509765625;-85.0;-104.9375;-65.375;
1441975400102908;-0.79022216796875;0.1634521484375;-0.5880126953125;-0.056396484375;1.8620177769319066;0.9417452952396121;7.1519387327587856;1.22412109375;0.00634765625;-0.2685546875;-81.25;-95.0625;-75.5;
1441975400117909;-0.79840087890625;0.1578369140625;-0.57684326171875;-0.0706787109375;1.9382970326512363;0.6019911200616805;7.4545809090751485;1.23681640625;-0.0244140625;-0.29052734375;-72.125;-82.4375;-82.375;
1441975400139910;-0.80517578125;0.1505126953125;-0.56781005859375;-0.08160400390625;2.013054443384662;0.3296324666187055;7.710799502757364;1.23828125;-0.05859375;-0.30908203125;-53.4375;-70.5;-82.8125;
1441975400163912;-0.8109130859375;0.14117431640625;-0.56085205078125;-0.08941650390625;2.080502062795494;0.10759516433991433;7.938195814859298;1.19970703125;-0.0849609375;-0.32421875;-32.625;-58.5;-81.875;
1441975400176913;-0.81561279296875;0.1307373046875;-0.55572509765625;-0.09423828125;2.1388644084743667;17.93388609359112;8.134444100556436;1.11474609375;-0.06396484375;-0.31591796875;-10.4375;-47.0;-79.625;
1441975400208914;-0.81915283203125;0.1199951171875;-0.552490234375;-0.09722900390625;2.1816232246865397;17.794033955899664;8.306058946093225;1.0537109375;-0.03759765625;-0.34130859375;8.4375;-34.1875;-73.5625;
1441975400222915;-0.82159423828125;0.1092529296875;-0.55072021484375;-0.09912109375;2.2099817573654;17.67540954282992;8.461198917943442;1.04248046875;-0.017578125;-0.33544921875;18.25;-23.6875;-67.3125;
1441975400237916;-0.8232421875;0.09869384765625;-0.5501708984375;-0.09991455078125;2.2265058893608605;17.575770430672275;8.601383035886407;1.0419921875;-0.00244140625;-0.32421875;24.4375;-15.0;-62.25;
1441975400259917;-0.823974609375;0.0887451171875;-0.55078125;-0.09967041015625;2.229334265725493;17.49529583221239;8.724305715588734;1.01025390625;0.0078125;-0.3115234375;29.0625;-7.8125;-57.25;
1441975400282919;-0.82373046875;0.08001708984375;-0.5526123046875;-0.09893798828125;2.215841136549629;17.42998657066749;8.829197286519774;0.93994140625;0.01318359375;-0.3017578125;31.9375;1.125;-49.6875;
1441975400296919;-0.82244873046875;0.07244873046875;-0.55584716796875;-0.09747314453125;2.182753233749407;17.380474138177824;8.916706779669047;0.8857421875;0.0126953125;-0.263671875;30.75;8.25;-41.5625;
1441975400319921;-0.82049560546875;0.06585693359375;-0.55987548828125;-0.09539794921875;2.137543727575711;17.343504761261965;8.990186291344823;0.86865234375;0.01318359375;-0.23876953125;30.625;16.125;-32.5625;
1441975400342922;-0.81817626953125;0.06005859375;-0.564208984375;-0.09332275390625;2.086888389715848;17.31033383630467;9.056535493775788;0.8701171875;0.01220703125;-0.23681640625;30.1875;21.9375;-25.75;
1441975400357923;-0.81585693359375;0.05517578125;-0.568359375;-0.09149169921875;2.037557601156651;17.280204761133604;9.114962772528408;0.86181640625;0.01416015625;-0.2255859375;27.6875;23.8125;-21.5;
1441975400379924;-0.8134765625;0.05157470703125;-0.572265625;-0.09051513671875;1.989699110717909;17.248748583736234;9.165803739871773;0.8447265625;0.02734375;-0.22314453125;23.6875;23.75;-17.5;
1441975400401925;-0.8111572265625;0.0494384765625;-0.57574462890625;-0.090576171875;1.9456498654275471;17.216152290033726;9.207371454872536;0.83251953125;0.0283203125;-0.20703125;15.625;21.9375;-14.0625;
1441975400425927;-0.8089599609375;0.048828125;-0.57879638671875;-0.0914306640625;1.9052685552679993;17.18711024398232;9.235768270251462;0.83447265625;0.0380859375;-0.19580078125;6.1875;19.125;-10.3125;
1441975400439928;-0.80694580078125;0.04962158203125;-0.5811767578125;-0.0931396484375;1.87129182930556;17.160892051068075;9.251914922032316;0.8544921875;0.044921875;-0.193359375;-2.375;15.875;-6.0625;
1441975400463929;-0.80523681640625;0.0516357421875;-0.5830078125;-0.0955810546875;1.8433998981682826;17.138043588280553;9.256624031007041;0.89306640625;0.0673828125;-0.20263671875;-10.875;11.875;-1.6875;
1441975400477930;-0.80377197265625;0.0548095703125;-0.584228515625;-0.0986328125;1.821587995189002;17.12015614132973;9.249004971056165;0.91259765625;0.080078125;-0.2060546875;-18.1875;8.0625;2.0625;
1441975400499931;-0.802490234375;0.05914306640625;-0.5849609375;-0.10235595703125;1.804366138920717;17.10624729365296;9.229818812108395;0.93408203125;0.08837890625;-0.21142578125;-24.5625;4.5625;5.4375;
1441975400521932;-0.801513671875;0.064697265625;-0.5848388671875;-0.1068115234375;1.7958312029796717;17.097421094282893;9.197343182327446;0.95263671875;0.1025390625;-0.21630859375;-31.6875;0.8125;8.75;
1441975400536933;-0.8009033203125;0.0711669921875;-0.583984375;-0.11199951171875;1.7957888267220152;17.090260289609272;9.156313436479229;0.96435546875;0.10400390625;-0.232421875;-39.0;-3.1875;11.125;
1441975400559934;-0.80047607421875;0.07843017578125;-0.58245849609375;-0.11767578125;1.8023621331961444;17.0862216331529;9.106681152635268;0.94970703125;0.08837890625;-0.248046875;-46.0625;-6.875;11.75;
1441975400581936;-0.80023193359375;0.0860595703125;-0.58056640625;-0.12347412109375;1.8130317060586156;17.085257529812864;9.051872276338923;0.93212890625;0.06689453125;-0.2509765625;-51.75;-10.625;11.6875;
1441975400596937;-0.800048828125;0.0936279296875;-0.5784912109375;-0.12872314453125;1.8252790793715779;17.091821040893752;8.991920327489996;0.92822265625;0.05322265625;-0.25927734375;-53.5625;-12.5;11.5625;
1441975400619938;-0.80010986328125;0.10064697265625;-0.57623291015625;-0.133056640625;1.8408079998142484;17.10629189037468;8.930014874004828;0.92236328125;0.03662109375;-0.26416015625;-51.4375;-13.5;11.9375;
1441975400642939;-0.80029296875;0.10687255859375;-0.57415771484375;-0.13616943359375;1.8556696059508018;17.129515897104856;8.867697739296846;0.91455078125;0.03955078125;-0.2822265625;-45.4375;-13.75;12.4375;
1441975400656940;-0.800537109375;0.11236572265625;-0.57232666015625;-0.13818359375;1.8690983774384662;17.160137038892206;8.805590467854927;0.919921875;0.04150390625;-0.29443359375;-37.0625;-13.125;13.5;
1441975400679941;-0.80072021484375;0.116943359375;-0.57086181640625;-0.13922119140625;1.8795628194202292;17.194259242373285;8.747839818960617;0.9169921875;0.05078125;-0.31005859375;-29.0;-11.5;14.125;
1441975400702943;-0.8011474609375;0.1207275390625;-0.5694580078125;-0.13922119140625;1.8918245600144563;17.234856273323068;8.691228538528033;0.892578125;0.05419921875;-0.30712890625;-21.5625;-9.4375;14.1875;
1441975400717943;-0.801513671875;0.1241455078125;-0.5684814453125;-0.13812255859375;1.9002341456530059;17.28650709403024;8.629750506752812;0.8681640625;0.044921875;-0.3154296875;-13.875;-8.75;13.75;
1441975400739945;-0.80169677734375;0.12701416015625;-0.5679931640625;-0.13623046875;1.9038593375947728;17.343123914269036;8.568957862996005;0.85595703125;0.0205078125;-0.29638671875;-7.75;-8.625;14.75;
1441975400761946;-0.80169677734375;0.129638671875;-0.56805419921875;-0.1336669921875;1.9021017271110419;17.406553423630946;8.505329463594926;0.88916015625;0.03955078125;-0.29296875;-1.4375;-6.875;17.0;
1441975400776947;-0.80145263671875;0.13232421875;-0.5684814453125;-0.1307373046875;1.8963232645096024;17.476018385349498;8.436991211436307;0.95068359375;0.06787109375;-0.2939453125;3.375;-5.5;20.5;
1441975400807949;-0.80108642578125;0.1351318359375;-0.5689697265625;-0.1278076171875;1.8902450262081447;17.547163919410917;8.36643257506297;1.03857421875;0.08740234375;-0.32177734375;5.4375;-3.625;23.9375;
1441975400821949;-0.8006591796875;0.1385498046875;-0.56927490234375;-0.12554931640625;1.8862525791851308;17.615203572229404;8.29362131670383;1.10888671875;0.09423828125;-0.34375;5.25;-2.875;25.25;
1441975400840951;-0.800048828125;0.1429443359375;-0.5692138671875;-0.124755859375;1.8846275399668848;17.67215453106129;8.221627344993937;1.12353515625;0.083984375;-0.345703125;-0.0625;-3.625;25.6875;
1441975400861952;-0.79931640625;0.1488037109375;-0.56854248046875;-0.12554931640625;1.8878746369357915;17.72063527073439;8.145225253188967;1.07470703125;0.052734375;-0.34130859375;-10.8125;-3.875;24.1875;
1441975400881953;-0.79840087890625;0.15625;-0.56744384765625;-0.12744140625;1.8944430434968258;17.768819056195987;8.057808334088003;1.005859375;0.0263671875;-0.35595703125;-24.125;-3.4375;23.8125;
1441975400896954;-0.797119140625;0.16436767578125;-0.566650390625;-0.12872314453125;1.8982518982996641;17.833134459518956;7.953957920670769;0.9697265625;0.00146484375;-0.38671875;-35.125;-2.125;26.1875;
1441975400919955;-0.7955322265625;0.17138671875;-0.5667724609375;-0.12884521484375;1.8939228638785623;17.9053121317623;7.851840469426142;0.9912109375;-0.06591796875;-0.42822265625;-36.0625;1.75;27.8125;
1441975400941956;-0.79376220703125;0.17633056640625;-0.5679931640625;-0.1278076171875;1.8794658873389232;17.97698437141858;7.764018308194961;1.05029296875;-0.08056640625;-0.478515625;-26.5625;8.4375;26.8125;
1441975400956957;-0.7919921875;0.18035888671875;-0.56939697265625;-0.12677001953125;1.8633279877838285;0.041152533296645505;7.687539396873012;1.1083984375;-0.03125;-0.51708984375;-12.625;15.9375;26.375;
1441975400979958;-0.79034423828125;0.1851806640625;-0.5699462890625;-0.12744140625;1.8541829284984466;0.08686544290195812;7.618837246975602;1.12109375;0.03173828125;-0.56201171875;-7.25;20.5;26.9375;
1441975401002960;-0.7886962890625;0.19140625;-0.56976318359375;-0.1295166015625;1.8514693086694263;0.12465284904865788;7.546159497886355;1.0126953125;0.048828125;-0.53466796875;-17.8125;18.0625;25.75;
1441975401016961;-0.78704833984375;0.19891357421875;-0.5689697265625;-0.131591796875;1.8574127396723037;0.1728958374079052;7.457328312259824;0.8525390625;0.0029296875;-0.427734375;-30.9375;11.5625;23.875;
1441975401039962;-0.785400390625;0.2064208984375;-0.5682373046875;-0.1331787109375;1.8651615076668464;0.22769817962954325;7.363937062675461;0.74267578125;-0.0751953125;-0.365234375;-37.0625;6.375;24.375;
1441975401062963;-0.783935546875;0.21282958984375;-0.5677490234375;-0.13360595703125;1.8739473286050012;0.287521361794894;7.274936753207657;0.72021484375;-0.12255859375;-0.32421875;-36.0;3.5625;23.25;
1441975401079964;-0.78289794921875;0.21783447265625;-0.56732177734375;-0.13323974609375;1.8849587365424432;0.3425377102464106;7.199972742333849;0.73583984375;-0.10693359375;-0.32373046875;-26.125;3.1875;23.1875;
1441975401099965;-0.78240966796875;0.22198486328125;-0.56646728515625;-0.1331787109375;1.9005760327490309;0.3801766821755019;7.144688619600692;0.759765625;-0.05029296875;-0.3232421875;-16.375;1.4375;23.3125;
1441975401123967;-0.78228759765625;0.2259521484375;-0.56488037109375;-0.13409423828125;1.9212995168810025;0.3970783572409667;7.106597508485374;0.79736328125;0.0107421875;-0.34765625;-13.375;-0.625;21.8125;
1441975401136967;-0.78240966796875;0.23046875;-0.56231689453125;-0.136474609375;1.9484740012411237;0.393132018460419;7.080563967183641;0.8544921875;0.0439453125;-0.3701171875;-17.0625;-3.5;19.5;
1441975401159969;-0.78240966796875;0.2354736328125;-0.559326171875;-0.139892578125;1.9762937378967291;0.37816666389244463;7.058875215928797;0.90966796875;0.05126953125;-0.41845703125;-25.75;-5.5;16.8125;
1441975401181970;-0.7823486328125;0.2401123046875;-0.5565185546875;-0.14361572265625;1.9999952356148176;0.35721206883439444;7.043523301035135;0.935546875;0.01708984375;-0.4345703125;-33.75;-6.125;12.9375;
1441975401196971;-0.78240966796875;0.2437744140625;-0.553955078125;-0.1470947265625;2.0204264656106212;0.33170441364141434;7.037945091002241;0.93359375;-0.0244140625;-0.4365234375;-34.75;-4.8125;7.9375;
1441975401219972;-0.78271484375;0.246337890625;-0.55157470703125;-0.1500244140625;2.039668693180113;0.3038214853426127;7.041727562294849;0.9091796875;-0.04248046875;-0.4365234375;-30.375;-2.875;2.75;
1441975401241973;-0.783447265625;0.2481689453125;-0.549072265625;-0.15234375;2.0627566180132684;0.2754153956307761;7.051675098233794;0.8583984375;-0.0498046875;-0.43115234375;-24.625;-2.5;-1.3125;
1441975401258974;-0.78436279296875;0.24884033203125;-0.54693603515625;-0.154052734375;2.082913104805368;0.2462917256237604;7.0699610118086005;0.82666015625;-0.0615234375;-0.42919921875;-19.5625;-3.75;-4.5625;
1441975401279976;-0.78570556640625;0.2476806640625;-0.54541015625;-0.15472412109375;2.099315711321367;0.21640999279399753;7.101549783034526;0.8173828125;-0.08203125;-0.40673828125;-13.1875;-4.4375;-8.9375;
1441975401310977;-0.78759765625;0.24462890625;-0.5440673828125;-0.154541015625;2.1159330565484304;0.18072254943967642;7.150654108759164;0.828125;-0.08447265625;-0.39013671875;-1.875;-4.4375;-14.5;
1441975401318978;-0.7900390625;0.24041748046875;-0.54254150390625;-0.15411376953125;2.1361455606599558;0.1365862704492127;7.214192842379558;0.84765625;-0.05712890625;-0.38134765625;9.4375;-5.9375;-19.625;
1441975401340979;-0.79278564453125;0.23590087890625;-0.54046630859375;-0.154296875;2.1614913145719408;0.08045234271299297;7.288250804974082;0.87060546875;-0.02294921875;-0.388671875;14.875;-8.3125;-22.875;
1441975401361980;-0.79571533203125;0.23150634765625;-0.537841796875;-0.15521240234375;2.1922555134488113;0.015481058515382184;7.367353837382461;0.89892578125;-0.00439453125;-0.384765625;13.0;-11.5;-26.0625;
1441975401378981;-0.79876708984375;0.22723388671875;-0.53466796875;-0.15679931640625;2.228642641385509;17.943325497701203;7.450018949751237;0.91259765625;-0.01025390625;-0.38623046875;8.0;-14.8125;-29.875;
1441975401399983;-0.80230712890625;0.22283935546875;-0.53070068359375;-0.15826416015625;2.2770362406732363;17.87094159781163;7.533548683769543;0.9091796875;-0.037109375;-0.3828125;3.3125;-17.25;-34.1875;
1441975401423984;-0.8060302734375;0.2177734375;-0.52679443359375;-0.15948486328125;2.327273599257037;17.79932682714765;7.620247608878583;0.8984375;-0.06787109375;-0.39794921875;2.5625;-21.6875;-38.1875;
1441975401438985;-0.8099365234375;0.211669921875;-0.52301025390625;-0.16033935546875;2.378820591622783;17.727451814645573;7.713170864210541;0.89208984375;-0.0986328125;-0.3857421875;4.625;-23.25;-43.3125;
1441975401462986;-0.814208984375;0.20416259765625;-0.519287109375;-0.16046142578125;2.4340304714445837;17.65679263899917;7.813923842636847;0.87939453125;-0.09521484375;-0.37109375;9.6875;-23.3125;-47.75;
1441975401491988;-0.81866455078125;0.1953125;-0.515869140625;-0.15985107421875;2.4897770526393863;17.588840473130684;7.920872394689532;0.85009765625;-0.09375;-0.3759765625;17.25;-23.4375;-52.625;
1441975401498988;-0.8232421875;0.18487548828125;-0.51300048828125;-0.1580810546875;2.543961270587694;17.52707486368344;8.033457195513137;0.814453125;-0.08447265625;-0.3681640625;25.5;-22.25;-56.8125;
1441975401519989;-0.8275146484375;0.17352294921875;-0.5108642578125;-0.15576171875;2.5916675040263937;17.469415929431786;8.148374696251242;0.7998046875;-0.0478515625;-0.36767578125;36.5;-19.875;-58.4375;
1441975401541991;-0.83111572265625;0.1617431640625;-0.5096435546875;-0.1531982421875;2.6285945880860266;17.415179775027738;8.262920029151681;0.8310546875;0.0234375;-0.388671875;44.625;-15.3125;-56.625;
1441975401558992;-0.8338623046875;0.15020751953125;-0.5093994140625;-0.15057373046875;2.6526378454809203;17.365696885308935;8.37216367483304;0.88720703125;0.08935546875;-0.412109375;48.5;-9.4375;-52.8125;
1441975401579993;-0.83587646484375;0.13916015625;-0.510009765625;-0.14794921875;2.6653036679021938;17.32064927395913;8.475146229987532;0.93505859375;0.13623046875;-0.4140625;49.875;-4.25;-48.125;
1441975401601994;-0.8370361328125;0.1287841796875;-0.51171875;-0.14520263671875;2.6630539199202965;17.281397045804365;8.570318223017551;0.94775390625;0.16650390625;-0.408203125;49.125;0.875;-42.9375;
1441975401618995;-0.83721923828125;0.11932373046875;-0.51446533203125;-0.14202880859375;2.6450876193442165;17.251635274980057;8.654036450054733;0.94482421875;0.18798828125;-0.38818359375;48.375;6.875;-36.6875;
1441975401647997;-0.83648681640625;0.11083984375;-0.51861572265625;-0.1383056640625;2.607592028065419;17.232184640887816;8.726025306560478;0.93212890625;0.19189453125;-0.37255859375;48.0;13.25;-29.25;
1441975401661997;-0.83465576171875;0.103515625;-0.5242919921875;-0.133544921875;2.5474000133453503;17.22890982782153;8.781555813159844;0.97119140625;0.22705078125;-0.35400390625;48.75;19.6875;-19.5625;
1441975401679999;-0.83172607421875;0.09747314453125;-0.53131103515625;-0.12847900390625;2.466056038114269;17.23474867023488;8.824012421525854;1.0751953125;0.2685546875;-0.37841796875;51.6875;27.875;-7.125;
1441975401700000;-0.82794189453125;0.09320068359375;-0.5391845703125;-0.1231689453125;2.3690879242093383;17.254073668135437;8.846588383643768;1.1953125;0.33056640625;-0.40869140625;50.5625;36.0;5.5625;
1441975401722001;-0.82391357421875;0.09033203125;-0.5469970703125;-0.11773681640625;2.2695118180713174;17.285901163915383;8.851083219993614;1.2822265625;0.34423828125;-0.4150390625;46.5625;40.8125;16.4375;
1441975401739002;-0.81976318359375;0.08856201171875;-0.5546875;-0.1123046875;2.1692421540088698;17.32835883681478;8.840187991176899;1.228515625;0.294921875;-0.35107421875;41.4375;39.125;21.5625;
1441975401760003;-0.81536865234375;0.08758544921875;-0.562255859375;-0.10699462890625;2.0680846292353228;17.378778560692307;8.81727557811223;1.1103515625;0.2099609375;-0.24365234375;36.375;35.375;23.1875;
1441975401791005;-0.81085205078125;0.087158203125;-0.56964111328125;-0.10272216796875;1.9681033250382574;17.423826171946036;8.793011344195488;1.0302734375;0.125;-0.20263671875;31.0625;35.75;22.25;
1441975401799005;-0.80633544921875;0.0869140625;-0.5765380859375;-0.0999755859375;1.8732361250559406;17.45250959811509;8.77782482076363;0.98681640625;0.068359375;-0.2138671875;22.875;38.5;18.25;
1441975401828007;-0.80224609375;0.08673095703125;-0.58245849609375;-0.09832763671875;1.7906185112783726;17.4683759416256;8.770406287334142;0.95361328125;0.04541015625;-0.2333984375;14.3125;39.6875;13.0;
1441975401842008;-0.7989501953125;0.0867919921875;-0.587158203125;-0.0975341796875;1.7247237617762632;17.476080413589976;8.766438431432965;0.9306640625;0.0380859375;-0.248046875;8.4375;37.125;8.8125;
1441975401859009;-0.79644775390625;0.08673095703125;-0.59063720703125;-0.0968017578125;1.6755488991457361;17.483064178777127;8.763202645970445;0.92236328125;0.02978515625;-0.26611328125;3.6875;31.0;5.75;
1441975401880010;-0.7945556640625;0.0859375;-0.5933837890625;-0.0960693359375;1.6376692839672284;17.482297940077764;8.770619234180423;0.931640625;0.02490234375;-0.27001953125;3.1875;23.75;3.625;
1441975401903011;-0.79351806640625;0.08447265625;-0.59515380859375;-0.09539794921875;1.614999451315605;17.473362281707903;8.788611297367524;0.95263671875;0.05126953125;-0.2646484375;6.375;17.9375;1.3125;
1441975401935013;-0.79315185546875;0.0831298828125;-0.5958251953125;-0.09539794921875;1.6071714786881837;17.45591224994344;8.811669995215471;0.951171875;0.0810546875;-0.26123046875;9.0;11.625;-0.75;
1441975401940013;-0.7933349609375;0.0826416015625;-0.59539794921875;-0.09686279296875;1.6132378940821284;17.42627225335798;8.83721942439337;0.9501953125;0.10791015625;-0.2587890625;6.0;4.0625;-1.875;
1441975401962015;-0.7938232421875;0.08349609375;-0.59417724609375;-0.09979248046875;1.6284496267471416;17.390549226743147;8.857199552982282;0.94287109375;0.1328125;-0.25390625;-3.75;-2.375;-2.25;
1441975401987016;-0.79443359375;0.08587646484375;-0.59228515625;-0.10369873046875;1.6499820246149353;17.358853335696676;8.862694538772391;0.93359375;0.14794921875;-0.26708984375;-14.75;-6.3125;-0.8125;
1441975402000017;-0.79534912109375;0.08935546875;-0.5897216796875;-0.10833740234375;1.6791936261803357;17.33014059410405;8.857556133022422;0.93408203125;0.13232421875;-0.28271484375;-24.9375;-9.4375;0.875;
1441975402022018;-0.79638671875;0.09393310546875;-0.586669921875;-0.11346435546875;1.7129339754261304;17.30755050922503;8.839620217312914;0.9326171875;0.1318359375;-0.29736328125;-32.6875;-12.75;2.75;
1441975402039019;-0.79730224609375;0.099365234375;-0.58343505859375;-0.11895751953125;1.746850177775462;17.289026250860193;8.81244955022233;0.92236328125;0.12890625;-0.32275390625;-38.75;-14.5;4.9375;
1441975402060020;-0.798095703125;0.1051025390625;-0.58026123046875;-0.1240234375;1.7787819533701963;17.279887744590166;8.776307612515664;0.9208984375;0.11962890625;-0.33837890625;-43.6875;-14.8125;7.1875;
1441975402082022;-0.798828125;0.11077880859375;-0.5772705078125;-0.12823486328125;1.8082303210916313;17.282086364758545;8.732577051119245;0.9189453125;0.1103515625;-0.34765625;-43.5;-14.0;9.0625;
1441975402099022;-0.79949951171875;0.11590576171875;-0.57464599609375;-0.13128662109375;1.833949968498107;17.29445393733665;8.68576988983539;0.9052734375;0.0986328125;-0.35302734375;-38.9375;-13.1875;10.875;
1441975402128024;-0.79986572265625;0.12042236328125;-0.57275390625;-0.133056640625;1.8511029717889986;17.31765390921975;8.636063324267923;0.89599609375;0.10009765625;-0.33837890625;-31.8125;-12.5625;12.9375;
1441975402142025;-0.80047607421875;0.12432861328125;-0.57098388671875;-0.1336669921875;1.869256381896263;17.350800273707286;8.58381678132917;0.892578125;0.09716796875;-0.31103515625;-23.625;-10.875;14.8125;
1441975402159026;-0.8009033203125;0.127685546875;-0.56976318359375;-0.13336181640625;1.8817489208577105;17.390511105538824;8.531188071716857;0.8857421875;0.0986328125;-0.328125;-15.75;-10.25;16.5;
1441975402181027;-0.801025390625;0.13092041015625;-0.56890869140625;-0.1328125;1.8893435379298744;17.43179916141457;8.478502548911898;0.8935546875;0.09619140625;-0.3125;-9.625;-8.875;17.25;
1441975402202028;-0.80120849609375;0.1343994140625;-0.56787109375;-0.13287353515625;1.8992977543810876;17.466413565595126;8.428946286746857;0.89794921875;0.11767578125;-0.3076171875;-7.25;-6.875;19.75;
1441975402219029;-0.80108642578125;0.13836669921875;-0.56695556640625;-0.13311767578125;1.9063427377738194;17.502996934291364;8.374565971196743;0.8876953125;0.134765625;-0.298828125;-10.6875;-7.875;19.8125;
1441975402248031;-0.80084228515625;0.142333984375;-0.56640625;-0.13287353515625;1.909900755780026;17.546505992878327;8.315419560851636;0.9013671875;0.1025390625;-0.28857421875;-13.5;-8.0625;20.1875;
1441975402262032;-0.800537109375;0.14593505859375;-0.566162109375;-0.13201904296875;1.9111781378558335;17.595106711891436;8.255311949427636;0.92236328125;0.08349609375;-0.28662109375;-11.5625;-7.0625;21.0625;
1441975402279033;-0.8001708984375;0.14862060546875;-0.5662841796875;-0.13055419921875;1.9095393922013602;17.64350221606333;8.201802313463961;0.9423828125;0.09130859375;-0.29248046875;-7.1875;-5.3125;22.125;
1441975402309035;-0.79962158203125;0.15087890625;-0.56683349609375;-0.128662109375;1.9035469808632983;17.69449903322951;8.149331569085884;0.9638671875;0.103515625;-0.31005859375;-0.625;-3.0;22.0;
1441975402322035;-0.79888916015625;0.153076171875;-0.5677490234375;-0.12689208984375;1.8933842739916005;17.744283288402404;8.097978876252485;0.998046875;0.125;-0.32421875;3.375;-0.25;23.0;
1441975402339036;-0.7978515625;0.1551513671875;-0.56890869140625;-0.12579345703125;1.8785697645148964;17.784582217719226;8.053852133678097;1.03466796875;0.12548828125;-0.35205078125;3.4375;3.4375;23.5625;
1441975402361037;-0.7967529296875;0.15728759765625;-0.56988525390625;-0.12530517578125;1.864645195737426;17.817069634036613;8.014636537629002;1.03564453125;0.1103515625;-0.3466796875;0.5;5.5625;20.3125;
1441975402382039;-0.79571533203125;0.1597900390625;-0.57061767578125;-0.12579345703125;1.852561268623398;17.839140088709204;7.98029073168952;0.9794921875;0.0693359375;-0.3359375;-3.5625;6.5625;16.125;
1441975402399040;-0.79461669921875;0.16278076171875;-0.5709228515625;-0.12713623046875;1.8433361435976408;17.853361771120557;7.947992773926124;0.9404296875;0.04248046875;-0.33203125;-10.1875;6.5625;12.9375;
1441975402438042;-0.7938232421875;0.16583251953125;-0.57080078125;-0.12890625;1.8395312402186252;17.86067276422688;7.920544223961121;0.92431640625;0.013671875;-0.33056640625;-16.3125;5.4375;10.4375;
1441975402442042;-0.7933349609375;0.16827392578125;-0.5704345703125;-0.13031005859375;1.8399660575477992;17.865812250944206;7.899239020538731;0.90869140625;-0.01904296875;-0.3310546875;-19.625;3.625;6.5625;
1441975402468044;-0.7935791015625;0.16973876953125;-0.5694580078125;-0.1312255859375;1.8505951538524714;17.86495839002122;7.88990534331623;0.88916015625;-0.06005859375;-0.318359375;-16.875;0.625;1.9375;
1441975402483044;-0.79443359375;0.17059326171875;-0.56793212890625;-0.131591796875;1.870527946025657;17.86318753741718;7.886187741239908;0.89453125;-0.06884765625;-0.3232421875;-11.5;-3.75;-2.75;
1441975402511046;-0.79571533203125;0.170654296875;-0.5660400390625;-0.13189697265625;1.8958933561860807;17.85259849532989;7.894765456204597;0.91357421875;-0.06640625;-0.33251953125;-7.25;-8.25;-5.0;
1441975402525047;-0.79742431640625;0.17034912109375;-0.56353759765625;-0.13238525390625;1.9290451523385561;17.833945532203668;7.9119766454467735;0.91943359375;-0.0595703125;-0.33349609375;-4.125;-11.5625;-8.25;
1441975402550048;-0.7994384765625;0.17071533203125;-0.5604248046875;-0.13330078125;1.9698746101950708;17.814734674998572;7.925062048457414;0.9423828125;-0.02197265625;-0.3564453125;-3.5;-14.5;-9.1875;
1441975402562049;-0.801513671875;0.17205810546875;-0.55657958984375;-0.1351318359375;2.0174265922858576;17.79139860817087;7.934063695781883;0.9814453125;0.00341796875;-0.40478515625;-7.5625;-16.6875;-7.25;
1441975402585050;-0.80364990234375;0.17401123046875;-0.55224609375;-0.13787841796875;2.069121150921163;17.76123350408631;7.943355319161215;1.00634765625;-0.009765625;-0.42626953125;-15.8125;-19.5625;-7.25;
1441975402602051;-0.8056640625;0.17626953125;-0.5478515625;-0.14056396484375;2.1209752161751605;17.735514595363867;7.947016383510266;0.98486328125;-0.02392578125;-0.42578125;-22.75;-21.875;-8.6875;
1441975402622052;-0.8076171875;0.17877197265625;-0.54351806640625;-0.14300537109375;2.172406532491575;17.715846136681474;7.944589171508926;0.9765625;-0.04345703125;-0.42724609375;-24.625;-22.5625;-8.9375;
1441975402645054;-0.8094482421875;0.1810302734375;-0.53955078125;-0.14471435546875;2.220476435816487;17.704397996712707;7.938060206189134;0.95458984375;-0.06689453125;-0.42919921875;-24.625;-22.3125;-8.3125;
1441975402661055;-0.81121826171875;0.1827392578125;-0.53619384765625;-0.14520263671875;2.263773569919307;17.70464597681116;7.92744847798127;0.9013671875;-0.08642578125;-0.42529296875;-21.125;-20.5;-7.9375;
1441975402685056;-0.8128662109375;0.18359375;-0.53363037109375;-0.14447021484375;2.3000133735648505;17.714142094386194;7.916566918053675;0.86474609375;-0.08349609375;-0.42578125;-12.75;-17.5;-6.1875;
1441975402713058;-0.81427001953125;0.1842041015625;-0.53155517578125;-0.1435546875;2.330234480414939;17.72474142159344;7.906536647300701;0.86865234375;-0.048828125;-0.45361328125;-3.1875;-13.1875;-3.125;
1441975402721058;-0.815185546875;0.18536376953125;-0.5299072265625;-0.14288330078125;2.3534417230389657;17.737779524526257;7.890818156159974;0.884765625;0.0126953125;-0.47998046875;0.125;-8.8125;0.875;
1441975402742059;-0.81549072265625;0.18743896484375;-0.5286865234375;-0.142822265625;2.3686357774481146;17.751916927382627;7.867682559833334;0.8984375;0.0439453125;-0.50146484375;-1.4375;-5.0;5.6875;
1441975402765061;-0.8153076171875;0.1903076171875;-0.52789306640625;-0.143310546875;2.3766268892833224;17.76690101575485;7.838238076904492;0.90625;0.03857421875;-0.48974609375;-7.1875;-2.375;8.8125;
1441975402781062;-0.81463623046875;0.19366455078125;-0.52752685546875;-0.1436767578125;2.3783618245522233;17.788401928875437;7.800741811454053;0.88037109375;0.0224609375;-0.46728515625;-12.3125;0.1875;10.75;
1441975402802063;-0.81365966796875;0.197265625;-0.52777099609375;-0.1436767578125;2.3736289211205888;17.81780865613389;7.756138551341665;0.86376953125;-0.00341796875;-0.45654296875;-13.9375;2.875;13.0625;
1441975402825064;-0.81231689453125;0.20074462890625;-0.52862548828125;-0.14324951171875;2.361988098686792;17.853445622535418;7.707762396860151;0.865234375;-0.02001953125;-0.447265625;-12.875;5.4375;15.125;
1441975402849065;-0.81109619140625;0.20391845703125;-0.529541015625;-0.1422119140625;2.351909954050935;17.89424982874041;7.658081759910367;0.87158203125;-0.033203125;-0.43603515625;-10.0625;8.0;16.5625;
1441975402864066;-0.80963134765625;0.20648193359375;-0.531005859375;-0.14111328125;2.3350666608688613;17.933403837167276;7.613060128678246;0.86962890625;-0.04052734375;-0.4365234375;-6.5;8.25;16.25;
1441975402894068;-0.80828857421875;0.20831298828125;-0.53271484375;-0.1397705078125;2.316661478789953;17.97082204796803;7.57406733729764;0.91552734375;-0.03369140625;-0.42822265625;-3.375;9.75;15.5;
1441975402901068;-0.80694580078125;0.20965576171875;-0.53466796875;-0.1383056640625;2.29591667258693;0.007211847406510928;7.538799894409146;0.962890625;-0.021484375;-0.43310546875;0.8125;10.1875;13.8125;
1441975402925070;-0.80596923828125;0.2100830078125;-0.53619384765625;-0.13751220703125;2.278490235918498;0.026843327475007454;7.521203253803432;0.99658203125;-0.02685546875;-0.4208984375;3.4375;10.3125;12.3125;
1441975402939071;-0.80517578125;0.2103271484375;-0.53729248046875;-0.13720703125;2.2646773434118517;0.03766684713545471;7.5109399833548505;0.982421875;-0.0029296875;-0.396484375;3.1875;7.5625;6.875;
1441975402961072;-0.8048095703125;0.21038818359375;-0.53790283203125;-0.136962890625;2.257532331387644;0.04386735060404405;7.5057245468913925;0.94091796875;-0.00634765625;-0.3310546875;1.1875;2.8125;3.6875;
1441975402982073;-0.80487060546875;0.209716796875;-0.53814697265625;-0.13665771484375;2.255277762214835;0.042823421172676485;7.51098984182722;0.87353515625;-0.03662109375;-0.2880859375;0.6875;-1.125;0.125;
1441975402999074;-0.8052978515625;0.2080078125;-0.538330078125;-0.13604736328125;2.2548387307507687;0.03613015302563335;7.527590323194631;0.826171875;-0.03271484375;-0.271484375;3.0;-3.5625;-4.1875;
1441975403023075;-0.80615234375;0.20538330078125;-0.53826904296875;-0.13531494140625;2.2581058580285185;0.021887433353406968;7.556080737413626;0.82470703125;-0.0068359375;-0.27685546875;8.75;-4.25;-6.25;
1441975403042076;-0.8072509765625;0.20220947265625;-0.537841796875;-0.13525390625;2.2639637369211822;17.993642871236972;7.597962263114581;0.8671875;0.0341796875;-0.31298828125;13.0625;-4.75;-8.6875;
1441975403074078;-0.808349609375;0.1993408203125;-0.536865234375;-0.13665771484375;2.272462536184965;17.948859634843323;7.648739437541786;0.91357421875;0.0859375;-0.34765625;12.6875;-5.125;-10.4375;
1441975403081079;-0.80926513671875;0.197509765625;-0.535400390625;-0.13958740234375;2.28318379600434;17.89342484222181;7.699218665742253;0.9501953125;0.130859375;-0.36865234375;5.375;-6.1875;-11.5;
1441975403104080;-0.809814453125;0.1966552734375;-0.5338134765625;-0.14349365234375;2.2927448566303967;17.834804025304955;7.744559612503927;0.98876953125;0.134765625;-0.38525390625;-5.6875;-6.75;-11.9375;
1441975403125081;-0.8101806640625;0.19610595703125;-0.53240966796875;-0.14752197265625;2.300237183355957;17.77823644588907;7.786131066838217;1.0;0.07861328125;-0.38525390625;-15.3125;-6.5625;-14.25;
1441975403143082;-0.8106689453125;0.19549560546875;-0.53082275390625;-0.151123046875;2.311506885512846;17.726122018324443;7.825137852238371;0.96435546875;0.0205078125;-0.3505859375;-18.6875;-6.5;-17.375;
1441975403172084;-0.811279296875;0.19464111328125;-0.5294189453125;-0.15411376953125;2.3231305619104208;17.6800525234147;7.861832003332276;0.91796875;-0.01416015625;-0.33447265625;-17.375;-7.75;-19.0;
1441975403185085;-0.8121337890625;0.19293212890625;-0.52801513671875;-0.156494140625;2.337107887840373;17.634724342678407;7.903899992752829;0.91455078125;-0.0341796875;-0.33642578125;-14.4375;-7.75;-20.0;
1441975403209086;-0.8133544921875;0.19049072265625;-0.52655029296875;-0.1580810546875;2.3551773205802435;17.593257188130444;7.9485340365452055;0.9033203125;-0.02197265625;-0.34375;-8.5625;-7.875;-21.9375;
1441975403231087;-0.8148193359375;0.18780517578125;-0.52490234375;-0.15924072265625;2.3774508567602637;17.55520609724337;7.992507986209568;0.90625;0.0;-0.361328125;-1.875;-8.625;-22.625;
1441975403245088;-0.81634521484375;0.1851806640625;-0.52313232421875;-0.160400390625;2.4017468020655777;17.518204582046135;8.035129228171314;0.9228515625;0.013671875;-0.38232421875;1.0;-9.625;-22.0625;
1441975403261089;-0.81768798828125;0.18304443359375;-0.52130126953125;-0.16180419921875;2.4257457249339383;17.482835197960583;8.072931934094902;0.93603515625;0.037109375;-0.39892578125;1.0625;-10.1875;-21.0625;
1441975403284090;-0.81884765625;0.181640625;-0.5194091796875;-0.16357421875;2.449265109822801;17.449405534748625;8.10413409770974;0.95361328125;0.05029296875;-0.404296875;-1.75;-10.3125;-19.125;
1441975403305091;-0.81976318359375;0.18096923828125;-0.51763916015625;-0.16558837890625;2.470159796699336;17.419349166273452;8.127913162722017;0.9638671875;0.05224609375;-0.404296875;-5.6875;-10.875;-16.875;
1441975403329093;-0.8204345703125;0.18072509765625;-0.51593017578125;-0.16754150390625;2.4891574573370345;17.393613761879458;8.14570507715881;0.95654296875;0.03662109375;-0.38818359375;-9.5625;-10.9375;-15.0625;
1441975403344094;-0.8209228515625;0.18084716796875;-0.51458740234375;-0.16912841796875;2.5038503258912574;17.37531874063001;8.156242667183976;0.94482421875;0.03564453125;-0.3837890625;-11.125;-10.6875;-12.875;
1441975403365095;-0.82135009765625;0.18115234375;-0.5135498046875;-0.17022705078125;2.515608065633263;17.36428361507017;8.160999048150599;0.94189453125;0.02880859375;-0.37890625;-10.25;-9.5625;-10.3125;
1441975403381096;-0.82147216796875;0.181640625;-0.512939453125;-0.1708984375;2.521656842744655;17.35975869938126;8.160352459181906;0.93994140625;0.03662109375;-0.39013671875;-8.125;-8.0625;-6.9375;
1441975403404097;-0.8214111328125;0.18231201171875;-0.51263427734375;-0.17132568359375;2.523783024583734;17.35954322646643;8.155769919320216;0.94482421875;0.046875;-0.3818359375;-6.3125;-6.125;-3.75;
1441975403425098;-0.82110595703125;0.1834716796875;-0.51251220703125;-0.17181396484375;2.5225124962051932;17.362294231872703;8.14595142052937;0.94140625;0.06396484375;-0.3935546875;-5.1875;-4.3125;-0.625;
1441975403449100;-0.8204345703125;0.18524169921875;-0.5128173828125;-0.1722412109375;2.514843689717309;17.37052006045267;8.128521189719295;0.94091796875;0.07177734375;-0.39013671875;-6.5;-2.9375;2.6875;
1441975403464101;-0.8194580078125;0.1875;-0.513427734375;-0.17254638671875;2.502458477210262;17.38405769366893;8.104314774703047;0.935546875;0.0703125;-0.38916015625;-8.25;-0.3125;6.5625;
1441975403488102;-0.8182373046875;0.1900634765625;-0.51446533203125;-0.1724853515625;2.4848873341018263;17.40466590809878;8.073486415053251;0.9228515625;0.064453125;-0.38623046875;-9.0625;1.5625;9.5625;
1441975403501103;-0.81671142578125;0.19268798828125;-0.5159912109375;-0.1722412109375;2.4611195846531357;17.42879942385822;8.039828654961928;0.919921875;0.05810546875;-0.38525390625;-8.0;3.75;12.5;
1441975403525104;-0.81500244140625;0.19549560546875;-0.51788330078125;-0.171630859375;2.4333812791110354;17.45963109814929;8.000414593617464;0.9208984375;0.06884765625;-0.36669921875;-6.4375;5.875;15.375;
1441975403545105;-0.81304931640625;0.19866943359375;-0.51983642578125;-0.17108154296875;2.403924739585912;17.493534191091268;7.956030547021484;0.92431640625;0.072265625;-0.37744140625;-5.375;8.125;18.375;
1441975403561106;-0.81103515625;0.20208740234375;-0.5218505859375;-0.170654296875;2.3738824073293165;17.528989536475244;7.9086447463060585;0.92236328125;0.0625;-0.37255859375;-6.625;9.0625;19.9375;
1441975403584107;-0.8089599609375;0.20562744140625;-0.52374267578125;-0.17034912109375;2.3449880566603096;17.56482297825689;7.859716874784917;0.89453125;0.0458984375;-0.34765625;-7.9375;9.125;20.1875;
1441975403606109;-0.80682373046875;0.20941162109375;-0.52557373046875;-0.17022705078125;2.316659793623483;17.601388465012974;7.808232605913213;0.87109375;0.03515625;-0.33642578125;-9.625;8.5625;20.3125;
1441975403621110;-0.80450439453125;0.21319580078125;-0.52777099609375;-0.169921875;2.2845742740807453;17.642206957151814;7.753447169254463;0.865234375;0.03271484375;-0.34033203125;-11.0625;9.375;21.125;
1441975403644111;-0.802001953125;0.2166748046875;-0.5302734375;-0.16949462890625;2.249046103150308;17.684272558453106;7.69926699834384;0.90478515625;0.0390625;-0.35791015625;-9.875;11.8125;22.5;
1441975403665112;-0.79937744140625;0.219970703125;-0.53289794921875;-0.16949462890625;2.2112244869485576;17.721525850504158;7.648946631869186;0.97021484375;0.05712890625;-0.40234375;-7.625;15.25;23.5625;
1441975403681113;-0.79644775390625;0.22369384765625;-0.53546142578125;-0.170166015625;2.1716820125385867;17.755850604556986;7.596797915005313;1.025390625;0.0927734375;-0.43603515625;-7.875;18.0625;24.625;
1441975403704114;-0.793212890625;0.228271484375;-0.5379638671875;-0.1715087890625;2.130905766468889;17.79106988264065;7.537318752025173;1.04931640625;0.10888671875;-0.45654296875;-12.25;20.5625;26.1875;
1441975403734116;-0.7896728515625;0.2332763671875;-0.54052734375;-0.17303466796875;2.088388013498877;17.83037483072884;7.471090542760637;1.02197265625;0.0888671875;-0.45654296875;-18.625;22.5625;27.0;
1441975403741116;-0.78594970703125;0.2384033203125;-0.5433349609375;-0.17425537109375;2.044115560413318;17.878198834787568;7.397175305729159;0.96728515625;0.05712890625;-0.435546875;-21.9375;24.125;27.5;
1441975403764118;-0.7821044921875;0.24322509765625;-0.54656982421875;-0.17474365234375;1.997514202406482;17.9374709412356;7.316297827920743;0.9150390625;0.0341796875;-0.4267578125;-20.9375;26.375;28.4375;
1441975403785119;-0.7783203125;0.2474365234375;-0.55010986328125;-0.17437744140625;1.950979508141117;0.006789576440579022;7.231599621211167;0.8701171875;0.0146484375;-0.4091796875;-16.75;28.5625;29.1875;
1441975403801120;-0.77496337890625;0.25091552734375;-0.55364990234375;-0.1732177734375;1.9093386671749193;0.08201408439138695;7.147521295269335;0.845703125;0.0068359375;-0.40234375;-10.0625;29.75;29.3125;
1441975403824121;-0.77178955078125;0.25372314453125;-0.5572509765625;-0.17169189453125;1.8693569896705649;0.1587737408980452;7.066281739173511;0.83349609375;0.00634765625;-0.4091796875;-3.875;29.3125;28.625;
1441975403845122;-0.76885986328125;0.255859375;-0.5609130859375;-0.16986083984375;1.8310717089046895;0.23579180258727866;6.9889872372376125;0.83544921875;0.01611328125;-0.40380859375;0.75;28.875;27.3125;
1441975403863123;-0.76611328125;0.25738525390625;-0.56451416015625;-0.16796875;1.7942581832198676;0.3095899715315733;6.917688127070699;0.86279296875;0.009765625;-0.40966796875;4.5625;29.375;25.625;
1441975403884125;-0.7637939453125;0.25830078125;-0.56781005859375;-0.166015625;1.7621517038570427;0.3770180348687142;6.855530908455941;0.8916015625;0.00732421875;-0.4150390625;7.25;28.6875;22.8125;
1441975403905126;-0.76190185546875;0.2587890625;-0.570556640625;-0.16461181640625;1.7345928011110157;0.4288794497675235;6.808307474105211;0.8955078125;0.0048828125;-0.4140625;9.375;27.0;19.5;
1441975403920127;-0.7603759765625;0.25921630859375;-0.57257080078125;-0.16375732421875;1.7134143915863287;0.4669131240951127;6.7725479101758825;0.9140625;0.0146484375;-0.3974609375;8.4375;23.3125;16.25;
1441975403943128;-0.75921630859375;0.25958251953125;-0.57403564453125;-0.16363525390625;1.6960521798467427;0.48893964170611276;6.749946300228292;0.92578125;0.013671875;-0.3837890625;5.4375;19.125;12.6875;
1441975403965129;-0.7584228515625;0.25994873046875;-0.5748291015625;-0.1640625;1.6842574039912774;0.4967389851038232;6.739049785588749;0.9443359375;0.01025390625;-0.3701171875;1.625;15.3125;9.25;
1441975403980130;-0.7581787109375;0.260009765625;-0.5748291015625;-0.1650390625;1.6790377880142673;0.4848719710745211;6.74656458293637;0.9765625;0.001953125;-0.3623046875;-1.1875;11.1875;5.4375;
1441975404003131;-0.75860595703125;0.259765625;-0.573974609375;-0.166259765625;1.682959507994721;0.4565355143679255;6.770559073869307;0.974609375;-0.0087890625;-0.3505859375;-3.75;6.25;0.25;
1441975404025133;-0.75970458984375;0.259033203125;-0.572509765625;-0.16766357421875;1.693905029184061;0.4128573999562312;6.81116114510096;0.93994140625;-0.0185546875;-0.33349609375;-4.5625;0.4375;-4.8125;
1441975404048134;-0.76129150390625;0.257568359375;-0.570556640625;-0.169189453125;1.7096240861739547;0.3547173716853236;6.868605410595464;0.93017578125;-0.0205078125;-0.32861328125;-4.25;-3.9375;-9.5;
1441975404064135;-0.7635498046875;0.25531005859375;-0.568115234375;-0.1705322265625;1.7327241315508453;0.28587262031052485;6.940794190778334;0.908203125;-0.0224609375;-0.322265625;-2.9375;-7.3125;-14.625;
1441975404086136;-0.76629638671875;0.252197265625;-0.56549072265625;-0.171630859375;1.7600409917026163;0.2104138782348805;7.024270230956399;0.876953125;-0.01904296875;-0.3251953125;0.4375;-10.1875;-19.375;
1441975404102137;-0.769287109375;0.2484130859375;-0.562744140625;-0.17279052734375;1.7894554129169793;0.1280940121526474;7.117150598321483;0.87255859375;0.0048828125;-0.34130859375;4.625;-11.5625;-22.25;
1441975404130139;-0.7724609375;0.24407958984375;-0.55999755859375;-0.173828125;1.8208031225101278;0.04416224157371337;7.214504505283099;0.908203125;0.03564453125;-0.35546875;7.6875;-12.0;-24.0625;
1441975404146140;-0.775634765625;0.239501953125;-0.55718994140625;-0.17486572265625;1.8539533931285623;17.96064634914072;7.312336213818041;0.94384765625;0.05224609375;-0.37109375;9.6875;-12.625;-25.75;
1441975404162140;-0.77874755859375;0.2349853515625;-0.5543212890625;-0.17645263671875;1.8877812308206074;17.873269944093714;7.411499709799906;0.97216796875;0.06298828125;-0.37744140625;10.5625;-13.1875;-27.125;
1441975404184142;-0.78143310546875;0.2310791015625;-0.55145263671875;-0.1787109375;1.920100309879907;17.786905082253142;7.504112673938347;0.99853515625;0.07763671875;-0.375;7.875;-13.75;-27.8125;
1441975404205143;-0.7838134765625;0.22784423828125;-0.548583984375;-0.18121337890625;1.9524947743445737;17.707287655320435;7.586018150721569;1.02392578125;0.07861328125;-0.361328125;2.5625;-14.25;-27.875;
1441975404238145;-0.78607177734375;0.224609375;-0.54595947265625;-0.1834716796875;1.9837439986612542;17.634447566803555;7.66225565978493;1.04443359375;0.046875;-0.3603515625;-2.25;-14.1875;-27.8125;
1441975404243145;-0.7884521484375;0.220703125;-0.543701171875;-0.1846923828125;2.014806533740689;17.57220789226793;7.7352079382075924;1.05419921875;0.009765625;-0.349609375;-2.0;-14.1875;-29.8125;
1441975404267147;-0.79107666015625;0.21575927734375;-0.541748046875;-0.18487548828125;2.046548830816353;17.51654221445387;7.810428643697892;1.037109375;-0.02294921875;-0.34765625;4.5;-13.875;-32.3125;
1441975404281147;-0.79400634765625;0.209716796875;-0.5400390625;-0.18438720703125;2.079390247756592;17.461869471628454;7.892309868908234;1.013671875;-0.01953125;-0.35009765625;12.9375;-13.1875;-33.8125;
1441975404303149;-0.79705810546875;0.20281982421875;-0.5384521484375;-0.18341064453125;2.113288513693692;17.408113699102692;7.978895808036895;0.97314453125;0.01513671875;-0.341796875;20.75;-12.625;-34.9375;
1441975404326150;-0.8001708984375;0.19525146484375;-0.5372314453125;-0.181884765625;2.14572369095147;17.35810785434505;8.06709152376024;0.92724609375;0.05615234375;-0.33251953125;26.875;-11.625;-34.625;
1441975404348151;-0.80340576171875;0.18701171875;-0.5361328125;-0.17950439453125;2.1795412169687407;17.31532773407254;8.154434188355488;0.8857421875;0.08056640625;-0.31396484375;32.25;-10.6875;-34.5625;
1441975404364152;-0.80657958984375;0.17889404296875;-0.5350341796875;-0.1767578125;2.2140217073156654;17.280177481565318;8.23510418610671;0.84375;0.0908203125;-0.31201171875;38.6875;-10.4375;-34.5;
1441975404393154;-0.809326171875;0.17095947265625;-0.5343017578125;-0.1741943359375;2.242863076576791;17.245968015940107;8.313356748465335;0.82470703125;0.099609375;-0.296875;40.375;-11.0625;-32.4375;
1441975404408155;-0.8116455078125;0.16265869140625;-0.5341796875;-0.17156982421875;2.2641129673260125;17.210678411041712;8.39462714634128;0.8388671875;0.11376953125;-0.28271484375;39.0625;-9.875;-30.875;
1441975404424155;-0.81396484375;0.1539306640625;-0.53436279296875;-0.16827392578125;2.2835294839675475;17.181182946719083;8.474846248653723;0.8681640625;0.14501953125;-0.26123046875;41.6875;-7.625;-29.9375;
1441975404453157;-0.81640625;0.14453125;-0.534423828125;-0.16455078125;2.3060367727383486;17.1525563243258;8.558650180321132;0.91259765625;0.150390625;-0.2841796875;46.0;-6.25;-29.5625;
1441975404468158;-0.81854248046875;0.13525390625;-0.53485107421875;-0.16021728515625;2.3234304160687627;17.132785759354284;8.635663760123418;0.9248046875;0.17529296875;-0.28173828125;50.8125;-7.625;-30.6875;
1441975404483159;-0.82025146484375;0.12701416015625;-0.535400390625;-0.1563720703125;2.336426445553278;17.11542604672845;8.70386202555454;0.9560546875;0.1875;-0.27392578125;53.6875;-7.25;-27.375;
1441975404513161;-0.82159423828125;0.11981201171875;-0.53582763671875;-0.153564453125;2.347936420351585;17.093859493234742;8.767470117868474;0.99267578125;0.208984375;-0.27001953125;48.5;-7.0625;-22.625;
1441975404528161;-0.82281494140625;0.113525390625;-0.5357666015625;-0.1519775390625;2.36333799324256;17.065624752526553;8.828600006429133;1.01171875;0.21533203125;-0.2607421875;40.125;-8.0625;-20.875;
1441975404546162;-0.82373046875;0.1082763671875;-0.535400390625;-0.15216064453125;2.380205153761346;17.024918598909334;8.890327396764874;1.02294921875;0.2080078125;-0.24755859375;31.25;-10.9375;-21.5;
1441975404583165;-0.82452392578125;0.1041259765625;-0.53448486328125;-0.154296875;2.402408669860052;16.970977120748742;8.952366875037873;1.0263671875;0.19970703125;-0.2177734375;18.875;-13.5625;-23.1875;
1441975404605166;-0.8251953125;0.1007080078125;-0.533203125;-0.1573486328125;2.428012271215272;16.91328647224457;9.011075840513243;1.00634765625;0.19091796875;-0.20361328125;5.9375;-15.75;-25.375;
1441975404607166;-0.82586669921875;0.09735107421875;-0.53167724609375;-0.16094970703125;2.4574881830105446;16.851421959011088;9.071284675951443;0.98828125;0.14453125;-0.201171875;-2.625;-17.0;-28.4375;
1441975404626167;-0.82672119140625;0.09326171875;-0.530029296875;-0.16424560546875;2.491387423282159;16.7899046960279;9.135420597382716;0.9697265625;0.1103515625;-0.203125;-6.375;-17.4375;-32.625;
1441975404665169;-0.82769775390625;0.0882568359375;-0.5284423828125;-0.16717529296875;2.5280898472559126;16.727985350434714;9.20533231913539;0.9501953125;0.10400390625;-0.21533203125;-3.25;-16.5;-36.125;
1441975404667169;-0.8287353515625;0.08251953125;-0.52691650390625;-0.1700439453125;2.56756263250404;16.66374641238918;9.280908874986086;0.9267578125;0.11474609375;-0.23193359375;1.5625;-14.75;-39.25;
1441975404685170;-0.82965087890625;0.07672119140625;-0.52532958984375;-0.1729736328125;2.6086138847840514;16.60036508883588;9.355506383821197;0.90283203125;0.15625;-0.2529296875;4.6875;-12.125;-40.375;
1441975404708172;-0.830322265625;0.0712890625;-0.52410888671875;-0.1756591796875;2.6446978805612686;16.54228799658357;9.42441019821779;0.88134765625;0.18505859375;-0.28173828125;4.625;-9.6875;-39.4375;
1441975404724173;-0.83062744140625;0.06634521484375;-0.5234375;-0.17816162109375;2.6729602096076612;16.48814370081687;9.488282231891217;0.87109375;0.20458984375;-0.3056640625;4.5;-5.875;-36.0;
1441975404754174;-0.83050537109375;0.06195068359375;-0.52337646484375;-0.18048095703125;2.6921162572019983;16.437243734692945;9.547553731473819;0.86865234375;0.212890625;-0.3212890625;3.6875;-1.625;-32.1875;
1441975404768175;-0.830078125;0.05828857421875;-0.5238037109375;-0.182373046875;2.702538361218913;16.393282944539937;9.598774103519633;0.86572265625;0.24365234375;-0.32666015625;3.375;2.5625;-27.0625;
1441975404783176;-0.8292236328125;0.05584716796875;-0.52484130859375;-0.18408203125;2.7011493227744787;16.35532421921702;9.639870876788025;0.861328125;0.26416015625;-0.3427734375;3.0;5.6875;-20.4375;
1441975404805177;-0.82781982421875;0.0548095703125;-0.52655029296875;-0.18572998046875;2.6861556746052866;16.32205911889431;9.670854480610455;0.8701171875;0.28076171875;-0.35107421875;-0.0625;9.3125;-12.8125;
1441975404828179;-0.8260498046875;0.05517578125;-0.5286865234375;-0.18743896484375;2.660868642921926;16.293394356463065;9.691279777398153;0.87890625;0.279296875;-0.36083984375;-4.625;13.3125;-5.6875;
1441975404843179;-0.8240966796875;0.05645751953125;-0.5311279296875;-0.18896484375;2.6282167262356997;16.269925410075725;9.703609726670187;0.873046875;0.2578125;-0.35205078125;-9.8125;15.0;0.0;
1441975404867181;-0.8218994140625;0.05865478515625;-0.53399658203125;-0.189697265625;2.5848573151747023;16.257363334792235;9.70468664136832;0.85693359375;0.244140625;-0.35205078125;-12.25;16.875;5.125;
1441975404888182;-0.81951904296875;0.06182861328125;-0.53741455078125;-0.189453125;2.529195223948481;16.25832726532282;9.69253426206153;0.87939453125;0.224609375;-0.3662109375;-12.6875;18.8125;10.75;
1441975404903183;-0.81707763671875;0.06512451171875;-0.54119873046875;-0.18792724609375;2.4657665657231416;16.27255841294897;9.672099630325103;0.923828125;0.193359375;-0.37548828125;-11.4375;20.9375;16.625;
1441975404925184;-0.8148193359375;0.06854248046875;-0.54486083984375;-0.1859130859375;2.4027203737834544;16.295098783626013;9.64490798328704;0.93701171875;0.171875;-0.37109375;-6.4375;22.3125;20.5625;
1441975404948185;-0.81256103515625;0.0726318359375;-0.54840087890625;-0.18377685546875;2.338332627474104;16.3255770148657;9.607462686318634;0.921875;0.177734375;-0.36328125;-3.875;21.0;23.5625;
1441975404964186;-0.81005859375;0.07794189453125;-0.55206298828125;-0.18170166015625;2.2679406637194446;16.364954216798406;9.555837381734491;0.9501953125;0.2119140625;-0.3583984375;-4.625;19.4375;29.4375;
1441975404994188;-0.80731201171875;0.083984375;-0.5556640625;-0.1802978515625;2.196652867070287;16.40415370662025;9.498493583534385;1.03564453125;0.20947265625;-0.38818359375;-8.9375;19.9375;34.625;
1441975405017189;-0.80474853515625;0.09014892578125;-0.5587158203125;-0.17938232421875;2.1328352669581996;16.44413566721875;9.4376515990959;1.0546875;0.17822265625;-0.37939453125;-15.4375;19.5;34.3125;
1441975405030190;-0.8023681640625;0.09661865234375;-0.5611572265625;-0.17919921875;2.0770755053224814;16.4832643928161;9.373170921092882;0.98095703125;0.13037109375;-0.35302734375;-18.125;17.1875;31.5;
1441975405045191;-0.800048828125;0.10382080078125;-0.56292724609375;-0.1796875;2.027841714837338;16.525382331500733;9.29958192926093;0.8759765625;0.10107421875;-0.3232421875;-23.0625;14.375;29.8125;
1441975405068192;-0.79766845703125;0.11175537109375;-0.56451416015625;-0.1805419921875;1.979512370205155;16.572583752803375;9.216327655429327;0.81787109375;0.0859375;-0.3193359375;-28.875;12.1875;30.3125;
1441975405083193;-0.79547119140625;0.119384765625;-0.56573486328125;-0.181640625;1.9378064593494222;16.618381087578268;9.134615131959002;0.86865234375;0.080078125;-0.33056640625;-33.125;10.875;32.125;
1441975405113195;-0.7939453125;0.126220703125;-0.5660400390625;-0.18292236328125;1.9116965543445366;16.66111369427099;9.058237419640951;0.9248046875;0.103515625;-0.33740234375;-32.8125;8.75;30.875;
1441975405128196;-0.79290771484375;0.1329345703125;-0.5654296875;-0.1844482421875;1.8984632822218992;16.70443707362818;8.980411019968757;0.89306640625;0.11083984375;-0.3193359375;-30.25;3.0;26.1875;
1441975405144197;-0.7919921875;0.1396484375;-0.564453125;-0.18634033203125;1.8906193411565053;16.744514197932514;8.904147714972458;0.84619140625;0.0908203125;-0.291015625;-31.4375;-3.5625;23.25;
1441975405165198;-0.79132080078125;0.14581298828125;-0.5631103515625;-0.1885986328125;1.8898213677821025;16.775610721395875;8.83748372752721;0.81103515625;0.04345703125;-0.26708984375;-33.75;-6.0625;19.125;
1441975405188199;-0.7908935546875;0.15106201171875;-0.5615234375;-0.19091796875;1.894939411119368;16.797594013074548;8.783338235078359;0.78857421875;0.0283203125;-0.26171875;-33.75;-7.8125;14.25;
1441975405205200;-0.790771484375;0.1553955078125;-0.5595703125;-0.193603515625;1.9075292263233514;16.80625294273634;8.7446344150719;0.8037109375;0.025390625;-0.2763671875;-31.5;-8.0625;9.3125;
1441975405225201;-0.79083251953125;0.1588134765625;-0.557373046875;-0.19696044921875;1.9257327219687388;16.79686646554937;8.724871034320337;0.83642578125;0.05224609375;-0.29638671875;-29.625;-8.6875;4.625;
1441975405248203;-0.7908935546875;0.16204833984375;-0.5548095703125;-0.2012939453125;1.9484775009047925;16.772601408210353;8.716431391112792;0.888671875;0.09130859375;-0.31689453125;-28.8125;-8.9375;-0.1875;
1441975405264204;-0.79071044921875;0.16522216796875;-0.55242919921875;-0.2059326171875;1.9682919519578899;16.74286669180985;8.71240618678343;0.92333984375;0.11328125;-0.3486328125;-33.4375;-8.0625;-3.6875;
1441975405294205;-0.79046630859375;0.16754150390625;-0.550537109375;-0.20989990234375;1.9840164362428785;16.713398659919257;8.71461237515904;0.92578125;0.10986328125;-0.3447265625;-34.8125;-6.6875;-4.875;
1441975405308206;-0.79034423828125;0.16845703125;-0.5491943359375;-0.21319580078125;1.9973535082833132;16.67934267281975;8.730359696694592;0.90576171875;0.08203125;-0.33203125;-28.9375;-4.25;-7.9375;
1441975405324207;-0.78997802734375;0.1690673828125;-0.5482177734375;-0.2164306640625;2.0063871471015737;16.642265106961396;8.750708749491162;0.86669921875;0.09765625;-0.32373046875;-20.5625;-1.0625;-10.6875;
1441975405346208;-0.7894287109375;0.1695556640625;-0.54742431640625;-0.22003173828125;2.0134337629136456;16.598559683989954;8.776715736570875;0.84130859375;0.12744140625;-0.32861328125;-18.8125;2.8125;-9.125;
1441975405369210;-0.78863525390625;0.1697998046875;-0.54705810546875;-0.22381591796875;2.016038471740928;16.548819087737495;8.809208126702183;0.81298828125;0.12841796875;-0.3291015625;-20.375;5.375;-10.375;
1441975405384210;-0.78765869140625;0.1695556640625;-0.54693603515625;-0.2275390625;2.0166505358281914;16.49435999539928;8.848657614870469;0.77001953125;0.12451171875;-0.30322265625;-20.25;7.75;-11.375;
1441975405405212;-0.78656005859375;0.16925048828125;-0.54705810546875;-0.231201171875;2.014834809560895;16.439189807769708;8.889442447226088;0.7578125;0.12939453125;-0.29736328125;-18.125;10.25;-12.4375;
1441975405428213;-0.78533935546875;0.1688232421875;-0.54742431640625;-0.23486328125;2.01089036113744;16.381762067665537;8.933111769368105;0.7431640625;0.12255859375;-0.29150390625;-17.875;11.6875;-12.9375;
1441975405444214;-0.7838134765625;0.16845703125;-0.54827880859375;-0.23822021484375;2.000503795357825;16.326209166754126;8.976089216827182;0.7197265625;0.1318359375;-0.29052734375;-17.625;13.9375;-12.4375;
1441975405473215;-0.7816162109375;0.16790771484375;-0.54986572265625;-0.24200439453125;1.9813067984831259;16.25789888310963;9.030942371162997;0.7060546875;0.10693359375;-0.27197265625;-16.8125;16.125;-11.625;
1441975405488216;-0.77972412109375;0.16644287109375;-0.55145263671875;-0.2454833984375;1.967002536861127;16.185340753642198;9.09521610989033;0.70458984375;0.107421875;-0.25244140625;-18.1875;21.1875;-12.75;
1441975405504217;-0.77764892578125;0.16522216796875;-0.55328369140625;-0.248779296875;1.9493161596753648;16.114749554846487;9.157361471168093;0.701171875;0.15478515625;-0.25927734375;-12.6875;22.4375;-13.125;
1441975405541219;-0.7752685546875;0.1639404296875;-0.5557861328125;-0.25146484375;1.9235962258267898;16.0463286005445;9.22042337361655;0.7333984375;0.1474609375;-0.2734375;-13.0;23.9375;-11.875;
1441975405548220;-0.77252197265625;0.16156005859375;-0.5594482421875;-0.25341796875;1.8885586244246266;15.968709158398614;9.300837942077546;0.79150390625;0.13818359375;-0.27001953125;-10.5;26.625;-11.125;
1441975405572221;-0.76947021484375;0.1585693359375;-0.56378173828125;-0.2548828125;1.8482916592413536;15.883980408057264;9.3931112452233;0.82373046875;0.14013671875;-0.24365234375;-3.0;32.1875;-11.5;
1441975405586222;-0.76593017578125;0.15594482421875;-0.56884765625;-0.2559814453125;1.7981701330832276;15.79687262995909;9.488050576180473;0.84619140625;0.20263671875;-0.23583984375;2.75;36.4375;-8.0;
1441975405608223;-0.76202392578125;0.15435791015625;-0.573974609375;-0.2572021484375;1.7433481951694232;15.710203131414548;9.57762961671653;0.9189453125;0.24365234375;-0.2490234375;2.9375;40.9375;-2.0625;
1441975405625224;-0.75762939453125;0.15374755859375;-0.5791015625;-0.259033203125;1.6853947656857164;15.61548374234846;9.668454332341872;0.9697265625;0.236328125;-0.2763671875;-2.0;42.9375;1.25;
1441975405645225;-0.7528076171875;0.15423583984375;-0.584228515625;-0.26129150390625;1.6234744594649302;15.515910201957123;9.757657113862226;0.97216796875;0.22705078125;-0.2470703125;-8.6875;42.4375;3.3125;
1441975405668227;-0.747802734375;0.1561279296875;-0.5892333984375;-0.26312255859375;1.5547528499235101;15.429039638249733;9.829989724568879;0.9482421875;0.224609375;-0.193359375;-14.125;40.4375;7.5;
1441975405684228;-0.7432861328125;0.157958984375;-0.594482421875;-0.26324462890625;1.4810448907114002;15.362095192790466;9.890215972507908;0.9326171875;0.18115234375;-0.14111328125;-17.125;35.9375;12.375;
1441975405705229;-0.7392578125;0.1588134765625;-0.59991455078125;-0.2615966796875;1.4064990350072688;15.307888373135352;9.949233142543221;0.9228515625;0.11669921875;-0.12353515625;-9.3125;33.4375;14.125;
1441975405728230;-0.736083984375;0.158935546875;-0.6044921875;-0.25994873046875;1.3472536719401398;15.256850195473357;10.007925583016016;0.9189453125;0.07470703125;-0.12060546875;1.8125;32.875;13.375;
1441975405744231;-0.7332763671875;0.1605224609375;-0.60760498046875;-0.25958251953125;1.2993764775743755;15.21785648711558;10.042539467398957;0.92626953125;0.14501953125;-0.10009765625;6.0625;26.6875;13.375;
1441975405765232;-0.73089599609375;0.164306640625;-0.60906982421875;-0.26055908203125;1.260561921757692;15.20480349427106;10.035959833416962;0.94775390625;0.17431640625;-0.08740234375;-4.9375;17.6875;15.0;
1441975405789234;-0.72802734375;0.16986083984375;-0.610107421875;-0.26263427734375;1.2179924233993622;15.194745022955352;10.014133103021788;0.9443359375;0.13037109375;-0.06884765625;-19.125;6.375;13.5625;
1441975405813235;-0.72552490234375;0.17523193359375;-0.61083984375;-0.26422119140625;1.1782753998875781;15.19937347529463;9.980321822367232;0.9814453125;0.07421875;-0.03369140625;-31.3125;2.3125;13.375;
1441975405825236;-0.72381591796875;0.17987060546875;-0.61102294921875;-0.2655029296875;1.149361035278141;15.217140557327786;9.937714223188106;1.0341796875;0.0224609375;-0.03759765625;-28.625;-0.75;9.6875;
1441975405848237;-0.72235107421875;0.18414306640625;-0.61083984375;-0.26702880859375;1.1275693051908995;15.234008426645564;9.896332263869162;1.07080078125;0.037109375;-0.02734375;-24.0625;-5.8125;6.875;
1441975405864238;-0.7208251953125;0.188720703125;-0.6107177734375;-0.26824951171875;1.1021930268713704;15.260919879132913;9.84491708963828;1.06884765625;0.0673828125;0.0078125;-23.1875;-9.3125;6.125;
1441975405885239;-0.71917724609375;0.193115234375;-0.6114501953125;-0.2677001953125;1.063191743327027;15.310072633988478;9.77975678709861;1.0302734375;0.025390625;0.0419921875;-22.9375;-12.0;6.6875;
1441975405908240;-0.718505859375;0.1956787109375;-0.6124267578125;-0.265380859375;1.0298605862686097;15.37924864439424;9.71004858833892;0.994140625;-0.04443359375;0.0537109375;-14.375;-9.9375;9.5;
1441975405932242;-0.718505859375;0.19635009765625;-0.61346435546875;-0.26251220703125;1.0071690164527218;15.439288983553833;9.659833566744874;0.9970703125;-0.0068359375;0.013671875;0.6875;-8.8125;10.5;
1441975405945242;-0.71826171875;0.1978759765625;-0.6142578125;-0.2601318359375;0.9833596026502691;15.506348490703783;9.596786759558395;1.01123046875;0.0859375;0.0302734375;11.5;-9.8125;10.8125;
1441975405968244;-0.71728515625;0.20098876953125;-0.61505126953125;-0.2586669921875;0.9521807480045825;15.576739713418526;9.519818023884675;1.025390625;0.1162109375;0.02880859375;6.125;-10.6875;14.5;
1441975405992245;-0.71575927734375;0.20477294921875;-0.616455078125;-0.256591796875;0.9085162226926266;15.667094101095683;9.42273629835727;0.994140625;0.1044921875;0.05517578125;-4.125;-11.125;18.8125;
1441975406021247;-0.714111328125;0.2083740234375;-0.6181640625;-0.25408935546875;0.8619687169254179;15.769043060058959;9.316650742896975;0.97900390625;0.04296875;0.0810546875;-4.625;-10.25;21.875;
1441975406028247;-0.71209716796875;0.2113037109375;-0.62042236328125;-0.25189208984375;0.8130152172970261;15.847552760427222;9.235656015401663;0.966796875;0.04833984375;0.09521484375;-1.8125;-9.0625;24.3125;
1441975406044248;-0.7100830078125;0.21417236328125;-0.62255859375;-0.24969482421875;0.7659457576633288;15.935890524658642;9.144905991741833;0.98779296875;0.0830078125;0.10498046875;-0.0625;-5.125;24.75;
1441975406067249;-0.70831298828125;0.21697998046875;-0.6246337890625;-0.24713134765625;0.7211778518721756;16.049376233043827;9.030891547424261;1.02392578125;0.0732421875;0.09716796875;-0.375;-5.125;23.6875;
1441975406088251;-0.706298828125;0.2200927734375;-0.62652587890625;-0.2454833984375;0.6787041018244376;16.154467691925404;8.920022927466153;1.041015625;0.05908203125;0.091796875;1.375;-6.0;24.0625;
1441975406104252;-0.70416259765625;0.22430419921875;-0.62744140625;-0.245361328125;0.6449766569854433;16.261213709065686;8.795978018565417;1.0498046875;0.09765625;0.107421875;-3.75;-6.0625;25.1875;
1441975406127253;-0.7015380859375;0.23004150390625;-0.62774658203125;-0.24700927734375;0.6137708650318024;16.365422486827693;8.66038386404063;1.07421875;0.12353515625;0.10107421875;-15.0625;-8.75;25.375;
1441975406148254;-0.6983642578125;0.23638916015625;-0.628173828125;-0.24884033203125;0.577832739286935;16.492451984981095;8.49836515090657;1.10546875;0.09814453125;0.0908203125;-29.75;-8.75;23.375;
1441975406164255;-0.69439697265625;0.24261474609375;-0.6295166015625;-0.25048828125;0.5297389184754804;16.632622206329387;8.324549747268746;1.10986328125;0.05078125;0.08935546875;-33.375;-6.375;23.4375;
1441975406187256;-0.68939208984375;0.24884033203125;-0.6319580078125;-0.25201416015625;0.4662030399290933;16.80389710390013;8.120193954089643;1.111328125;0.0439453125;0.09326171875;-32.5625;-0.125;26.1875;
1441975406208258;-0.6837158203125;0.2537841796875;-0.635498046875;-0.253662109375;0.39076337478261286;16.955270483938374;7.940765254291213;1.1484375;0.03466796875;0.1201171875;-31.5;6.4375;29.375;
1441975406224258;-0.67864990234375;0.257568359375;-0.63909912109375;-0.25433349609375;0.321579780092845;17.172316061069573;7.704733969091392;1.201171875;0.0830078125;0.1591796875;-27.0625;13.0;30.625;
1441975406247260;-0.67333984375;0.26104736328125;-0.64306640625;-0.25506591796875;0.25004741273847275;17.488415458951827;7.370757124519931;1.21630859375;0.06689453125;0.09228515625;-17.9375;16.8125;28.4375;
1441975406268261;-0.66790771484375;0.26495361328125;-0.646728515625;-0.2559814453125;0.18637600129551815;0.06713435343275648;6.771231585954695;1.22998046875;0.09033203125;0.07177734375;-17.125;22.0;30.1875;
1441975406284262;-0.66259765625;0.269287109375;-0.6492919921875;-0.25872802734375;0.13763590190299665;0.8255362547622079;5.98206207321972;1.2421875;0.0771484375;0.03564453125;-20.0;24.3125;30.8125;
1441975406307263;-0.65740966796875;0.27520751953125;-0.650146484375;-0.26348876953125;0.11171375393535359;1.790934010194051;4.9699629887770165;1.2587890625;0.17138671875;0.05419921875;-30.375;21.5625;30.9375;
1441975406335265;-0.65234375;0.283203125;-0.64886474609375;-0.27069091796875;0.10522918243848745;2.570157712563115;4.12401021546634;1.31201171875;0.18798828125;0.01611328125;-46.25;18.4375;28.5625;
1441975406344265;-0.64715576171875;0.29248046875;-0.646728515625;-0.2783203125;0.11478738643618569;3.2233480023080507;3.396170767357908;1.3173828125;0.22509765625;-0.03271484375;-66.4375;14.8125;26.8125;
1441975406367267;-0.6427001953125;0.30377197265625;-0.6431884765625;-0.2847900390625;0.15385260685975208;3.3439777520548293;3.196625605314427;1.41748046875;0.1494140625;-0.05908203125;-74.25;12.8125;23.875;
1441975406388268;-0.639892578125;0.3111572265625;-0.63751220703125;-0.29559326171875;0.12757647267776628;2.794869663625685;3.6644199513681763;1.443359375;0.0029296875;-0.1875;-78.6875;8.375;22.25;
1441975406404269;-0.63726806640625;0.3231201171875;-0.62884521484375;-0.3067626953125;0.14908052378491293;1.815243853013044;4.539752637265131;1.44189453125;0.40478515625;-0.0107421875;-81.0625;-3.8125;13.5625;
1441975406427270;-0.62261962890625;0.3291015625;-0.6407470703125;-0.305908203125;0.23852871429461442;5.066241179585094;1.2651977381691086;1.5;0.1474609375;0.07080078125;-104.5;-24.3125;-4.0;
1441975406448271;-0.61614990234375;0.31854248046875;-0.65887451171875;-0.29132080078125;0.41055699199241813;6.0967276498001475;0.3470235065125459;1.7646484375;-0.83056640625;0.45947265625;-23.375;51.8125;18.5625;
1441975406465272;-0.6217041015625;0.3145751953125;-0.65032958984375;-0.30267333984375;0.25121621449300485;6.576937642875682;17.834585521250688;1.45166015625;0.3876953125;-0.28564453125;113.4375;85.3125;68.125;
1441975406487273;-0.62066650390625;0.31671142578125;-0.64794921875;-0.30767822265625;0.23288156247367933;6.773745723710067;17.605696811109176;1.154296875;0.79150390625;-0.189453125;-32.5;-7.8125;-22.625;
1441975406508275;-0.626708984375;0.31024169921875;-0.644287109375;-0.309814453125;0.14247111586555228;7.63011042154124;16.769343583268945;1.43408203125;-0.29638671875;0.015625;-31.5;2.4375;-31.5625;
1441975406524276;-0.6292724609375;0.29986572265625;-0.64715576171875;-0.308837890625;0.16211790812994115;9.057382873322009;15.393061146614604;1.43115234375;0.05126953125;-0.29833984375;20.875;3.3125;-43.3125;
1441975406547277;-0.63409423828125;0.28466796875;-0.650634765625;-0.3060302734375;0.21892073890483219;10.377883166962349;14.152893864612512;1.53173828125;-0.1396484375;0.048828125;51.5625;17.125;-43.1875;
1441975406568278;-0.63690185546875;0.2742919921875;-0.65179443359375;-0.3072509765625;0.29307368869801437;11.069805526258442;13.501397499463755;1.38134765625;0.1689453125;-0.10546875;80.75;27.375;-36.1875;
1441975406592279;-0.63812255859375;0.2698974609375;-0.6512451171875;-0.30963134765625;0.3391048696579326;11.376062621198798;13.203700778426338;1.4111328125;0.2880859375;-0.05517578125;40.0625;21.5625;-27.875;
1441975406607280;-0.63934326171875;0.26641845703125;-0.6513671875;-0.3099365234375;0.3658800767166407;11.524597563014057;13.069130964413393;1.43701171875;0.10693359375;-0.0771484375;8.5625;14.4375;-24.625;
1441975406628282;-0.64190673828125;0.2596435546875;-0.65301513671875;-0.30694580078125;0.39376700864946956;11.657628115957316;12.979207442182663;1.39892578125;-0.0380859375;-0.07958984375;14.0625;12.0625;-22.8125;
1441975406644282;-0.6448974609375;0.25238037109375;-0.65484619140625;-0.30279541015625;0.4164547642997637;11.785374418302737;12.9016867387224;1.31396484375;-0.04931640625;-0.076171875;43.0;13.25;-23.1875;
1441975406666284;-0.646484375;0.24664306640625;-0.65679931640625;-0.29986572265625;0.4393697753204527;11.814088237379917;12.910924546818034;1.22314453125;-0.005859375;-0.0625;50.25;10.3125;-18.0625;
1441975406688285;-0.64794921875;0.24041748046875;-0.65936279296875;-0.296142578125;0.46100737954982274;11.805504696061806;12.963023577801428;1.19287109375;-0.01708984375;-0.0458984375;37.75;13.375;-15.75;
1441975406704286;-0.64935302734375;0.23455810546875;-0.6622314453125;-0.2913818359375;0.4722137461281966;11.76898687194775;13.045955034667122;1.15869140625;-0.03515625;-0.04052734375;43.25;16.25;-14.4375;
1441975406727287;-0.65130615234375;0.23101806640625;-0.6636962890625;-0.28643798828125;0.4602436749541712;11.795899174824926;13.056127267134068;1.08642578125;-0.05810546875;-0.056640625;46.0625;16.25;-10.1875;
1441975406748288;-0.65264892578125;0.2310791015625;-0.66448974609375;-0.281494140625;0.4196869373408918;11.775942527707564;13.097674539078557;1.00390625;0.025390625;-0.07470703125;36.375;5.875;2.5;
1441975406764289;-0.6531982421875;0.23345947265625;-0.665283203125;-0.2762451171875;0.36029364065414626;11.654587056913716;13.23183964548847;0.99169921875;0.00732421875;-0.078125;21.0;-0.5625;15.0;
1441975406787291;-0.654296875;0.2347412109375;-0.666748046875;-0.2689208984375;0.2947777113631393;11.45570862867933;13.457304588967606;0.9853515625;-0.08642578125;-0.05224609375;12.9375;-3.6875;19.8125;
1441975406808292;-0.6566162109375;0.23236083984375;-0.66900634765625;-0.25958251953125;0.242353577207611;11.258347084431398;13.705645574191193;0.94677734375;-0.19091796875;-0.07470703125;26.25;-3.0625;17.625;
1441975406824293;-0.66033935546875;0.22552490234375;-0.672607421875;-0.24652099609375;0.19704262206525555;11.010060686001884;14.039845018039623;0.8798828125;-0.263671875;-0.02978515625;51.125;-5.0625;6.875;
1441975406847294;-0.66497802734375;0.2142333984375;-0.67694091796875;-0.23175048828125;0.17188177634840718;10.864283311507073;14.297305031057395;0.8115234375;-0.24853515625;-0.03759765625;86.25;-3.75;5.9375;
1441975406869295;-0.6695556640625;0.200927734375;-0.6822509765625;-0.21441650390625;0.15008807318679362;10.482803263326359;14.809232804433538;0.78076171875;-0.234375;-0.05908203125;111.375;-3.125;10.0;
1441975406884296;-0.67340087890625;0.18572998046875;-0.688720703125;-0.19427490234375;0.1421386135181192;9.678168650993642;15.763026638351697;0.8173828125;-0.19189453125;-0.04052734375;130.3125;-0.125;14.8125;
1441975406906297;-0.6761474609375;0.16986083984375;-0.69580078125;-0.1729736328125;0.1612312359821923;8.748489537929935;16.84848588895142;0.859375;-0.08740234375;-0.01318359375;149.0;5.875;22.375;
1441975406928299;-0.6776123046875;0.15411376953125;-0.70306396484375;-0.15142822265625;0.20737268057689606;8.07491553388257;17.6772465572521;0.92578125;0.02001953125;0.0283203125;155.25;11.5625;28.0;
1441975406952300;-0.67767333984375;0.1395263671875;-0.710205078125;-0.13031005859375;0.27398886397671085;7.659003510490801;0.24075705645655798;0.99365234375;0.09619140625;0.06982421875;154.75;16.125;32.5625;
1441975406966301;-0.67620849609375;0.12701416015625;-0.71734619140625;-0.10986328125;0.3611933537414675;7.386054585999939;0.6492481971774278;0.99365234375;0.2138671875;0.1318359375;146.9375;20.0625;38.4375;
1441975406992302;-0.6732177734375;0.11700439453125;-0.72454833984375;-0.0904541015625;0.46838311907372;7.210391607518872;0.9453791855258571;0.966796875;0.271484375;0.16796875;134.875;24.1875;46.375;
1441975407006303;-0.66888427734375;0.1082763671875;-0.73199462890625;-0.07135009765625;0.5927297008514127;7.118049741248736;1.1512672508787316;0.96875;0.24267578125;0.1943359375;119.0;30.0625;52.5625;
1441975407026304;-0.6630859375;0.1005859375;-0.7398681640625;-0.052978515625;0.7325352235753293;7.097658075774902;1.2776809516345315;0.79150390625;0.255859375;0.10791015625;112.375;37.5625;57.5625;
1441975407048306;-0.6585693359375;0.091552734375;-0.74603271484375;-0.03826904296875;0.8305346424468151;7.168456524344409;1.3034816469977728;0.693359375;0.279296875;-0.10498046875;104.875;49.1875;60.0625;
1441975407064306;-0.64752197265625;0.08245849609375;-0.75714111328125;-0.027099609375;0.9962808973810477;7.437295158893041;1.1167235601849264;0.93896484375;0.3603515625;-0.0830078125;94.125;49.5625;63.6875;
1441975407087308;-0.6416015625;0.0789794921875;-0.7628173828125;-0.01513671875;1.1118333908650626;7.4195454430588175;1.1970639030706605;1.599609375;0.435546875;0.7470703125;75.625;49.125;62.5;
1441975407109309;-0.63592529296875;0.07562255859375;-0.76806640625;-0.0081787109375;1.2042658569154576;7.477237965867737;1.1811810074692017;0.3544921875;0.20556640625;-0.0205078125;59.3125;46.625;59.0;
1441975407124310;-0.6248779296875;0.07427978515625;-0.7772216796875;-0.00103759765625;1.3729075686206063;7.562417480089105;1.1300990482729278;1.15234375;0.39013671875;0.16943359375;35.75;43.875;56.75;
1441975407146311;-0.62176513671875;0.07611083984375;-0.779541015625;0.00628662109375;1.446030659589769;7.478594815417126;1.2361479621118379;1.15087890625;0.18017578125;0.82177734375;26.5;38.9375;53.3125;
1441975407169312;-0.6173095703125;0.07513427734375;-0.7830810546875;0.01031494140625;1.5155554723618723;7.504019603752492;1.230966802598299;0.24365234375;0.04931640625;-0.15380859375;19.8125;33.0625;46.0;
1441975407184313;-0.61309814453125;0.0760498046875;-0.78631591796875;0.01275634765625;1.5821882604002826;7.51334135059165;1.2276946796255221;0.85107421875;0.17626953125;0.23486328125;15.4375;28.3125;36.3125;
1441975407206315;-0.61114501953125;0.07769775390625;-0.78765869140625;0.0128173828125;1.6125818939487362;7.50979460648289;1.2246421095347417;0.89599609375;0.08056640625;0.33984375;1.6875;21.125;29.625;
1441975407229316;-0.610595703125;0.08123779296875;-0.7877197265625;0.01068115234375;1.6223391334857482;7.48421176171825;1.2269283718806785;0.8193359375;0.0791015625;0.283203125;-10.6875;8.4375;20.3125;
1441975407244317;-0.61114501953125;0.08758544921875;-0.78668212890625;0.0072021484375;1.6218076121738145;7.417017518465189;1.253860450198665;0.7705078125;0.09619140625;0.275390625;-27.8125;-1.6875;16.8125;
1441975407267318;-0.61224365234375;0.0955810546875;-0.784912109375;0.0028076171875;1.6155896827315663;7.326300264790118;1.2938040356550937;0.77880859375;0.0712890625;0.2802734375;-45.25;-9.8125;19.25;
1441975407290319;-0.61322021484375;0.10333251953125;-0.78314208984375;-0.0030517578125;1.6039428910429387;7.254795845009028;1.3095279968490883;0.82958984375;0.013671875;0.3193359375;-56.0;-16.625;17.625;
1441975407310321;-0.61773681640625;0.1129150390625;-0.77825927734375;-0.00830078125;1.5572345841497859;7.097233151905607;1.4065062322004172;1.05029296875;9.765625E-4;0.48486328125;-61.8125;-23.25;12.3125;
1441975407326321;-0.62200927734375;0.12384033203125;-0.7730712890625;-0.0159912109375;1.50822677470533;6.937585830222653;1.4900394860598083;0.0205078125;-0.03955078125;-0.0498046875;-63.5625;-31.125;4.875;
1441975407349323;-0.628662109375;0.13458251953125;-0.76556396484375;-0.0255126953125;1.4219052166717907;6.745260386497956;1.5996965788237816;0.20654296875;-0.08154296875;0.1396484375;-79.5625;-39.5;-1.5625;
1441975407372324;-0.634765625;0.1468505859375;-0.75787353515625;-0.0352783203125;1.3492838851320321;6.518162835452497;1.7367533844413747;0.69091796875;0.0048828125;0.14501953125;-88.125;-51.75;-0.4375;
1441975407388325;-0.64105224609375;0.15850830078125;-0.74969482421875;-0.04437255859375;1.2794165181076598;6.264390193653348;1.905638836736941;0.79931640625;-0.1201171875;0.12158203125;-94.5;-48.6875;-2.6875;
1441975407411326;-0.64776611328125;0.16864013671875;-0.74114990234375;-0.05194091796875;1.213317890934443;5.982151902364829;2.1154402634455884;0.81787109375;-0.150390625;0.11328125;-89.25;-52.375;-4.0625;
1441975407430327;-0.6549072265625;0.1773681640625;-0.73223876953125;-0.0589599609375;1.14784599888237;5.673980644358627;2.359154304298039;0.85888671875;-0.17822265625;0.064453125;-77.125;-53.75;-4.75;
1441975407446328;-0.66204833984375;0.185302734375;-0.7232666015625;-0.0655517578125;1.0913825921666116;5.340637220031075;2.6329661335116805;0.884765625;-0.15234375;0.0146484375;-68.875;-55.4375;-6.0625;
1441975407469330;-0.6685791015625;0.19287109375;-0.714599609375;-0.07232666015625;1.0469271604330912;5.0020911510251524;2.9125447804753546;0.89306640625;-0.15576171875;-0.02197265625;-63.6875;-54.6875;-7.6875;
1441975407491331;-0.674560546875;0.20068359375;-0.7060546875;-0.0794677734375;1.0160665237562512;4.6546949692658295;3.198246223227447;0.89404296875;-0.15283203125;-0.0712890625;-62.6875;-48.8125;-9.0625;
1441975407506332;-0.68011474609375;0.208984375;-0.6973876953125;-0.08648681640625;1.003650602199912;4.2959894137955965;3.4933733217872973;0.90380859375;-0.1494140625;-0.13037109375;-64.625;-42.9375;-8.5625;
1441975407529333;-0.6851806640625;0.21728515625;-0.68896484375;-0.09344482421875;1.0051710377432053;3.9504232518263325;3.7753994316018815;0.91943359375;-0.169921875;-0.189453125;-66.1875;-39.3125;-7.5;
1441975407550334;-0.689697265625;0.22601318359375;-0.68072509765625;-0.09991455078125;1.0256413239685531;3.6276013958925053;4.0345863609302235;0.94384765625;-0.1689453125;-0.2109375;-65.6875;-36.75;-6.0625;
1441975407566335;-0.69317626953125;0.2349853515625;-0.67303466796875;-0.1064453125;1.0557328974724225;3.3531509821505336;4.243706502482262;0.96728515625;-0.1923828125;-0.27294921875;-65.3125;-31.375;-3.0625;
1441975407589337;-0.696044921875;0.24383544921875;-0.66583251953125;-0.11309814453125;1.0888690351194934;3.115075585254723;4.416295342927959;0.96533203125;-0.2314453125;-0.29345703125;-66.4375;-25.25;-3.75;
1441975407610338;-0.69866943359375;0.25250244140625;-0.65887451171875;-0.11846923828125;1.1347352025285797;2.9089888326993525;4.562622477925668;0.9091796875;-0.265625;-0.30078125;-66.5625;-21.125;-6.5625;
1441975407626339;-0.70086669921875;0.2608642578125;-0.6524658203125;-0.122802734375;1.187535825310306;2.742634978688674;4.674572581130116;0.845703125;-0.31103515625;-0.33984375;-60.9375;-18.8125;-5.8125;
1441975407649340;-0.7027587890625;0.26788330078125;-0.64691162109375;-0.12628173828125;1.2357368228146601;2.6097846703882484;4.762195190214102;0.85009765625;-0.35546875;-0.36865234375;-55.0625;-15.0;-4.75;
1441975407670341;-0.704833984375;0.27294921875;-0.64202880859375;-0.12872314453125;1.2772415198540021;2.4931288681568318;4.846265102223439;0.880859375;-0.3603515625;-0.39013671875;-45.8125;-10.8125;-6.0;
1441975407686342;-0.70721435546875;0.2772216796875;-0.63714599609375;-0.13067626953125;1.3190739044852158;2.378370314710753;4.933775727185512;0.88671875;-0.33642578125;-0.40673828125;-33.25;-8.375;-8.25;
1441975407709343;-0.70928955078125;0.281982421875;-0.63238525390625;-0.13226318359375;1.3670683953764935;2.2827092838745635;5.001469772227587;0.90771484375;-0.27783203125;-0.4384765625;-27.125;-8.3125;-5.5625;
1441975407730345;-0.711181640625;0.28662109375;-0.6279296875;-0.1336669921875;1.4145794792041544;2.2008024703535076;5.056719865048619;0.94873046875;-0.29248046875;-0.447265625;-27.8125;-8.3125;-2.25;
1441975407746346;-0.713134765625;0.2900390625;-0.6240234375;-0.13421630859375;1.4583490491949387;2.1316262402762747;5.108047507411815;0.95556640625;-0.318359375;-0.4296875;-27.25;-8.625;-3.1875;
1441975407769347;-0.715087890625;0.292724609375;-0.6204833984375;-0.13421630859375;1.499976623254404;2.0720988886399763;5.1551537438461885;0.9345703125;-0.3310546875;-0.4365234375;-18.375;-7.1875;-5.375;
1441975407790348;-0.7171630859375;0.29473876953125;-0.61724853515625;-0.1337890625;1.539566969246937;2.0182532348201723;5.201376478707864;0.900390625;-0.32568359375;-0.435546875;-13.125;-6.25;-6.5625;
1441975407806349;-0.71978759765625;0.29681396484375;-0.6134033203125;-0.1326904296875;1.5898545401739552;1.9595917580759759;5.254707764915412;0.86181640625;-0.2919921875;-0.41748046875;-8.3125;-6.75;-5.3125;
1441975407829350;-0.72308349609375;0.29937744140625;-0.608642578125;-0.13116455078125;1.6541667364155206;1.8927698846755918;5.3156477663945685;0.80224609375;-0.2802734375;-0.4208984375;-6.5625;-12.375;-4.3125;
1441975407850351;-0.7269287109375;0.30206298828125;-0.6031494140625;-0.12872314453125;1.7324572599487145;1.826191900706854;5.379196245138482;0.7587890625;-0.25537109375;-0.41064453125;-7.25;-20.0;-1.3125;
1441975407866352;-0.73089599609375;0.30364990234375;-0.5980224609375;-0.126708984375;1.8002812663575458;1.757561530616175;5.448028172219843;0.76318359375;-0.2197265625;-0.4375;-4.125;-26.0625;3.75;
1441975407889354;-0.7352294921875;0.302490234375;-0.59381103515625;-0.1240234375;1.853073078873338;1.690701466839885;5.530058942644902;0.83154296875;-0.1845703125;-0.416015625;-1.0625;-26.5625;1.25;
1441975407910355;-0.73968505859375;0.300537109375;-0.58966064453125;-0.1221923828125;1.8969708103889136;1.6144364321697895;5.621506723397439;0.869140625;-0.18017578125;-0.40576171875;12.8125;-25.375;-7.4375;
1441975407926356;-0.7449951171875;0.2978515625;-0.58428955078125;-0.12237548828125;1.9371508141234641;1.498620765705906;5.747047290485605;0.87255859375;-0.162109375;-0.36865234375;11.5625;-27.0;-12.9375;
1441975407948357;-0.751220703125;0.2940673828125;-0.57806396484375;-0.122802734375;1.983259199415084;1.3636784641660862;5.895153766268222;0.8759765625;-0.1025390625;-0.38720703125;5.1875;-30.5;-21.375;
1441975407979359;-0.7579345703125;0.28912353515625;-0.57177734375;-0.12274169921875;2.0336815245071724;1.2289774929241768;6.0500370240533625;0.8818359375;-0.142578125;-0.39599609375;6.0;-36.75;-32.5625;
1441975407986359;-0.76531982421875;0.28228759765625;-0.5654296875;-0.122314453125;2.08593617104186;1.087953317489558;6.220905889101077;0.888671875;-0.1611328125;-0.365234375;10.9375;-41.6875;-38.25;
1441975408009361;-0.77264404296875;0.273681640625;-0.55975341796875;-0.12200927734375;2.1301886538017594;0.9463751790712376;6.3996058765596375;0.8935546875;-0.14404296875;-0.375;18.8125;-43.75;-46.25;
1441975408039362;-0.780029296875;0.26385498046875;-0.55413818359375;-0.12225341796875;2.17316936280839;0.797069950738968;6.5888844109391735;0.890625;-0.1337890625;-0.345703125;25.0;-41.875;-53.9375;
1441975408046363;-0.78765869140625;0.25372314453125;-0.54779052734375;-0.12335205078125;2.2260364137292767;0.6378559364922735;6.785397276528505;0.8916015625;-0.09765625;-0.35693359375;26.9375;-40.25;-59.625;
1441975408070364;-0.79534912109375;0.2440185546875;-0.5406494140625;-0.125244140625;2.292292536658459;0.47752993701652635;6.977419254516531;0.88134765625;-0.0498046875;-0.36865234375;23.8125;-42.875;-63.25;
1441975408099366;-0.80230712890625;0.2354736328125;-0.53338623046875;-0.12811279296875;2.3628983902726435;0.326793053856262;7.1504646467427815;0.8798828125;-0.03564453125;-0.37158203125;17.5625;-46.5625;-63.9375;
1441975408107366;-0.80889892578125;0.22698974609375;-0.5264892578125;-0.13067626953125;2.435911642098777;0.19187644491564876;7.308724725123706;0.88037109375;-0.05908203125;-0.33740234375;7.75;-47.375;-63.75;
1441975408128367;-0.81524658203125;0.21826171875;-0.51971435546875;-0.1331787109375;2.5118539562680833;0.0656001184066586;7.459502047499919;0.89111328125;-0.04345703125;-0.314453125;8.9375;-47.75;-62.0625;
1441975408152369;-0.8214111328125;0.20928955078125;-0.51287841796875;-0.13629150390625;2.5908532532280546;17.93953592132781;7.608410302404512;0.92724609375;-0.0458984375;-0.3544921875;9.4375;-45.875;-63.5;
1441975408173370;-0.82708740234375;0.2005615234375;-0.50616455078125;-0.14007568359375;2.67010667772475;17.817074888683123;7.749715332833664;0.93896484375;-0.017578125;-0.38818359375;7.375;-44.0625;-66.0;
1441975408188371;-0.832275390625;0.192138671875;-0.499755859375;-0.14404296875;2.7485297623876512;17.7032769175512;7.880257153199046;0.93798828125;0.02197265625;-0.39111328125;4.125;-41.9375;-64.9375;
1441975408212372;-0.8365478515625;0.184326171875;-0.494384765625;-0.14788818359375;2.8163336899361706;17.603173532004682;7.995304332794747;0.94091796875;0.03369140625;-0.40380859375;2.125;-39.3125;-63.4375;
1441975408233373;-0.83941650390625;0.17706298828125;-0.4912109375;-0.15118408203125;2.85863098101928;17.519653005793455;8.094607794091432;0.9423828125;0.01953125;-0.39697265625;0.5625;-33.5625;-60.375;
1441975408250374;-0.84185791015625;0.16943359375;-0.4888916015625;-0.1536865234375;2.8934284896701645;17.445328526515866;8.189881260305846;0.978515625;0.0546875;-0.3818359375;3.125;-22.5625;-52.0;
1441975408280376;-0.84344482421875;0.16259765625;-0.4876708984375;-0.15618896484375;2.914490261775158;17.37819856888958;8.275000657155267;0.97119140625;0.10498046875;-0.44384765625;10.0625;-14.125;-48.125;
1441975408293377;-0.84381103515625;0.15704345703125;-0.48822021484375;-0.158203125;2.9124723531340355;17.32490827337491;8.343593751427784;0.9423828125;0.126953125;-0.4287109375;8.3125;-7.25;-41.875;
1441975408315378;-0.84356689453125;0.152099609375;-0.48992919921875;-0.158935546875;2.8967156538480596;17.28816056122669;8.39890146915732;0.93359375;0.09912109375;-0.3681640625;6.875;-0.0625;-33.625;
1441975408339379;-0.843017578125;0.14788818359375;-0.49249267578125;-0.15814208984375;2.871261984859529;17.270899015580977;8.438458595531067;0.9150390625;0.12158203125;-0.3623046875;12.625;6.25;-24.25;
1441975408353380;-0.842041015625;0.14361572265625;-0.49554443359375;-0.15771484375;2.838742082906507;17.24871333526369;8.481724215370122;0.94091796875;0.1103515625;-0.3740234375;17.625;9.4375;-16.6875;
1441975408375381;-0.8416748046875;0.1387939453125;-0.49755859375;-0.15765380859375;2.8207673415397334;17.219071368716158;8.532776602826017;0.98779296875;0.19287109375;-0.38623046875;18.625;12.75;-12.625;
1441975408392382;-0.8411865234375;0.13507080078125;-0.49896240234375;-0.158935546875;2.8076433588478835;17.18186327741306;8.580765393931152;1.04833984375;0.2255859375;-0.40576171875;19.125;6.5;-16.3125;
1441975408413384;-0.8408203125;0.1304931640625;-0.50042724609375;-0.1600341796875;2.7961211645609567;17.140900147153957;8.636898889656713;1.08740234375;0.21923828125;-0.35009765625;8.4375;-0.1875;-16.375;
1441975408428385;-0.8411865234375;0.1251220703125;-0.5009765625;-0.1607666015625;2.799418016673824;17.099709439278605;8.69782749183321;1.08056640625;0.2529296875;-0.3076171875;13.6875;-2.0;-18.625;
1441975408452386;-0.8416748046875;0.12078857421875;-0.5001220703125;-0.1641845703125;2.8179970348970165;17.03843319169774;8.762525240899993;1.0185546875;0.24609375;-0.33154296875;17.0;-4.375;-22.8125;
1441975408473387;-0.84246826171875;0.1182861328125;-0.4974365234375;-0.17010498046875;2.8564080680935517;16.96561060211077;8.819727940356568;0.9443359375;0.37841796875;-0.33642578125;3.9375;-8.0625;-18.375;
1441975408488388;-0.843017578125;0.11822509765625;-0.4930419921875;-0.179931640625;2.9105592555667377;16.871025116144008;8.870968028995689;0.93701171875;0.4228515625;-0.373046875;-13.875;-15.25;-17.375;
1441975408512389;-0.84259033203125;0.1220703125;-0.48883056640625;-0.19049072265625;2.951975361542154;16.79211193243896;8.88674975305006;0.88818359375;0.4755859375;-0.34326171875;-39.0625;-22.9375;-15.125;
1441975408533391;-0.84033203125;0.1282958984375;-0.48687744140625;-0.20111083984375;2.9566619961279788;16.721026047366756;8.885087342206226;0.83349609375;0.48388671875;-0.48779296875;-56.8125;-12.4375;2.5;
1441975408548391;-0.8375244140625;0.13385009765625;-0.48681640625;-0.2091064453125;2.9384042240048736;16.668515018583932;8.879624966413285;0.8505859375;0.32763671875;-0.47900390625;-69.5625;0.375;7.0;
1441975408572393;-0.833740234375;0.1405029296875;-0.48944091796875;-0.2137451171875;2.882381619017586;16.650129996310024;8.851071085768437;0.75048828125;0.27392578125;-0.4013671875;-55.125;8.4375;11.6875;
1441975408593394;-0.83074951171875;0.145263671875;-0.4930419921875;-0.21392822265625;2.8206368706880482;16.666304762637683;8.815607123526581;0.6904296875;0.10400390625;-0.3662109375;-45.625;20.25;20.8125;
1441975408608395;-0.82867431640625;0.14874267578125;-0.4959716796875;-0.21282958984375;2.772207908246063;16.69147632246837;8.781783266719847;0.7890625;-0.0458984375;-0.3798828125;-22.1875;20.0;14.4375;
1441975408632396;-0.82696533203125;0.14892578125;-0.4974365234375;-0.2158203125;2.7508287857920264;16.656353311619302;8.803867669975805;0.880859375;0.09033203125;-0.42626953125;-8.3125;15.25;17.8125;
1441975408653397;-0.8275146484375;0.14727783203125;-0.49652099609375;-0.21697998046875;2.7675230481398376;16.636297074036772;8.825482356347901;1.06689453125;0.12744140625;-0.35302734375;-17.0625;4.9375;-11.9375;
1441975408668398;-0.82940673828125;0.1424560546875;-0.49298095703125;-0.220947265625;2.8277477270860434;16.575062221484274;8.888333011145935;1.0302734375;0.0595703125;-0.337890625;-4.1875;-11.75;-24.5;
1441975408692400;-0.8338623046875;0.13604736328125;-0.4847412109375;-0.226318359375;2.954491446682684;16.506830267389578;8.956555564302121;0.9833984375;0.29443359375;-0.33154296875;-2.625;-21.0625;-37.625;
1441975408713401;-0.83807373046875;0.13031005859375;-0.4757080078125;-0.2333984375;3.0898196082822844;16.432268310549244;9.020305278079782;0.97265625;0.33642578125;-0.44140625;-6.0625;-41.5625;-55.6875;
1441975408728402;-0.84344482421875;0.12530517578125;-0.46405029296875;-0.239990234375;3.2550964833246825;16.37855742507691;9.060482362943977;0.9130859375;0.38623046875;-0.427734375;-15.4375;-44.375;-56.0;
1441975408752403;-0.84844970703125;0.12213134765625;-0.451416015625;-0.248046875;3.425663612504533;16.325403417129703;9.084997232701763;0.87451171875;0.41845703125;-0.55615234375;-17.75;-54.0;-54.5625;
1441975408773404;-0.852294921875;0.1212158203125;-0.44012451171875;-0.255615234375;3.5700318464821033;16.284245745859565;9.090242923959119;0.79052734375;0.40576171875;-0.5595703125;-31.5625;-57.9375;-51.5625;
1441975408789405;-0.85491943359375;0.121337890625;-0.43121337890625;-0.26171875;3.6795662772428965;16.254184124621055;9.087273315942882;0.72412109375;0.36083984375;-0.5673828125;-37.75;-50.3125;-38.75;
1441975408811406;-0.857666015625;0.12115478515625;-0.42376708984375;-0.2650146484375;3.7715980282836687;16.24432035734185;9.078622376295005;0.67041015625;0.2978515625;-0.5478515625;-35.4375;-38.25;-29.125;
1441975408834408;-0.85986328125;0.12164306640625;-0.4180908203125;-0.2667236328125;3.838915078097308;16.24578236443588;9.063829535568027;0.62548828125;0.2998046875;-0.53466796875;-19.1875;-33.0;-20.8125;
1441975408848409;-0.86163330078125;0.12237548828125;-0.41436767578125;-0.2664794921875;3.881174638916082;16.259664843246135;9.045501101111384;0.64306640625;0.27099609375;-0.5126953125;-13.3125;-27.6875;-13.1875;
1441975408879410;-0.8626708984375;0.122314453125;-0.4124755859375;-0.26605224609375;3.904223098585898;16.26769258398199;9.038410318428506;0.69482421875;0.2412109375;-0.48291015625;-4.0625;-22.375;-7.125;
1441975408893411;-0.86370849609375;0.1209716796875;-0.4110107421875;-0.26556396484375;3.926961378604508;16.27087323471794;9.04222858380988;0.77587890625;0.2783203125;-0.47265625;0.9375;-14.75;-7.1875;
1441975408909412;-0.86541748046875;0.12127685546875;-0.4072265625;-0.2657470703125;3.9716557093617766;16.27922960319155;9.029265696768553;0.83349609375;0.3349609375;-0.4130859375;7.875;-15.8125;-11.5;
1441975408931413;-0.8658447265625;0.12359619140625;-0.40313720703125;-0.26953125;4.012544568771918;16.264110025374816;9.014604887628717;0.82666015625;0.33837890625;-0.49658203125;-1.8125;-27.0;-8.625;
1441975408954415;-0.86590576171875;0.12646484375;-0.39947509765625;-0.27337646484375;4.045784319377847;16.249069462706856;8.997355317556472;0.88037109375;0.34716796875;-0.453125;-24.9375;-30.6875;-7.5;
1441975408969415;-0.866455078125;0.12811279296875;-0.394775390625;-0.27764892578125;4.095888334076665;16.228795482118464;8.987807899474127;0.90234375;0.275390625;-0.45751953125;-29.875;-29.25;-9.5;
1441975408999417;-0.8681640625;0.12896728515625;-0.38818359375;-0.28118896484375;4.171436025561245;16.216193158426265;8.975790841178659;0.8525390625;0.359375;-0.509765625;-27.875;-29.3125;-13.0;
1441975409014418;-0.8702392578125;0.13067626953125;-0.38067626953125;-0.28424072265625;4.254281173420547;16.211718949885828;8.953260999786817;0.7919921875;0.36181640625;-0.5732421875;-23.5;-35.4375;-18.25;
1441975409028419;-0.87200927734375;0.1334228515625;-0.37371826171875;-0.2867431640625;4.326236494160967;16.21293793829166;8.923210835196896;0.75;0.33251953125;-0.57958984375;-24.4375;-41.0625;-15.5;
1441975409051420;-0.873291015625;0.1363525390625;-0.36822509765625;-0.28857421875;4.379975918165876;16.216674182254255;8.893900905365946;0.7412109375;0.29296875;-0.58447265625;-25.75;-40.625;-10.3125;
1441975409074421;-0.8743896484375;0.13848876953125;-0.3643798828125;-0.28900146484375;4.417253483726891;16.225929113127684;8.870153189927697;0.73486328125;0.26025390625;-0.58447265625;-23.625;-32.8125;-7.0625;
1441975409111424;-0.875244140625;0.1405029296875;-0.36187744140625;-0.28875732421875;4.4396761588484726;16.237799119085405;8.848610001580218;0.701171875;0.2705078125;-0.58740234375;-13.75;-23.25;-3.875;
1441975409114424;-0.87493896484375;0.14361572265625;-0.3609619140625;-0.28924560546875;4.438563139302672;16.243911005597766;8.825861891811764;0.6728515625;0.2880859375;-0.61083984375;-9.25;-14.0625;1.25;
1441975409148426;-0.87445068359375;0.14801025390625;-0.3609619140625;-0.28851318359375;4.422405941527323;16.261829846156576;8.792123613309398;0.66650390625;0.31103515625;-0.5888671875;-14.5;-6.25;10.125;
1441975409155426;-0.87371826171875;0.15289306640625;-0.36187744140625;-0.28704833984375;4.3941170882624165;16.285718408507897;8.754423293739835;0.66357421875;0.2763671875;-0.60888671875;-12.0;-3.0625;19.1875;
1441975409171427;-0.8721923828125;0.15765380859375;-0.3642578125;-0.28607177734375;4.348642872286619;16.303500629648244;8.722342513201095;0.68310546875;0.27880859375;-0.6181640625;-8.9375;0.5625;25.0625;
1441975409196428;-0.8702392578125;0.16204833984375;-0.3675537109375;-0.28533935546875;4.2934678357693015;16.317375924624052;8.695436599370991;0.69921875;0.2919921875;-0.576171875;-9.1875;7.8125;27.0625;
1441975409218430;-0.868408203125;0.16632080078125;-0.3702392578125;-0.28485107421875;4.2457217150320385;16.330121512329796;8.668485492277995;0.69580078125;0.32275390625;-0.5673828125;-8.0625;13.8125;28.875;
1441975409231430;-0.8663330078125;0.1712646484375;-0.372314453125;-0.28564453125;4.202247667843209;16.335807391028403;8.639404306737292;0.671875;0.35302734375;-0.5927734375;-8.8125;14.125;29.0625;
1441975409254432;-0.86395263671875;0.17681884765625;-0.3743896484375;-0.2867431640625;4.155995626978634;16.341101071475556;8.60660653357248;0.6650390625;0.3857421875;-0.59326171875;-15.75;12.0;31.0625;
1441975409284433;-0.861328125;0.18280029296875;-0.376708984375;-0.28778076171875;4.105053460926403;16.34826250156793;8.570545016236373;0.669921875;0.37109375;-0.57763671875;-19.625;11.8125;33.4375;
1441975409291434;-0.8582763671875;0.189697265625;-0.37945556640625;-0.288818359375;4.045534908675465;16.35837546515579;8.527940284297351;0.669921875;0.3603515625;-0.5615234375;-20.125;12.0625;36.0;
1441975409314435;-0.85504150390625;0.19708251953125;-0.38232421875;-0.2896728515625;3.9828058534395008;16.372208480405988;8.480421358004257;0.67333984375;0.369140625;-0.5654296875;-22.0625;14.3125;42.6875;
1441975409335436;-0.85150146484375;0.20513916015625;-0.38543701171875;-0.29052734375;3.914813666335943;16.389046677164032;8.427254901871514;0.6943359375;0.3916015625;-0.59814453125;-22.25;15.75;47.1875;
1441975409351437;-0.8475341796875;0.21307373046875;-0.38958740234375;-0.29083251953125;3.8348188964363157;16.4100518307379;8.373735619691232;0.71044921875;0.37060546875;-0.59912109375;-24.4375;16.5625;50.0625;
1441975409382439;-0.84320068359375;0.22088623046875;-0.39495849609375;-0.2904052734375;3.7413851623487018;16.437307936504496;8.31889929768971;0.72607421875;0.33935546875;-0.56640625;-21.25;20.3125;51.625;
1441975409395440;-0.83843994140625;0.22900390625;-0.401123046875;-0.28936767578125;3.6378019881926495;16.4723430004883;8.258242577443163;0.720703125;0.31005859375;-0.53662109375;-16.6875;25.9375;54.3125;
1441975409412441;-0.833251953125;0.2369384765625;-0.40838623046875;-0.28790283203125;3.5223044215146686;16.512300467151505;8.196318154964311;0.70703125;0.2939453125;-0.5517578125;-14.8125;31.5625;59.6875;
1441975409435442;-0.82794189453125;0.24371337890625;-0.41595458984375;-0.28662109375;3.4061729152411924;16.548162090294863;8.142743431132713;0.74658203125;0.31591796875;-0.54638671875;-9.9375;36.625;63.4375;
1441975409455443;-0.82196044921875;0.250732421875;-0.42340087890625;-0.28692626953125;3.2875378777248354;16.572992371760613;8.091881473744143;0.7841796875;0.33740234375;-0.5302734375;-6.8125;39.625;59.75;
1441975409478445;-0.81488037109375;0.2589111328125;-0.43115234375;-0.288330078125;3.1580973665196206;16.59527396484925;8.033680971048565;0.83349609375;0.3515625;-0.5;-14.6875;39.875;58.5;
1441975409494445;-0.80792236328125;0.26812744140625;-0.4384765625;-0.28851318359375;3.033214587086311;16.63880846955048;7.954641998656964;0.89013671875;0.32861328125;-0.46875;-24.5625;41.5;62.375;
1441975409523447;-0.801513671875;0.27716064453125;-0.4454345703125;-0.28717041015625;2.917641440899964;16.701985463206555;7.863007641323041;0.87890625;0.22509765625;-0.458984375;-24.5625;36.5625;64.3125;
1441975409531448;-0.7958984375;0.2843017578125;-0.4527587890625;-0.28424072265625;2.808345447099952;16.776466047978527;7.7754469128147266;0.8291015625;0.14892578125;-0.396484375;-17.875;30.125;63.1875;
1441975409554449;-0.7911376953125;0.28912353515625;-0.46014404296875;-0.28076171875;2.707910609281099;16.848033379983935;7.70331915247531;0.8203125;0.11083984375;-0.36572265625;-3.875;29.25;56.9375;
1441975409577450;-0.787109375;0.292236328125;-0.4674072265625;-0.27685546875;2.6160791908525876;16.917684948017733;7.642247524957003;0.82470703125;0.115234375;-0.369140625;6.3125;31.3125;47.875;
1441975409591451;-0.78369140625;0.2943115234375;-0.47418212890625;-0.2728271484375;2.5344597488358227;16.985077326439274;7.587999523499662;0.845703125;0.14794921875;-0.36767578125;14.9375;30.8125;42.0625;
1441975409628453;-0.780517578125;0.29541015625;-0.48065185546875;-0.2694091796875;2.4575785352642776;17.041512699079966;7.545947732727396;0.89453125;0.1533203125;-0.373046875;19.0625;28.375;37.25;
1441975409636454;-0.77740478515625;0.2962646484375;-0.48675537109375;-0.26641845703125;2.3845972153317527;17.093449198566244;7.507145663418061;0.95068359375;0.20458984375;-0.3681640625;20.3125;27.25;33.3125;
1441975409651454;-0.77386474609375;0.29644775390625;-0.493408203125;-0.26422119140625;2.3029059122462994;17.134466594161808;7.4789699818259585;1.00732421875;0.19091796875;-0.37548828125;18.625;26.4375;30.3125;
1441975409674456;-0.77294921875;0.2957763671875;-0.49713134765625;-0.2607421875;2.2675686912319293;17.17885168141919;7.454961421587271;0.9970703125;0.14892578125;-0.291015625;16.625;28.125;24.75;
1441975409695457;-0.7716064453125;0.2952880859375;-0.50140380859375;-0.257080078125;2.2250725397461735;17.22960928335761;7.424754380337633;0.8818359375;0.2119140625;-0.5185546875;23.75;25.0625;20.9375;
1441975409711458;-0.77069091796875;0.2947998046875;-0.50494384765625;-0.25347900390625;2.192434463960247;17.27898265594868;7.395172380895496;0.40771484375;0.02099609375;-0.32080078125;21.25;27.4375;15.4375;
1441975409734459;-0.77056884765625;0.2940673828125;-0.5072021484375;-0.25018310546875;2.1763980426255882;17.319459950817656;7.373443054828075;0.3125;-0.0048828125;-0.28662109375;19.75;23.3125;12.5625;
1441975409763461;-0.7718505859375;0.2921142578125;-0.5084228515625;-0.2459716796875;2.180052752578471;17.356937015114962;7.363410838090777;0.26171875;-0.021484375;-0.3203125;17.6875;19.875;7.0625;
1441975409779462;-0.7747802734375;0.2880859375;-0.50909423828125;-0.24017333984375;2.2008941638735213;17.392876144454497;7.370617484980825;0.2890625;-0.02685546875;-0.41552734375;25.125;17.0625;0.0625;
1441975409794463;-0.7786865234375;0.28179931640625;-0.509765625;-0.2333984375;2.2279364193600992;17.420428813218212;7.400132208782056;0.40625;0.013671875;-0.525390625;40.1875;13.75;-6.1875;
1441975409815464;-0.78277587890625;0.27435302734375;-0.509765625;-0.2286376953125;2.2573698402385136;17.412125359788675;7.461531624006713;0.5615234375;0.07275390625;-0.58056640625;53.6875;12.1875;-11.9375;
1441975409831465;-0.785888671875;0.2689208984375;-0.50860595703125;-0.2269287109375;2.2874266229215605;17.38262267667699;7.5214688244077;0.71240234375;0.25732421875;-0.595703125;51.875;9.9375;-12.8125;
1441975409853466;-0.78717041015625;0.2667236328125;-0.5072021484375;-0.228271484375;2.3051915607196394;17.344622148709064;7.5625879790497414;0.90234375;0.375;-0.61328125;32.5;5.75;-6.625;
1441975409877467;-0.78704833984375;0.265625;-0.50653076171875;-0.23126220703125;2.3054369003978876;17.298556301962932;7.60017483809346;1.12744140625;0.3037109375;-0.54541015625;4.4375;-0.125;-4.9375;
1441975409900469;-0.78582763671875;0.26483154296875;-0.50726318359375;-0.234619140625;2.285498298304553;17.25355626776744;7.63456012763556;1.28515625;0.2646484375;-0.4462890625;-7.3125;-2.375;-5.75;
1441975409922470;-0.78363037109375;0.2640380859375;-0.50982666015625;-0.2374267578125;2.2432463077557263;17.218011353180803;7.662889980083768;1.4111328125;0.22705078125;-0.3271484375;-9.625;-3.125;-5.4375;
1441975409936471;-0.7811279296875;0.26287841796875;-0.5135498046875;-0.23895263671875;2.1899954178169363;17.19613530405778;7.685177877141633;1.4951171875;0.17724609375;-0.21728515625;-6.3125;-1.8125;-4.3125;
1441975409951472;-0.78118896484375;0.26068115234375;-0.51495361328125;-0.23822021484375;2.177866932189693;17.188500126906643;7.706266381624875;1.5;0.134765625;-0.14599609375;0.9375;-0.6875;-3.0;
1441975409982473;-0.78240966796875;0.25787353515625;-0.5157470703125;-0.23553466796875;2.181297274439146;17.198881099128528;7.720020807683234;0.90087890625;0.08203125;-0.3125;11.8125;5.8125;-7.0625;
1441975409996474;-0.78350830078125;0.2542724609375;-0.5174560546875;-0.23193359375;2.17632466411966;17.215372137454878;7.735418416655492;0.841796875;0.068359375;-0.322265625;22.3125;-0.3125;-6.9375;
1441975410011475;-0.78485107421875;0.2498779296875;-0.5194091796875;-0.2276611328125;2.1712752125893724;17.23373827239144;7.755302593645895;0.87109375;0.07080078125;-0.3037109375;30.5625;2.1875;-6.4375;
1441975410033476;-0.78607177734375;0.24615478515625;-0.52130126953125;-0.2232666015625;2.166161790147182;17.259482173133556;7.765414952919371;0.8779296875;0.14208984375;-0.310546875;38.125;2.375;-3.0625;
1441975410056478;-0.7869873046875;0.2430419921875;-0.52301025390625;-0.219482421875;2.160097188342269;17.28266579618589;7.772660495304056;0.9130859375;0.1630859375;-0.3134765625;37.375;0.8125;1.5625;
1441975410069478;-0.78759765625;0.240478515625;-0.52447509765625;-0.216552734375;2.15337221284112;17.299549303109693;7.779986579279291;0.9423828125;0.1728515625;-0.3037109375;32.25;-0.25;3.4375;
1441975410093480;-0.78778076171875;0.23907470703125;-0.5255126953125;-0.2149658203125;2.146470211546391;17.30902500835103;7.783811909682687;0.95361328125;0.19091796875;-0.294921875;26.6875;-0.625;4.875;
1441975410107481;-0.787353515625;0.23876953125;-0.526611328125;-0.21405029296875;2.134470614588908;17.32003112173205;7.778466418292082;0.96630859375;0.18310546875;-0.30078125;15.5625;-0.9375;5.5625;
1441975410129482;-0.78656005859375;0.2388916015625;-0.52789306640625;-0.213623046875;2.117898312488646;17.32914037662272;7.77120200640872;1.0361328125;0.14892578125;-0.30615234375;7.9375;-0.3125;6.5625;
1441975410152483;-0.7855224609375;0.239501953125;-0.5291748046875;-0.2137451171875;2.0992007666431967;17.335788518124687;7.762027975047105;1.09716796875;0.13720703125;-0.33154296875;3.75;1.9375;7.0;
1441975410168484;-0.78436279296875;0.24072265625;-0.52996826171875;-0.21441650390625;2.0837626936500397;17.34016795604863;7.749788346286124;1.11376953125;0.126953125;-0.34326171875;-0.875;3.5;7.5;
1441975410191485;-0.78326416015625;0.24249267578125;-0.530029296875;-0.21624755859375;2.0742227007796528;17.33312017229498;7.741422439442002;1.0927734375;0.08740234375;-0.36328125;-6.875;3.6875;5.5625;
1441975410204486;-0.78228759765625;0.24456787109375;-0.52978515625;-0.21826171875;2.068171202464182;17.325879181008695;7.731107244922248;1.01220703125;0.0625;-0.33837890625;-15.375;1.8125;2.125;
1441975410229488;-0.78155517578125;0.2462158203125;-0.5294189453125;-0.219970703125;2.0650937306605055;17.31835143480754;7.72409390872903;0.9296875;-0.0185546875;-0.3095703125;-19.25;-0.0625;-2.25;
1441975410258489;-0.78155517578125;0.24627685546875;-0.5291748046875;-0.2203369140625;2.0669053109422104;17.31364131483837;7.726809414613444;0.86181640625;-0.0703125;-0.2802734375;-17.1875;-1.625;-6.9375;
1441975410264490;-0.78277587890625;0.24456787109375;-0.52838134765625;-0.2198486328125;2.082396394058411;17.302281008885643;7.747286526466379;0.82177734375;-0.08154296875;-0.27197265625;-6.0;-2.4375;-11.3125;
1441975410287491;-0.7847900390625;0.241943359375;-0.5269775390625;-0.218994140625;2.1090619282479657;17.286299773198284;7.7776212348265235;0.8046875;-0.03515625;-0.2861328125;5.375;-6.875;-16.0;
1441975410318493;-0.78692626953125;0.23895263671875;-0.52545166015625;-0.2181396484375;2.137730015600617;17.267409207200537;7.812302915940134;0.81396484375;0.02587890625;-0.29248046875;11.125;-10.6875;-17.375;
1441975410332493;-0.7890625;0.236083984375;-0.52386474609375;-0.2174072265625;2.167012321339137;17.24866483235315;7.84581998468552;0.85546875;0.06005859375;-0.29931640625;13.0625;-12.75;-17.125;
1441975410348494;-0.7908935546875;0.2335205078125;-0.52239990234375;-0.217041015625;2.1929603871072523;17.228816299741588;7.877589243614796;0.90869140625;0.10546875;-0.318359375;12.8125;-12.9375;-14.9375;
1441975410369496;-0.79217529296875;0.23175048828125;-0.52117919921875;-0.21734619140625;2.212532355687065;17.208232798057672;7.903973984667985;0.94921875;0.15185546875;-0.3291015625;11.1875;-12.125;-11.6875;
1441975410393497;-0.79266357421875;0.23126220703125;-0.52008056640625;-0.218505859375;2.225041793423342;17.188352923098428;7.920415450002422;0.98779296875;0.18115234375;-0.34228515625;6.125;-9.6875;-7.375;
1441975410407498;-0.79248046875;0.23211669921875;-0.519287109375;-0.22039794921875;2.2295674507289367;17.171177532615626;7.925555327853164;1.0029296875;0.19091796875;-0.353515625;-2.4375;-6.875;-2.8125;
1441975410429499;-0.79150390625;0.234130859375;-0.51910400390625;-0.22210693359375;2.2231780150816096;17.166691845863173;7.9139482561707535;0.98974609375;0.181640625;-0.3583984375;-10.5;-3.625;2.0;
1441975410453500;-0.7900390625;0.23638916015625;-0.51983642578125;-0.22314453125;2.2055604723549154;17.17371146610721;7.893087099090747;0.9697265625;0.125;-0.353515625;-14.75;0.0625;5.625;
1441975410467501;-0.7884521484375;0.23822021484375;-0.52142333984375;-0.22320556640625;2.1801215374345357;17.190629856327377;7.868802756211739;0.95703125;0.07421875;-0.3408203125;-13.0625;3.9375;7.875;
1441975410491503;-0.78680419921875;0.23956298828125;-0.5235595703125;-0.222412109375;2.150111865196383;17.215365466716282;7.842599608094255;0.9423828125;0.064453125;-0.33154296875;-6.375;7.875;9.5;
1441975410504503;-0.78521728515625;0.2403564453125;-0.526123046875;-0.22119140625;2.1170875609246957;17.242003431334297;7.818960559770497;0.939453125;0.0556640625;-0.33447265625;-0.5625;10.125;10.5625;
1441975410536505;-0.78375244140625;0.24102783203125;-0.528564453125;-0.21978759765625;2.0863559367187268;17.270471355796538;7.794674247089374;0.9404296875;0.0771484375;-0.32373046875;4.1875;11.75;11.3125;
1441975410550506;-0.78228759765625;0.24163818359375;-0.53094482421875;-0.21881103515625;2.0558378967248627;17.293379082262682;7.774437993725728;0.94921875;0.06787109375;-0.32666015625;5.375;10.875;10.9375;
1441975410564507;-0.78076171875;0.2421875;-0.53326416015625;-0.218017578125;2.025356488414429;17.31380577621765;7.7560397982930205;0.9521484375;0.06884765625;-0.3056640625;3.875;10.3125;9.5625;
1441975410596509;-0.77947998046875;0.24273681640625;-0.53497314453125;-0.21771240234375;2.001608978089819;17.326923033042217;7.742555605655386;0.94775390625;0.0556640625;-0.29443359375;2.75;10.1875;8.0625;
1441975410610509;-0.77838134765625;0.243408203125;-0.5362548828125;-0.2177734375;1.9826377032562252;17.3356218114364;7.731263005752222;0.93994140625;0.05322265625;-0.29638671875;0.0;7.9375;5.5625;
1441975410633511;-0.77752685546875;0.24420166015625;-0.53692626953125;-0.21807861328125;1.970676541117588;17.34101521725948;7.721357456796868;0.93994140625;0.0517578125;-0.2890625;-2.375;5.625;4.3125;
1441975410656512;-0.77703857421875;0.2447509765625;-0.5372314453125;-0.218505859375;1.9642749814555083;17.341454661396597;7.716880453219629;0.94580078125;0.03515625;-0.30419921875;-4.625;3.4375;1.8125;
1441975410678513;-0.77679443359375;0.2449951171875;-0.5372314453125;-0.21905517578125;1.9620268704686523;17.336458555468518;7.718466130550208;0.95068359375;0.04443359375;-0.31298828125;-4.5625;1.4375;-0.25;
1441975410692514;-0.77655029296875;0.24542236328125;-0.53704833984375;-0.2200927734375;1.960905407483283;17.326186950691394;7.722474236416272;0.95068359375;0.056640625;-0.3173828125;-4.0625;0.4375;-1.5;
1441975410707515;-0.7762451171875;0.2462158203125;-0.53662109375;-0.22119140625;1.9616985004141045;17.318256589623587;7.722066442238461;0.9462890625;0.08203125;-0.31591796875;-6.25;0.0625;-0.75;
1441975410729516;-0.77618408203125;0.24688720703125;-0.53607177734375;-0.22210693359375;1.9654323593109881;17.311278719126122;7.722055957394212;0.9423828125;0.08349609375;-0.3330078125;-8.125;-0.125;0.125;
1441975410753518;-0.7760009765625;0.24749755859375;-0.5357666015625;-0.22259521484375;1.9666258759935031;17.310105603322853;7.7182995681120925;0.9423828125;0.09228515625;-0.3486328125;-7.0;-0.4375;0.5;
1441975410767518;-0.77581787109375;0.2481689453125;-0.53564453125;-0.22283935546875;1.966465641750416;17.313237823962424;7.7112003320142595;0.95166015625;0.087890625;-0.35009765625;-4.8125;0.375;1.3125;
1441975410789520;-0.77545166015625;0.2489013671875;-0.5357666015625;-0.22296142578125;1.9630250021562212;17.319236245434727;7.701556127174306;0.94482421875;0.08349609375;-0.3515625;-3.5625;1.1875;2.625;
1441975410812521;-0.7750244140625;0.2496337890625;-0.5361328125;-0.22296142578125;1.957103722568895;17.32747300208634;7.6904013088969405;0.93994140625;0.08203125;-0.341796875;-3.0625;1.8125;3.6875;
1441975410827522;-0.7745361328125;0.25042724609375;-0.53643798828125;-0.222900390625;1.9514739759728976;17.33713164573375;7.677655008851366;0.931640625;0.080078125;-0.32958984375;-2.3125;2.4375;4.5;
1441975410850523;-0.77410888671875;0.2508544921875;-0.53692626953125;-0.2227783203125;1.9445012922251976;17.344390796362557;7.669301240955086;0.93896484375;0.0712890625;-0.33251953125;-2.5625;2.375;4.4375;
1441975410874524;-0.77374267578125;0.25103759765625;-0.53753662109375;-0.2222900390625;1.9372244755519068;17.354560319785616;7.660652267647509;0.94384765625;0.07177734375;-0.32421875;-0.75;2.4375;3.375;
1441975410887525;-0.77349853515625;0.25115966796875;-0.53802490234375;-0.22174072265625;1.931959330024435;17.36467041937463;7.652534354441927;0.95068359375;0.06982421875;-0.31640625;2.125;2.375;3.1875;
1441975410909526;-0.77349853515625;0.2510986328125;-0.53826904296875;-0.221435546875;1.9301238531183222;17.3688413108665;7.650119432863373;0.9521484375;0.06982421875;-0.32373046875;2.375;1.8125;3.0;
1441975410932528;-0.77349853515625;0.251220703125;-0.53826904296875;-0.2213134765625;1.9303688241703707;17.371767706536176;7.647193037193695;0.94970703125;0.0830078125;-0.31982421875;1.9375;0.1875;1.875;
1441975410955529;-0.7734375;0.2513427734375;-0.53814697265625;-0.2215576171875;1.9307951088854427;17.369376544881078;7.6479133072498;0.95458984375;0.0751953125;-0.30810546875;0.3125;-1.4375;0.8125;
1441975410969530;-0.7735595703125;0.2513427734375;-0.537841796875;-0.22186279296875;1.9339702006966673;17.36436080335679;7.651493982963976;0.95556640625;0.07080078125;-0.29345703125;-1.5;-2.4375;-0.4375;
