1441975567547486;0.043701171875;-0.7110595703125;-0.66217041015625;-0.23260498046875;11.286941594541085;13.546451605799305;17.226141339239067;-1.67041015625;-0.25439453125;0.193359375;-144.0625;78.75;226.75;
1441975567577487;0.0487060546875;-0.673828125;-0.70965576171875;-0.20013427734375;10.980460925870661;13.233978344050099;17.328888122067728;-1.39990234375;-0.154296875;0.05810546875;-265.0;92.8125;208.5;
1441975567592488;0.05731201171875;-0.63604736328125;-0.750244140625;-0.17132568359375;10.769322221366286;12.942083488565038;17.44273312512652;-1.30859375;-0.11279296875;-0.0126953125;-349.9375;89.25;179.125;
1441975567629490;0.06915283203125;-0.6121826171875;-0.77362060546875;-0.148681640625;10.679779253170935;12.770937561024652;17.56333374887514;-1.16015625;-0.14404296875;-0.0625;-329.1875;88.875;139.625;
1441975567653492;0.08184814453125;-0.6007080078125;-0.7838134765625;-0.13458251953125;10.685733516141667;12.696490029723497;17.66204218618656;-1.0654296875;-0.1513671875;-0.1328125;-208.1875;97.875;87.1875;
1441975567654492;0.1005859375;-0.5982666015625;-0.7840576171875;-0.1314697265625;10.836176994818045;12.692562244859952;17.74066371890849;-0.9912109375;-0.1015625;-0.14306640625;-104.5625;86.8125;38.5625;
1441975567683493;0.12030029296875;-0.5994873046875;-0.78009033203125;-0.13287353515625;11.030293074557706;12.719640152351616;17.80721422714361;-0.91650390625;0.013671875;-0.09326171875;-33.3125;74.4375;5.9375;
1441975567705495;0.1441650390625;-0.602294921875;-0.7728271484375;-0.1387939453125;11.295402996832792;12.767244752477534;17.87282194429232;-0.8740234375;0.130859375;-0.09912109375;-2.75;69.4375;-24.3125;
1441975567712495;0.16705322265625;-0.60443115234375;-0.76513671875;-0.14630126953125;11.5623761273041;12.814898452190457;17.930300499579396;-0.9208984375;0.34765625;-0.107421875;11.5;75.5;-64.0625;
1441975567729496;0.193603515625;-0.60595703125;-0.75518798828125;-0.1583251953125;11.89646745509919;12.870523518835714;17.98526680424509;-1.0556640625;0.50390625;-0.0263671875;21.9375;79.4375;-104.625;
1441975567751497;0.222900390625;-0.6083984375;-0.74127197265625;-0.1754150390625;12.294654426782337;12.949010672321506;0.03810944853430156;-1.14111328125;0.615234375;0.08544921875;29.625;82.25;-139.875;
1441975567772498;0.2515869140625;-0.61248779296875;-0.722412109375;-0.1993408203125;12.742007336432534;13.053901286597961;0.07277917551061976;-1.197265625;0.64208984375;0.12646484375;51.25;82.9375;-174.5;
1441975567788499;0.279541015625;-0.6177978515625;-0.6981201171875;-0.2298583984375;13.239999441914772;13.187523574711896;0.09491432280459743;-1.27197265625;0.6552734375;0.17919921875;86.1875;65.8125;-205.5;
1441975567811501;0.3114013671875;-0.6209716796875;-0.6700439453125;-0.26190185546875;13.79428778556905;13.350376841131249;0.15303391156214305;-1.220703125;0.685546875;0.16162109375;120.4375;49.5625;-237.1875;
1441975567832502;0.342529296875;-0.619140625;-0.64349365234375;-0.292236328125;14.337749008950194;13.505643268019066;0.23093557877650536;-1.31005859375;0.611328125;0.01171875;121.375;62.375;-265.8125;
1441975567847503;0.371826171875;-0.61126708984375;-0.62103271484375;-0.320068359375;14.855083886618504;13.630595531350584;0.3137284276896247;-1.568359375;0.61865234375;-0.025390625;94.75;55.9375;-263.0;
1441975567870504;0.40032958984375;-0.60040283203125;-0.599609375;-0.34613037109375;15.359100578069924;13.767082878481409;0.42424707058398514;-1.5341796875;0.57763671875;-0.01708984375;56.4375;40.4375;-254.5625;
1441975567892505;0.42584228515625;-0.58917236328125;-0.576171875;-0.37371826171875;15.858932174005767;13.947727235231591;0.5617947106133067;-1.5185546875;0.5078125;0.01806640625;40.125;37.1875;-251.625;
1441975567907506;0.44970703125;-0.576171875;-0.552001953125;-0.40142822265625;16.353699406269204;14.197872138776875;0.7676575584977706;-1.52001953125;0.50390625;-0.0458984375;55.125;24.875;-253.625;
1441975567931508;0.4708251953125;-0.563232421875;-0.5283203125;-0.42669677734375;16.797437474711106;14.5949289835958;1.1214765941180227;-1.44677734375;0.50927734375;-0.02783203125;55.875;17.9375;-257.375;
1441975567952509;0.4869384765625;-0.5517578125;-0.505859375;-0.45013427734375;17.161686963357827;15.235715196088245;1.7095929476987433;-1.4033203125;0.30810546875;-0.0107421875;54.0625;16.375;-238.25;
1441975567967510;0.498291015625;-0.54266357421875;-0.4844970703125;-0.47174072265625;17.41431562668141;16.345655780001792;2.754962255877874;-1.34912109375;0.1611328125;0.0126953125;61.875;7.5625;-208.8125;
1441975567991511;0.5059814453125;-0.5357666015625;-0.46441650390625;-0.4912109375;17.506123330267396;17.98168311273535;4.319424936616425;-1.32275390625;0.1416015625;-0.02490234375;72.75;2.375;-180.375;
1441975568012512;0.51361083984375;-0.52703857421875;-0.449951171875;-0.50604248046875;17.456667725187426;1.4370319841897417;5.737620310804134;-1.33203125;0.2744140625;-0.06494140625;78.25;0.4375;-156.4375;
1441975568036514;0.523193359375;-0.5157470703125;-0.440673828125;-0.51593017578125;17.33100994550992;2.3536669505471974;6.659046589129904;-1.21240234375;0.40966796875;-0.06103515625;43.4375;-7.1875;-137.125;
1441975568050514;0.5323486328125;-0.50439453125;-0.43310546875;-0.5240478515625;17.179536882762637;2.9005436257038406;7.219603296838499;-1.095703125;0.3740234375;-0.00341796875;0.6875;-9.0625;-122.8125;
1441975568072516;0.5364990234375;-0.49639892578125;-0.4268798828125;-0.53253173828125;17.06375037650483;3.25639067164369;7.567941814031079;-1.0478515625;0.177734375;-0.04052734375;-8.625;-11.4375;-109.125;
1441975568087516;0.536865234375;-0.49169921875;-0.4215087890625;-0.54071044921875;16.983099440399872;3.50744374231643;7.79446349621356;-0.958984375;0.103515625;-0.01953125;12.125;-15.75;-93.5;
1441975568111518;0.53631591796875;-0.48858642578125;-0.4185791015625;-0.54638671875;16.93575714130701;3.6726109049365308;7.942160251948073;-0.8427734375;0.16845703125;-0.03759765625;29.0;-19.1875;-73.25;
1441975568132519;0.5364990234375;-0.48486328125;-0.41949462890625;-0.54876708984375;16.918161356089627;3.7938227445691046;8.070363404740135;-0.82373046875;0.2001953125;-0.07568359375;21.9375;-20.0625;-54.75;
1441975568148520;0.537353515625;-0.48040771484375;-0.4241943359375;-0.54827880859375;16.929299716043122;3.8943376240709355;8.201129005194925;-0.8564453125;0.1240234375;-0.08056640625;-3.5;-23.6875;-34.5625;
1441975568170521;0.53753662109375;-0.47686767578125;-0.4307861328125;-0.54595947265625;16.96825722038459;3.9740009205540487;8.31720247307513;-0.82861328125;0.04541015625;-0.017578125;-27.4375;-24.125;-13.6875;
1441975568193523;0.53631591796875;-0.47503662109375;-0.438232421875;-0.54290771484375;17.032416282553996;4.046493204371334;8.421724144124958;-0.7919921875;0.00927734375;0.0224609375;-34.875;-21.125;4.5625;
1441975568207523;0.53326416015625;-0.47479248046875;-0.4456787109375;-0.5400390625;17.114181461571853;4.135770931384982;8.532647560292057;-0.8642578125;9.765625E-4;0.02734375;-30.8125;-19.9375;18.125;
1441975568237525;0.52783203125;-0.4764404296875;-0.4537353515625;-0.5372314453125;17.222840955880457;4.264413254410619;8.672229162953858;-0.93359375;-0.02880859375;0.013671875;-20.3125;-21.375;30.0;
1441975568252526;0.5213623046875;-0.47900390625;-0.46282958984375;-0.533447265625;17.351938617525075;4.436893268504905;8.855805704598819;-0.9580078125;0.00830078125;0.0185546875;-9.5625;-23.5625;42.125;
1441975568267527;0.515625;-0.48101806640625;-0.47357177734375;-0.5277099609375;17.490664981999927;4.67760985129962;9.12160060884998;-0.97802734375;0.0625;4.8828125E-4;-9.8125;-26.1875;51.0;
1441975568290528;0.5106201171875;-0.48211669921875;-0.4857177734375;-0.52056884765625;17.628746830173473;5.112703626382498;9.594510108301078;-1.015625;0.0888671875;-0.01171875;-23.5;-26.75;57.1875;
1441975568313529;0.50579833984375;-0.48236083984375;-0.49853515625;-0.51287841796875;17.745803778390346;6.067604087405902;10.593662548028892;-1.02880859375;0.060546875;-0.0078125;-36.5;-27.9375;64.0;
1441975568328530;0.49993896484375;-0.4830322265625;-0.51116943359375;-0.5054931640625;17.796517670613596;8.045900234215068;12.610604883492742;-0.9794921875;0.02099609375;0.02978515625;-43.0625;-28.5;69.75;
1441975568350532;0.49322509765625;-0.48455810546875;-0.52276611328125;-0.498779296875;17.734334874116232;9.917895598778255;14.511464963871443;-0.921875;0.02734375;0.05224609375;-37.3125;-29.5;73.5;
1441975568373533;0.48583984375;-0.486572265625;-0.533447265625;-0.49267578125;17.611029510880556;10.827325931311298;15.442098115357622;-0.9140625;0.05712890625;0.037109375;-27.5;-30.0625;73.1875;
1441975568388534;0.47808837890625;-0.48858642578125;-0.5439453125;-0.48675537109375;17.465996567089196;11.262673809629822;15.896587605922786;-0.92041015625;0.06640625;0.01806640625;-19.9375;-32.1875;72.75;
1441975568410535;0.47015380859375;-0.490234375;-0.55413818359375;-0.4813232421875;17.3152997005991;11.477158470668407;16.12851027025542;-0.90576171875;0.0859375;0.00244140625;-18.0625;-34.625;73.1875;
1441975568433536;0.4620361328125;-0.49176025390625;-0.56329345703125;-0.47686767578125;17.169978503953637;11.586900696339638;16.249787343022813;-0.890625;0.095703125;0.0048828125;-16.5;-37.375;70.9375;
1441975568454537;0.45379638671875;-0.49371337890625;-0.5709228515625;-0.4737548828125;17.03616485916672;11.651214479792412;16.315824325666092;-0.8896484375;0.115234375;0.01025390625;-11.1875;-38.625;65.5;
1441975568470538;0.4453125;-0.49609375;-0.5770263671875;-0.47198486328125;16.913460845791818;11.690552494552195;16.34670635662826;-0.91015625;0.1474609375;0.00927734375;-2.0;-38.5625;57.625;
1441975568508541;0.43701171875;-0.4986572265625;-0.58160400390625;-0.47137451171875;16.80561237983949;11.714292865530343;16.35424243899461;-0.91064453125;0.18505859375;0.00927734375;7.75;-38.5625;49.25;
1441975568510541;0.42901611328125;-0.50128173828125;-0.58477783203125;-0.471923828125;16.712969991720435;11.725182564793199;16.342204205865695;-0.87255859375;0.20068359375;0.02294921875;14.8125;-36.5;41.0625;
1441975568531542;0.4215087890625;-0.50421142578125;-0.58642578125;-0.4736328125;16.63780308202373;11.731812678955178;16.31862582686755;-0.828125;0.2080078125;0.04248046875;21.5625;-33.6875;32.3125;
1441975568553543;0.41473388671875;-0.50689697265625;-0.58685302734375;-0.4761962890625;16.579776356462897;11.728977085613593;16.28236490967713;-0.80322265625;0.22412109375;0.060546875;28.25;-29.5625;22.9375;
1441975568576544;0.4091796875;-0.50909423828125;-0.58636474609375;-0.47918701171875;16.540077669032954;11.718546567486552;16.23952360744505;-0.771484375;0.23095703125;0.072265625;31.0625;-26.625;13.625;
1441975568590545;0.4051513671875;-0.5106201171875;-0.58514404296875;-0.48248291015625;16.51976819374773;11.698295668816003;16.19018511952628;-0.75537109375;0.22705078125;0.0751953125;29.625;-23.125;5.1875;
1441975568613547;0.40234375;-0.51165771484375;-0.58343505859375;-0.48577880859375;16.513611121107907;11.67347987141458;16.13980071637902;-0.75927734375;0.21484375;0.08056640625;26.4375;-18.6875;-2.5;
1441975568634548;0.4005126953125;-0.5120849609375;-0.5814208984375;-0.4892578125;16.51842876673691;11.637616275280518;16.08154599692464;-0.76806640625;0.2109375;0.07373046875;22.6875;-15.5;-8.4375;
1441975568650549;0.399658203125;-0.51214599609375;-0.57891845703125;-0.49285888671875;16.53516834401206;11.595216148026735;16.018882707955264;-0.76513671875;0.19482421875;0.087890625;19.5625;-12.8125;-13.1875;
1441975568673550;0.3994140625;-0.51214599609375;-0.57586669921875;-0.49658203125;16.560930246830843;11.550327052169884;15.953744534583986;-0.76611328125;0.17822265625;0.0966796875;17.625;-9.375;-18.0;
1441975568694551;0.400146484375;-0.5120849609375;-0.57220458984375;-0.5003662109375;16.599216234854712;11.502688880950366;15.886946679197111;-0.78515625;0.18896484375;0.1064453125;17.5;-5.8125;-22.6875;
1441975568710552;0.4017333984375;-0.51171875;-0.56817626953125;-0.5040283203125;16.646834809231514;11.448392183078631;15.816152642621425;-0.8115234375;0.201171875;0.08935546875;16.0625;-3.25;-28.125;
1441975568733553;0.4039306640625;-0.51092529296875;-0.56402587890625;-0.5076904296875;16.699771520524756;11.380916259000804;15.734839103058071;-0.84375;0.18701171875;0.095703125;13.4375;-0.1875;-31.4375;
1441975568755555;0.4066162109375;-0.51019287109375;-0.55950927734375;-0.51123046875;16.75870145312738;11.310242605931917;15.650874627641508;-0.84912109375;0.15234375;0.10888671875;11.5;2.125;-32.875;
1441975568770556;0.4091796875;-0.50994873046875;-0.5545654296875;-0.51483154296875;16.819250408392225;11.24172488608978;15.56591826590067;-0.8310546875;0.12744140625;0.12255859375;11.125;6.3125;-33.6875;
1441975568793557;0.41168212890625;-0.51019287109375;-0.54937744140625;-0.51806640625;16.88066720291301;11.183103644606959;15.489630582920608;-0.822265625;0.10888671875;0.134765625;14.6875;9.75;-33.5;
1441975568814558;0.41448974609375;-0.510498046875;-0.5447998046875;-0.5203857421875;16.939579064892367;11.136053781793029;15.430027529281958;-0.83251953125;0.1240234375;0.13037109375;16.0;12.0;-33.0;
1441975568830559;0.41778564453125;-0.51019287109375;-0.54144287109375;-0.5216064453125;16.992505797348834;11.090699013365107;15.38195453141376;-0.8212890625;0.13427734375;0.1201171875;11.375;14.0;-30.5625;
1441975568853560;0.42193603515625;-0.50927734375;-0.5390625;-0.5216064453125;17.04461860001547;11.05001970200573;15.349079702244815;-0.81201171875;0.14697265625;0.12841796875;1.5625;15.4375;-27.8125;
1441975568891562;0.42657470703125;-0.5076904296875;-0.53778076171875;-0.52069091796875;17.09184688117752;11.00861950260177;15.324593640485972;-0.84423828125;0.13818359375;0.11279296875;-8.875;15.9375;-24.75;
1441975568893563;0.430908203125;-0.5059814453125;-0.53729248046875;-0.51934814453125;17.130418086367694;10.974002967626586;15.309854488451183;-0.88916015625;0.11328125;0.11279296875;-17.125;15.6875;-19.875;
1441975568913564;0.434326171875;-0.50482177734375;-0.53668212890625;-0.51824951171875;17.16281403651962;10.951091078265964;15.301532756404832;-0.93212890625;0.091796875;0.115234375;-20.0625;13.8125;-14.1875;
1441975568934565;0.43719482421875;-0.50433349609375;-0.5360107421875;-0.5169677734375;17.192144799409224;10.954762467149841;15.316625720475054;-0.99169921875;0.0595703125;0.10791015625;-14.625;11.1875;-8.8125;
1441975568950566;0.438720703125;-0.50482177734375;-0.53521728515625;-0.51605224609375;17.212239913495306;10.985476562694778;15.350689895975963;-1.07373046875;0.0322265625;0.10302734375;-10.875;11.8125;-3.25;
1441975568973567;0.43853759765625;-0.50653076171875;-0.53424072265625;-0.51556396484375;17.22052664706466;11.05120541641896;15.409590062898483;-1.12451171875;0.0068359375;0.12353515625;-2.3125;11.0;3.75;
1441975568995568;0.4365234375;-0.50958251953125;-0.5330810546875;-0.515380859375;17.21559436290113;11.15766544856251;15.4986828169272;-1.091796875;-0.00830078125;0.14794921875;8.3125;10.6875;10.5625;
1441975569010569;0.43328857421875;-0.51397705078125;-0.5323486328125;-0.5145263671875;17.196678956903767;11.32439799064461;15.643830183714933;-1.02392578125;0.0029296875;0.16064453125;19.25;10.1875;17.3125;
1441975569033571;0.42999267578125;-0.518310546875;-0.533203125;-0.5120849609375;17.161465240752253;11.519122426191673;15.826063682074977;-0.974609375;0.060546875;0.1552734375;23.625;11.5;23.5625;
1441975569054572;0.42779541015625;-0.521240234375;-0.5361328125;-0.50787353515625;17.114654575616594;11.695345149226327;16.0080171430525;-0.97412109375;0.1259765625;0.13134765625;14.5;10.75;29.25;
1441975569070573;0.42669677734375;-0.5224609375;-0.541015625;-0.50238037109375;17.05850744905639;11.83024450077054;16.16601561548954;-0.96142578125;0.13916015625;0.1142578125;-3.4375;8.875;34.0;
1441975569093574;0.4259033203125;-0.52276611328125;-0.546630859375;-0.49658203125;16.997781125835925;11.929172524431575;16.294538621471276;-0.9443359375;0.1201171875;0.123046875;-20.875;7.1875;37.9375;
1441975569114575;0.42449951171875;-0.5233154296875;-0.55194091796875;-0.49127197265625;16.933706372697227;12.010565845548724;16.4008037860851;-0.9384765625;0.08203125;0.13037109375;-26.6875;5.125;41.375;
1441975569130576;0.4224853515625;-0.52459716796875;-0.5567626953125;-0.48614501953125;16.866400726393106;12.094324520812151;16.50365419128687;-0.94189453125;0.0712890625;0.12841796875;-22.5;3.0625;42.9375;
1441975569161578;0.4200439453125;-0.52630615234375;-0.56121826171875;-0.4813232421875;16.79725706292751;12.171658809038291;16.595704942876782;-0.95947265625;0.0888671875;0.11962890625;-16.375;2.6875;44.3125;
1441975569174579;0.41729736328125;-0.5277099609375;-0.56561279296875;-0.47698974609375;16.727311279837227;12.225375604837534;16.66256653396284;-0.978515625;0.11572265625;0.09814453125;-12.3125;0.75;44.3125;
1441975569198580;0.4141845703125;-0.5291748046875;-0.5697021484375;-0.47320556640625;16.657713953977048;12.26633770099779;16.71299252829329;-0.99267578125;0.115234375;0.10107421875;-11.0;-1.9375;43.8125;
1441975569212581;0.4107666015625;-0.5308837890625;-0.57318115234375;-0.4700927734375;16.59133359680067;12.30060875256804;16.7514554967617;-0.984375;0.1123046875;0.1025390625;-7.5;-4.25;42.875;
1441975569235582;0.4072265625;-0.53277587890625;-0.57598876953125;-0.467529296875;16.52989705944876;12.331553228079088;16.782188893944014;-0.96630859375;0.12451171875;0.10302734375;-2.25;-4.75;40.5625;
1441975569258583;0.40399169921875;-0.53436279296875;-0.57861328125;-0.46527099609375;16.473848657392452;12.35396061394129;16.804740768335176;-0.96484375;0.14453125;0.10302734375;1.875;-5.3125;37.25;
1441975569272584;0.4012451171875;-0.53533935546875;-0.58135986328125;-0.463134765625;16.422725296799655;12.365193189136539;16.819298235466906;-0.95947265625;0.15869140625;0.09765625;1.0625;-6.0;33.75;
1441975569303586;0.39923095703125;-0.53570556640625;-0.583740234375;-0.46142578125;16.38300990475193;12.366923421989293;16.825950626665;-0.95068359375;0.16943359375;0.09619140625;-2.3125;-6.75;30.0;
1441975569310586;0.39794921875;-0.53546142578125;-0.585693359375;-0.46038818359375;16.35605353887089;12.357415519931948;16.82208309933918;-0.986328125;0.17919921875;0.09423828125;-4.5625;-7.3125;24.8125;
1441975569332588;0.39715576171875;-0.5347900390625;-0.5872802734375;-0.4598388671875;16.338313839683178;12.340525801509948;16.81101674807573;-1.0;0.1650390625;0.099609375;-5.25;-7.1875;19.375;
1441975569356589;0.396484375;-0.5343017578125;-0.5880126953125;-0.46002197265625;16.329588161567266;12.324107165331586;16.79565478978696;-0.98876953125;0.146484375;0.1083984375;-5.125;-6.875;15.125;
1441975569370590;0.39599609375;-0.53399658203125;-0.58807373046875;-0.46075439453125;16.328467322506693;12.309094537884047;16.77816808886004;-0.96484375;0.13525390625;0.10546875;-1.3125;-6.5;11.0;
1441975569392591;0.39569091796875;-0.5338134765625;-0.58770751953125;-0.461669921875;16.332100264393546;12.297093063296767;16.762103169660197;-0.94873046875;0.138671875;0.10546875;2.6875;-5.3125;6.5625;
1441975569415592;0.3961181640625;-0.53302001953125;-0.58734130859375;-0.46270751953125;16.343431698711612;12.277177728788233;16.741663175511736;-0.94091796875;0.16552734375;0.099609375;3.8125;-4.6875;2.625;
1441975569430593;0.39727783203125;-0.53155517578125;-0.58685302734375;-0.4639892578125;16.363751750798745;12.24733745094284;16.714304640527292;-0.9501953125;0.177734375;0.10498046875;0.1875;-3.875;-2.1875;
1441975569452595;0.39898681640625;-0.52972412109375;-0.586181640625;-0.46551513671875;16.391250701370925;12.211182236215283;16.682046346515275;-0.962890625;0.1630859375;0.1025390625;-3.1875;-4.125;-6.125;
1441975569475596;0.40093994140625;-0.52783203125;-0.5850830078125;-0.46728515625;16.42439984123708;12.173202614463847;16.646901708138017;-0.9580078125;0.1484375;0.10546875;-4.6875;-3.125;-9.8125;
1441975569504598;0.40301513671875;-0.5260009765625;-0.583740234375;-0.46929931640625;16.46067510733944;12.133300785247213;16.60859991859313;-0.95263671875;0.1416015625;0.1083984375;-3.6875;-2.1875;-12.5625;
1441975569512598;0.4053955078125;-0.52410888671875;-0.58209228515625;-0.47137451171875;16.501629786716123;12.092426258565395;16.569323957970717;-0.94677734375;0.1484375;0.1083984375;-2.5;-1.625;-15.25;
1441975569536599;0.4080810546875;-0.52215576171875;-0.5802001953125;-0.47357177734375;16.547016546569512;12.048889681972732;16.527385798752025;-0.95703125;0.1552734375;0.09912109375;-2.5;-0.9375;-18.125;
1441975569564601;0.41107177734375;-0.51995849609375;-0.57818603515625;-0.475830078125;16.596009698456154;11.999023267615469;16.48017314220042;-0.95947265625;0.1572265625;0.09033203125;-3.0;-0.8125;-20.8125;
1441975569572601;0.41412353515625;-0.51776123046875;-0.575927734375;-0.47833251953125;16.64746923311078;11.943466531219096;16.426035399196092;-0.9677734375;0.1513671875;0.09228515625;-4.0;0.0;-23.3125;
1441975569595603;0.41705322265625;-0.51568603515625;-0.5733642578125;-0.4810791015625;16.700010579888804;11.88334055289217;16.365038627704358;-0.97314453125;0.1435546875;0.095703125;-3.3125;0.25;-24.75;
1441975569617604;0.4200439453125;-0.5137939453125;-0.570556640625;-0.48388671875;16.754186546518756;11.822122420539884;16.301720031259695;-0.96728515625;0.13427734375;0.10009765625;-0.5;0.4375;-26.0;
1441975569632605;0.4227294921875;-0.51202392578125;-0.5677490234375;-0.4866943359375;16.805022003025755;11.757242906914064;16.233509710646636;-0.966796875;0.1240234375;0.091796875;0.8125;1.375;-26.625;
1441975569646606;0.42535400390625;-0.5103759765625;-0.56494140625;-0.48944091796875;16.85445680226854;11.690183205416304;16.162770847550743;-0.966796875;0.12109375;0.10302734375;1.6875;1.375;-26.125;
1441975569668607;0.4278564453125;-0.5089111328125;-0.56219482421875;-0.49188232421875;16.901117290929836;11.626673445091647;16.09575812431289;-0.96484375;0.11767578125;0.09814453125;2.5625;1.4375;-25.625;
1441975569692608;0.43017578125;-0.50750732421875;-0.55975341796875;-0.49407958984375;16.942959626123503;11.562582861127066;16.02904407999926;-0.9677734375;0.12158203125;0.09423828125;2.1875;2.25;-24.6875;
1441975569706609;0.432373046875;-0.50616455078125;-0.5574951171875;-0.49615478515625;16.981636678115603;11.496600760961222;15.960791365028866;-0.97509765625;0.12158203125;0.099609375;1.5625;2.0625;-22.9375;
1441975569728610;0.4344482421875;-0.5048828125;-0.55548095703125;-0.49786376953125;17.01647456457299;11.43437843604241;15.897524883715246;-0.96826171875;0.11376953125;0.09912109375;0.875;1.625;-21.3125;
1441975569752612;0.4361572265625;-0.50390625;-0.5535888671875;-0.49945068359375;17.0467171341856;11.378206354876422;15.839079849839226;-0.97265625;0.1103515625;0.10107421875;0.375;2.4375;-19.375;
1441975569767613;0.43780517578125;-0.503173828125;-0.55194091796875;-0.5006103515625;17.073984183251863;11.334505039549857;15.794159036629967;-0.97607421875;0.109375;0.1064453125;1.125;2.5;-17.125;
1441975569789614;0.43914794921875;-0.5025634765625;-0.55072021484375;-0.50140380859375;17.09501175150882;11.300032787080081;15.759517574580057;-0.97216796875;0.11767578125;0.10107421875;0.6875;3.1875;-15.0625;
1441975569812615;0.44036865234375;-0.50213623046875;-0.5496826171875;-0.5018310546875;17.113380347146943;11.27799040812533;15.738005021987263;-0.95947265625;0.12353515625;0.109375;-0.4375;3.5;-12.5;
1441975569827616;0.4415283203125;-0.501708984375;-0.549072265625;-0.50189208984375;17.127759922450025;11.263798092443087;15.726446676430585;-0.97314453125;0.12939453125;0.099609375;-1.0625;3.5;-10.3125;
1441975569849617;0.442626953125;-0.50128173828125;-0.54888916015625;-0.5015869140625;17.138188324284997;11.258079521138393;15.725465676451815;-0.98486328125;0.13671875;0.099609375;-3.125;3.4375;-8.4375;
1441975569871619;0.4434814453125;-0.5008544921875;-0.5487060546875;-0.50140380859375;17.14658725796844;11.24951014978241;15.720579332161337;-0.9794921875;0.134765625;0.09716796875;-4.9375;3.0;-6.25;
1441975569886619;0.4439697265625;-0.50067138671875;-0.54864501953125;-0.50128173828125;17.15107350455896;11.24670845456346;15.719883306261677;-0.974609375;0.11376953125;0.10205078125;-3.9375;2.0625;-4.125;
1441975569908621;0.44403076171875;-0.5009765625;-0.5487060546875;-0.50091552734375;17.151113260252252;11.264819614563542;15.738521246837012;-0.96630859375;0.1044921875;0.10693359375;-2.125;2.0625;-1.8125;
1441975569932622;0.44378662109375;-0.5013427734375;-0.549072265625;-0.500244140625;17.1460566470599;11.292429079425863;15.767355651118034;-0.96533203125;0.11572265625;0.10009765625;-0.5;1.8125;0.9375;
1441975569946623;0.44342041015625;-0.501708984375;-0.5498046875;-0.49945068359375;17.137004821341606;11.322201318618148;15.799406570060233;-0.96435546875;0.119140625;0.10107421875;-1.0625;1.25;3.5625;
1441975569968624;0.44287109375;-0.50213623046875;-0.55078125;-0.49847412109375;17.12431412688478;11.357179292418941;15.837188803465365;-0.9638671875;0.12060546875;0.10595703125;-2.0;0.6875;5.625;
1441975569992625;0.442138671875;-0.50250244140625;-0.552001953125;-0.497314453125;17.107912152759386;11.393336553608053;15.8770260050731;-0.96142578125;0.1123046875;0.107421875;-2.4375;0.3125;7.9375;
1441975570006626;0.44140625;-0.50299072265625;-0.55340576171875;-0.4959716796875;17.089786497842034;11.435266239404163;15.92333913667002;-0.96337890625;0.1181640625;0.11376953125;-3.1875;-0.25;9.875;
1441975570028628;0.4405517578125;-0.50335693359375;-0.5550537109375;-0.49444580078125;17.06838396519707;11.475661923172144;15.969346408086084;-0.96875;0.11865234375;0.1044921875;-3.75;-0.5;11.5;
1441975570051629;0.43963623046875;-0.50372314453125;-0.55682373046875;-0.49298095703125;17.04541049442283;11.512224708406931;16.01152289827432;-0.978515625;0.115234375;0.109375;-4.9375;-1.0;13.0;
1441975570067630;0.43865966796875;-0.504150390625;-0.55859375;-0.49139404296875;17.02156414247827;11.551104689574599;16.05601826211083;-0.98046875;0.115234375;0.10888671875;-4.875;-1.8125;14.125;
1441975570089631;0.43756103515625;-0.504638671875;-0.56036376953125;-0.48980712890625;16.996454231513972;11.58932576265809;16.09933052972287;-0.97705078125;0.11474609375;0.1103515625;-4.9375;-1.625;15.0625;
1441975570112632;0.4364013671875;-0.5052490234375;-0.5621337890625;-0.48822021484375;16.970563006074585;11.628366018466945;16.14293702513873;-0.97802734375;0.11669921875;0.1123046875;-4.1875;-1.6875;15.8125;
1441975570126633;0.4351806640625;-0.50579833984375;-0.56396484375;-0.486572265625;16.94343279454183;11.66480067218069;16.18429194372575;-0.97802734375;0.1181640625;0.1103515625;-3.875;-1.5625;16.3125;
1441975570150634;0.43408203125;-0.50628662109375;-0.56591796875;-0.48480224609375;16.91607311145635;11.699965088782427;16.22560768567279;-0.9716796875;0.1279296875;0.11767578125;-4.0625;-1.6875;16.5625;
1441975570180636;0.433349609375;-0.50653076171875;-0.56781005859375;-0.48297119140625;16.892184095788743;11.730135001697512;16.263688179029614;-0.97021484375;0.1357421875;0.1123046875;-5.375;-1.625;16.4375;
1441975570186637;0.43267822265625;-0.506591796875;-0.56982421875;-0.481201171875;16.86805938694324;11.753264769106533;16.295609003715963;-0.97607421875;0.1240234375;0.10546875;-7.0;-1.5625;15.875;
1441975570219638;0.43206787109375;-0.50665283203125;-0.57159423828125;-0.47955322265625;16.846405550150653;11.774442626362672;16.324703876010574;-0.974609375;0.13232421875;0.11865234375;-7.75;-1.5;15.4375;
1441975570240640;0.43157958984375;-0.50665283203125;-0.57330322265625;-0.47796630859375;16.826346467714867;11.792959128353967;16.351314573959783;-0.97216796875;0.12646484375;0.11083984375;-7.3125;-1.5;14.6875;
1441975570246640;0.43115234375;-0.5064697265625;-0.5748291015625;-0.47662353515625;16.808813042281038;11.803798369672004;16.36972542811707;-0.9775390625;0.12841796875;0.1064453125;-7.1875;-1.6875;13.875;
1441975570268641;0.4307861328125;-0.50634765625;-0.57623291015625;-0.47552490234375;16.79314447089127;11.812029888997976;16.38446775625398;-0.978515625;0.11572265625;0.11279296875;-6.8125;-2.0;13.1875;
1441975570292643;0.43035888671875;-0.50616455078125;-0.57745361328125;-0.474609375;16.778758581704068;11.81643746697428;16.394337059769327;-0.9814453125;0.1142578125;0.11279296875;-5.75;-2.3125;12.3125;
1441975570306643;0.429931640625;-0.50604248046875;-0.57861328125;-0.47369384765625;16.764741209541395;11.822221328063117;16.405232488690785;-0.978515625;0.10888671875;0.111328125;-4.8125;-2.5625;11.6875;
1441975570328645;0.429443359375;-0.5059814453125;-0.57952880859375;-0.4730224609375;16.752465994831194;11.826099087383604;16.412464556759307;-0.96630859375;0.1162109375;0.1162109375;-4.3125;-2.1875;11.0;
1441975570352646;0.42913818359375;-0.5059814453125;-0.58026123046875;-0.472412109375;16.743140835040805;11.831513627792406;16.420877100534877;-0.966796875;0.12939453125;0.1181640625;-2.9375;-1.8125;9.625;
1441975570366647;0.4290771484375;-0.505859375;-0.580810546875;-0.471923828125;16.73763556634661;11.834076179917767;16.426611215411274;-0.98193359375;0.14306640625;0.11376953125;-2.3125;-1.6875;7.4375;
1441975570398649;0.4293212890625;-0.50543212890625;-0.5811767578125;-0.47174072265625;16.73711615951388;11.82743855676239;16.42349138755082;-0.998046875;0.15673828125;0.111328125;-3.25;-1.4375;4.875;
1441975570411649;0.42962646484375;-0.5050048828125;-0.58123779296875;-0.4718017578125;16.739890582275223;11.818560484731098;16.416723958103734;-1.02197265625;0.16650390625;0.115234375;-3.3125;-1.25;1.75;
1441975570436651;0.4300537109375;-0.50482177734375;-0.58087158203125;-0.47210693359375;16.747086044707377;11.812949700470908;16.410928263885356;-1.05224609375;0.185546875;0.13427734375;-2.3125;-0.3125;-1.5;
1441975570448652;0.43084716796875;-0.505126953125;-0.58001708984375;-0.47210693359375;16.75967377450408;11.825626099078685;16.42253754052185;-1.08740234375;0.23583984375;0.1435546875;-0.25;1.5625;-6.125;
1441975570471653;0.43341064453125;-0.504150390625;-0.57916259765625;-0.47186279296875;16.788164200190753;11.821871696932673;16.427197825353044;-1.1435546875;0.33203125;0.1259765625;0.0;4.75;-12.25;
1441975570494654;0.437255859375;-0.5010986328125;-0.5787353515625;-0.47198486328125;16.827546271859582;11.769613948297938;16.393191495838227;-1.14990234375;0.31982421875;0.08203125;-9.8125;4.8125;-19.1875;
1441975570517655;0.441650390625;-0.4974365234375;-0.57757568359375;-0.47320556640625;16.879478370304113;11.685455728932377;16.325319483142117;-1.11328125;0.21630859375;0.0849609375;-19.75;2.1875;-22.3125;
1441975570532656;0.44476318359375;-0.49444580078125;-0.57598876953125;-0.47540283203125;16.924014432452225;11.589603647301663;16.23608757576274;-1.07666015625;0.08154296875;0.091796875;-17.125;1.5;-22.6875;
1441975570546657;0.44610595703125;-0.49261474609375;-0.57421875;-0.47821044921875;16.953976922557008;11.499550710693207;16.141957320865075;-1.00390625;-0.041015625;0.10986328125;-6.9375;-0.3125;-14.8125;
1441975570568658;0.44500732421875;-0.492919921875;-0.57232666015625;-0.4810791015625;16.962480291744917;11.453330871624214;16.077997038475456;-0.873046875;-0.1181640625;0.11669921875;4.5;-3.25;-6.0;
1441975570592660;0.44183349609375;-0.495361328125;-0.571044921875;-0.483154296875;16.9469445677579;11.470416312276496;16.06927407670277;-0.796875;-0.08447265625;0.13134765625;18.5625;-3.5625;2.5;
1441975570606661;0.43768310546875;-0.4989013671875;-0.57086181640625;-0.48345947265625;16.91205625685199;11.543016713903569;16.118366885139608;-0.74169921875;0.015625;0.125;26.8125;-4.0;10.9375;
1441975570630662;0.43402099609375;-0.50146484375;-0.57257080078125;-0.4820556640625;16.86456470188092;11.615518177444137;16.18193796057752;-0.73779296875;0.126953125;0.10205078125;24.3125;-3.5;18.0;
1441975570661664;0.430908203125;-0.50311279296875;-0.57562255859375;-0.4794921875;16.809780339431633;11.679053319424971;16.247966674771774;-0.7119140625;0.1669921875;0.111328125;9.875;-3.5625;22.5625;
1441975570666664;0.4285888671875;-0.50457763671875;-0.57891845703125;-0.47607421875;16.757818493475988;11.748114977387674;16.325503722670984;-0.69140625;0.193359375;0.12744140625;-1.5;-2.75;24.625;
1441975570691665;0.427001953125;-0.5057373046875;-0.58233642578125;-0.47210693359375;16.709527107178694;11.815408920474454;16.406207333339747;-0.708984375;0.21923828125;0.11865234375;-7.0625;-0.0625;24.3125;
1441975570712667;0.42694091796875;-0.5062255859375;-0.58514404296875;-0.4681396484375;16.67861427110082;11.87240128500551;16.481184351907917;-0.76318359375;0.27294921875;0.11376953125;-12.375;2.125;20.9375;
1441975570726667;0.42779541015625;-0.5050048828125;-0.58837890625;-0.46453857421875;16.655069603472903;11.889928051992246;16.52445172482173;-0.80517578125;0.2421875;0.06884765625;-17.25;3.3125;16.75;
1441975570757669;0.42803955078125;-0.504150390625;-0.5911865234375;-0.46173095703125;16.630892481128235;11.901765473448492;16.555696301788334;-0.7275390625;0.1494140625;0.08984375;-24.4375;1.9375;15.0;
1441975570771670;0.4278564453125;-0.50555419921875;-0.592041015625;-0.459228515625;16.614355106414614;11.958301913489757;16.617371923928626;-0.65380859375;0.11328125;0.1416015625;-17.75;3.8125;15.3125;
1441975570786671;0.42889404296875;-0.50732421875;-0.592041015625;-0.45635986328125;16.611724994543344;12.03477747729273;16.700014716652124;-0.74462890625;0.23095703125;0.12451171875;-3.75;10.125;9.6875;
1441975570808672;0.43182373046875;-0.506591796875;-0.593505859375;-0.45245361328125;16.615101586170333;12.079981807416353;16.771296060287497;-0.912109375;0.32666015625;0.0654296875;-5.3125;13.3125;2.25;
1441975570832674;0.43756103515625;-0.50323486328125;-0.595458984375;-0.44805908203125;16.64155551638831;12.095148870022438;16.830994317943592;-1.005859375;0.412109375;0.07763671875;-26.3125;13.125;-6.6875;
1441975570846674;0.44537353515625;-0.4984130859375;-0.59649658203125;-0.44439697265625;16.69684094344025;12.090554293922855;16.876293889422534;-1.0888671875;0.427734375;0.08544921875;-45.125;15.625;-18.3125;
1441975570868676;0.45465087890625;-0.49261474609375;-0.5960693359375;-0.44195556640625;16.78050372478114;12.0680173192404;16.90284598650828;-1.16357421875;0.408203125;0.07666015625;-50.75;18.75;-30.9375;
1441975570892677;0.4644775390625;-0.48602294921875;-0.5946044921875;-0.44110107421875;16.882817822947242;12.012224719796986;16.892323365391864;-1.244140625;0.33251953125;0.06005859375;-50.1875;20.125;-41.125;
1441975570906678;0.47369384765625;-0.47900390625;-0.5927734375;-0.44140625;16.98687070125559;11.915922793071118;16.836352941494997;-1.2431640625;0.17431640625;0.04638671875;-46.0625;17.9375;-42.75;
1441975570928679;0.4814453125;-0.47265625;-0.59051513671875;-0.44287109375;17.08290079475131;11.788684731341032;16.738726056828046;-1.15625;0.00244140625;0.06591796875;-40.625;14.875;-38.125;
1441975570951680;0.4866943359375;-0.46856689453125;-0.58795166015625;-0.44488525390625;17.156641250688065;11.676406379873928;16.63994327657524;-1.0771484375;-0.1484375;0.0908203125;-29.3125;11.75;-29.0;
1441975570966681;0.48907470703125;-0.4674072265625;-0.58563232421875;-0.44659423828125;17.199017126427268;11.627200862265324;16.589198504516137;-1.02392578125;-0.208984375;0.1064453125;-12.375;10.3125;-15.875;
1441975570988682;0.489013671875;-0.46844482421875;-0.584228515625;-0.44732666015625;17.209111913635898;11.648939667627516;16.60160757995021;-1.00732421875;-0.17626953125;0.107421875;2.8125;8.5;-1.0625;
1441975571013684;0.48712158203125;-0.47125244140625;-0.5838623046875;-0.44696044921875;17.191132195031127;11.73520262777261;16.674374083405652;-1.00927734375;-0.11328125;0.111328125;11.1875;6.0625;12.625;
1441975571026685;0.48406982421875;-0.47540283203125;-0.58441162109375;-0.44512939453125;17.14997184049126;11.876735951293625;16.80213693552589;-1.00634765625;-0.03125;0.111328125;15.25;5.0;23.5;
1441975571048686;0.48077392578125;-0.4798583984375;-0.58612060546875;-0.44171142578125;17.091223713608784;12.036290334823939;16.9542870184882;-0.9814453125;0.0625;0.111328125;15.6875;5.75;31.6875;
1441975571071687;0.47808837890625;-0.48333740234375;-0.58917236328125;-0.43670654296875;17.022639462237724;12.176752328439855;17.10041773568028;-0.95068359375;0.14697265625;0.0869140625;9.1875;5.8125;36.1875;
1441975571086688;0.47637939453125;-0.48565673828125;-0.59320068359375;-0.43060302734375;16.95216318342533;12.290898329368703;17.232384802952133;-0.9228515625;0.208984375;0.083984375;-3.9375;6.0;36.6875;
1441975571108689;0.4755859375;-0.4871826171875;-0.597412109375;-0.423828125;16.8856356470805;12.390429736111997;17.357194187406314;-0.90673828125;0.2568359375;0.0908203125;-16.1875;7.5625;34.4375;
1441975571131691;0.4754638671875;-0.48785400390625;-0.601806640625;-0.4169921875;16.824245520925714;12.465754818638546;17.462919223906447;-0.89892578125;0.263671875;0.1015625;-23.1875;10.625;33.0;
1441975571146691;0.47607421875;-0.48828125;-0.6051025390625;-0.410888671875;16.77856871349235;12.535233935452856;17.560344503629775;-0.8916015625;0.29248046875;0.10400390625;-28.5625;10.9375;27.875;
1441975571168693;0.4775390625;-0.4881591796875;-0.60791015625;-0.40521240234375;16.7454936259532;12.596092026168737;17.65050647421162;-0.93359375;0.3251953125;0.07568359375;-26.375;11.8125;18.8125;
1441975571191694;0.479736328125;-0.4871826171875;-0.61041259765625;-0.39990234375;16.724066298006154;12.643783352971235;17.73016109350406;-0.94287109375;0.32958984375;0.048828125;-28.0625;11.8125;13.25;
1441975571214695;0.48297119140625;-0.48583984375;-0.61212158203125;-0.39501953125;16.718019487766203;12.696377559039407;17.815163284555666;-0.92431640625;0.32080078125;0.06103515625;-30.5625;13.0625;7.0625;
1441975571228696;0.48626708984375;-0.4849853515625;-0.61309814453125;-0.3905029296875;16.7158380486835;12.760825154221912;17.90759086607417;-0.90283203125;0.26708984375;0.05712890625;-30.75;17.1875;3.1875;
1441975571251697;0.48895263671875;-0.485107421875;-0.613037109375;-0.3870849609375;16.716039273849848;12.833404827993387;17.997347256298518;-0.87451171875;0.24365234375;0.0615234375;-25.6875;20.375;3.1875;
1441975571274699;0.4906005859375;-0.48651123046875;-0.6123046875;-0.38433837890625;16.70969226804427;12.915428160449553;0.08598007972259875;-0.86962890625;0.1875;0.03955078125;-15.0625;18.75;5.125;
1441975571290700;0.49078369140625;-0.48956298828125;-0.61163330078125;-0.38128662109375;16.682338042937953;13.008293856375397;0.17761171709796922;-0.90478515625;0.19921875;0.00634765625;-4.875;16.125;7.4375;
1441975571320701;0.49029541015625;-0.49395751953125;-0.61077880859375;-0.37762451171875;16.63976496086897;13.11800905953838;0.2815859358273267;-0.91259765625;0.30029296875;0.0078125;2.9375;15.875;11.0625;
1441975571326702;0.49005126953125;-0.496826171875;-0.6107177734375;-0.374267578125;16.602949534898432;13.190102017496113;0.35446845521678855;-0.90673828125;0.40380859375;-0.044921875;6.6875;15.5625;12.0;
1441975571348703;0.48834228515625;-0.49969482421875;-0.61065673828125;-0.372802734375;16.568228837068805;13.224923566417239;0.38031033636516176;-0.86328125;0.3271484375;-0.07080078125;-0.375;8.3125;12.625;
1441975571371704;0.484130859375;-0.50537109375;-0.60931396484375;-0.37286376953125;16.518880131808046;13.2699423315638;0.3928630450977082;-0.78662109375;0.21484375;-0.01025390625;9.0625;2.4375;16.8125;
1441975571386705;0.47802734375;-0.513671875;-0.6072998046875;-0.37261962890625;16.44493631164882;13.336533269852584;0.4129834154428578;-0.720703125;0.20751953125;0.0126953125;32.75;1.0;23.5625;
1441975571408706;0.4716796875;-0.522216796875;-0.60595703125;-0.37109375;16.356371123479672;13.40175499270942;0.436040322028799;-0.65771484375;0.27490234375;0.005859375;47.0625;2.4375;30.8125;
1441975571431708;0.46551513671875;-0.5294189453125;-0.6058349609375;-0.36883544921875;16.26548590517587;13.44150961671136;0.4437545056651955;-0.6123046875;0.31103515625;-0.01318359375;42.5;2.9375;35.5625;
1441975571454709;0.458984375;-0.53631591796875;-0.60662841796875;-0.36578369140625;16.16452384444609;13.468212932354033;0.4432386452606835;-0.5927734375;0.27490234375;0.0;32.1875;0.5;39.625;
1441975571468710;0.45263671875;-0.5438232421875;-0.60662841796875;-0.36260986328125;16.064000618161636;13.509848639529437;0.4544260084767606;-0.58642578125;0.31201171875;0.03369140625;27.875;1.4375;42.8125;
1441975571491711;0.44769287109375;-0.5499267578125;-0.60699462890625;-0.35888671875;15.974022168332448;13.546378448069131;0.4712643868567862;-0.62353515625;0.38134765625;0.0029296875;31.125;3.6875;39.5;
1441975571514713;0.4444580078125;-0.5538330078125;-0.6077880859375;-0.35546875;15.90635656818051;13.56822614224426;0.48502226021449824;-0.6962890625;0.412109375;-0.037109375;20.0;4.25;34.5625;
1441975571528713;0.4415283203125;-0.55731201171875;-0.6083984375;-0.35272216796875;15.848236426816891;13.585781243055138;0.49403860141666844;-0.70361328125;0.3369140625;-0.037109375;8.0;3.25;29.125;
1441975571551715;0.43829345703125;-0.56243896484375;-0.6064453125;-0.3519287109375;15.8035435231969;13.628777873534291;0.5094981952664421;-0.63818359375;0.291015625;-0.0029296875;9.3125;4.1875;26.4375;
1441975571574716;0.43438720703125;-0.5689697265625;-0.60272216796875;-0.3526611328125;15.765006234391024;13.686767704506467;0.5241673101477955;-0.57568359375;0.2275390625;-0.01806640625;28.375;6.125;22.1875;
1441975571588717;0.429931640625;-0.57666015625;-0.5977783203125;-0.35406494140625;15.726245392597567;13.75735103038169;0.5408573683104828;-0.55810546875;0.2265625;-0.0166015625;44.5;6.4375;18.9375;
1441975571611718;0.4256591796875;-0.584228515625;-0.59259033203125;-0.3555908203125;15.690681490270283;13.828630850921648;0.5580056835078233;-0.54541015625;0.26318359375;-0.04833984375;54.5;6.0625;16.5;
1441975571634719;0.422119140625;-0.5902099609375;-0.588623046875;-0.3564453125;15.658284934531714;13.883178331852177;0.5707027647370572;-0.55126953125;0.29931640625;-0.07861328125;54.3125;5.125;12.75;
1441975571656721;0.41937255859375;-0.59442138671875;-0.58563232421875;-0.35772705078125;15.639753819382937;13.918393883958867;0.5730938373450127;-0.556640625;0.30078125;-0.07470703125;41.875;4.375;11.625;
1441975571671721;0.4156494140625;-0.5999755859375;-0.57977294921875;-0.36224365234375;15.642748784534145;13.970409456856265;0.5675782409351818;-0.564453125;0.21630859375;-0.0732421875;31.6875;-0.0625;10.5;
1441975571694723;0.40948486328125;-0.6087646484375;-0.57110595703125;-0.3682861328125;15.635592562551667;14.049604234743331;0.559965123904366;-0.58544921875;0.13671875;-0.064453125;55.8125;-4.0625;6.25;
1441975571708724;0.4024658203125;-0.6182861328125;-0.56256103515625;-0.37335205078125;15.611887345978763;14.130476572524364;0.5525571146665942;-0.591796875;0.208984375;-0.09326171875;84.8125;-5.25;6.9375;
1441975571731725;0.39697265625;-0.62493896484375;-0.55621337890625;-0.3775634765625;15.59870151164204;14.183714679454113;0.5392630824417344;-0.56884765625;0.27880859375;-0.1298828125;85.875;-5.4375;9.8125;
1441975571754726;0.39141845703125;-0.63079833984375;-0.55029296875;-0.38226318359375;15.592251980538828;14.225095301868627;0.5160559128728212;-0.52734375;0.208984375;-0.0986328125;63.9375;-6.625;9.0;
1441975571768727;0.38580322265625;-0.63751220703125;-0.5428466796875;-0.387451171875;15.589698114051773;14.284637169248137;0.5023964884808334;-0.5263671875;0.20166015625;-0.0322265625;63.25;-6.375;6.875;
1441975571791728;0.37994384765625;-0.64459228515625;-0.53570556640625;-0.39154052734375;15.574351367309804;14.345935625794526;0.4926973529684604;-0.6015625;0.20849609375;-0.0556640625;72.0625;-4.1875;5.875;
1441975571814730;0.37548828125;-0.65167236328125;-0.52899169921875;-0.39324951171875;15.545944192969054;14.420516106650695;0.5084487122061441;-0.67919921875;0.330078125;-0.0703125;71.0625;-0.625;6.0;
1441975571828730;0.374755859375;-0.6558837890625;-0.52410888671875;-0.3934326171875;15.534314942990113;14.488655241196406;0.5470551751612251;-0.77685546875;0.3994140625;-0.1357421875;60.0625;9.0625;7.5625;
1441975571851732;0.376953125;-0.65753173828125;-0.51947021484375;-0.39471435546875;15.559172377675491;14.555117723933567;0.597932446805233;-0.908203125;0.35400390625;-0.15771484375;32.0625;16.0;2.8125;
1441975571874733;0.3773193359375;-0.66082763671875;-0.5126953125;-0.39764404296875;15.58407276706641;14.636046211582956;0.6419223203307876;-1.087890625;0.22216796875;-0.11083984375;19.6875;19.8125;-3.875;
1441975571888734;0.376220703125;-0.66546630859375;-0.505615234375;-0.40008544921875;15.590067584933172;14.719817589724968;0.6808864137276273;-1.30517578125;0.27197265625;-0.11376953125;40.5625;19.1875;-1.0625;
1441975571911735;0.3760986328125;-0.6685791015625;-0.50091552734375;-0.40087890625;15.589005950532004;14.782439444952725;0.7178024050255127;-1.37353515625;0.3271484375;-0.1826171875;47.5625;17.9375;5.9375;
1441975571934737;0.3779296875;-0.6700439453125;-0.4981689453125;-0.400146484375;15.588185245145839;14.834098811346927;0.7646050532299731;-1.21240234375;0.32958984375;-0.18896484375;28.125;17.0;4.5625;
1441975571948737;0.38043212890625;-0.67218017578125;-0.4937744140625;-0.39971923828125;15.591359689284227;14.910668929436953;0.8306262772480573;-1.14599609375;0.33251953125;-0.15283203125;9.25;22.0;-0.25;
1441975571971739;0.38238525390625;-0.67535400390625;-0.4893798828125;-0.39776611328125;15.571346348412519;14.991596909973264;0.9005165712777689;-1.27685546875;0.27392578125;-0.1318359375;16.6875;32.25;1.1875;
1441975571994740;0.38372802734375;-0.678955078125;-0.48687744140625;-0.39337158203125;15.520361322541525;15.053413067114974;0.9606743245408836;-1.38818359375;0.32568359375;-0.1962890625;16.9375;37.3125;8.875;
1441975572008741;0.38592529296875;-0.6806640625;-0.4873046875;-0.3878173828125;15.468539855384785;15.08235106067947;1.008135681977974;-1.37109375;0.4150390625;-0.28076171875;6.5;37.3125;17.5;
1441975572031742;0.38836669921875;-0.6820068359375;-0.4888916015625;-0.3809814453125;15.406501960474984;15.100083228253524;1.0532858317754916;-1.25341796875;0.3623046875;-0.30712890625;-16.25;31.0;20.9375;
1441975572054743;0.39141845703125;-0.681640625;-0.49188232421875;-0.37451171875;15.358354479840798;15.098985361713664;1.0896888318591271;-1.25537109375;0.40966796875;-0.40576171875;-26.8125;27.5625;22.875;
1441975572068744;0.3934326171875;-0.68157958984375;-0.4940185546875;-0.36968994140625;15.320361837264844;15.097757508898846;1.1147659639734655;-1.28125;0.40234375;-0.35791015625;-36.8125;25.0625;20.5;
1441975572091746;0.39324951171875;-0.6851806640625;-0.4920654296875;-0.36590576171875;15.266212114814987;15.134784844026047;1.1454800288115938;-1.24755859375;0.3564453125;-0.25048828125;-24.5;25.0;21.4375;
1441975572113747;0.3912353515625;-0.6915283203125;-0.48834228515625;-0.36102294921875;15.180532806765761;15.187113068438084;1.1755370195307526;-1.17724609375;0.353515625;-0.23046875;9.6875;32.625;25.3125;
1441975572128748;0.39166259765625;-0.69427490234375;-0.489013671875;-0.35430908203125;15.103986676903874;15.199734387939102;1.2023301131964497;-1.1484375;0.4970703125;-0.39404296875;24.125;31.6875;29.0625;
1441975572151749;0.39398193359375;-0.6944580078125;-0.4912109375;-0.3482666015625;15.054093375944602;15.19918673054255;1.2320559381870861;-1.10498046875;0.50146484375;-0.423828125;-13.3125;27.0;25.0;
1441975572173750;0.39544677734375;-0.697021484375;-0.4896240234375;-0.34368896484375;15.003105189862808;15.234795115749197;1.2727408074443975;-1.146484375;0.39208984375;-0.33154296875;-28.375;27.8125;21.375;
1441975572188751;0.3956298828125;-0.7015380859375;-0.48675537109375;-0.33837890625;14.929715747563415;15.279940648124173;1.3114513857758467;-1.14501953125;0.35791015625;-0.36865234375;-3.375;31.4375;21.125;
1441975572211752;0.3975830078125;-0.705322265625;-0.48388671875;-0.33221435546875;14.857810241495518;15.331270460771844;1.3663247363103856;-1.0029296875;0.455078125;-0.4052734375;9.4375;33.5625;20.4375;
1441975572235754;0.4010009765625;-0.70611572265625;-0.484130859375;-0.32598876953125;14.805981794211986;15.352392299471278;1.414028211480471;-0.93408203125;0.41650390625;-0.47119140625;-0.4375;36.0625;14.9375;
1441975572256755;0.40509033203125;-0.7056884765625;-0.48492431640625;-0.32061767578125;14.770982604141025;15.367765889367547;1.4609550234041468;-0.9892578125;0.45849609375;-0.38232421875;-20.6875;34.8125;7.4375;
1441975572271756;0.41070556640625;-0.70635986328125;-0.48321533203125;-0.3145751953125;14.727335737259565;15.415475941204486;1.5359836666766649;-1.1142578125;0.50146484375;-0.3369140625;-22.875;35.875;2.625;
1441975572293757;0.41986083984375;-0.70574951171875;-0.482177734375;-0.3052978515625;14.669570277801803;15.470799823318702;1.6446776653332809;-1.189453125;0.529296875;-0.38427734375;-14.5;50.5625;-3.5625;
1441975572310758;0.43133544921875;-0.7061767578125;-0.47772216796875;-0.29510498046875;14.598338036095333;15.566283480932512;1.7898952247541602;-1.13671875;0.47412109375;-0.35888671875;-34.75;71.25;-8.625;
1441975572339760;0.4383544921875;-0.71240234375;-0.4727783203125;-0.2772216796875;14.40413491777658;15.64209271290169;1.9056257779569328;-1.20361328125;0.01171875;-0.3154296875;-34.0625;97.5;10.0;
1441975572353761;0.44140625;-0.71923828125;-0.46441650390625;-0.26873779296875;14.27999293148485;15.72799913833802;1.9796047916832298;-1.291015625;0.3388671875;-0.75341796875;-22.25;112.5;32.625;
1441975572368761;0.4517822265625;-0.70037841796875;-0.48773193359375;-0.25982666015625;14.357429813080984;15.547946395999173;1.9855447854825914;-1.88134765625;0.7783203125;-1.0810546875;16.875;70.0625;28.1875;
1441975572391763;0.4468994140625;-0.69854736328125;-0.50543212890625;-0.238525390625;14.171726197817373;15.36430000732856;1.910570951510784;-2.0224609375;0.8369140625;0.6376953125;-185.0;-23.5625;-30.8125;
1441975572413764;0.43011474609375;-0.72186279296875;-0.48724365234375;-0.2379150390625;13.968981164108364;15.478103550788298;1.8486488589253884;-1.1826171875;0.708984375;-0.3837890625;-122.8125;25.625;100.9375;
1441975572428765;0.41632080078125;-0.7303466796875;-0.48577880859375;-0.23944091796875;13.895529948104176;15.450881770985015;1.7437887895389703;-0.84423828125;0.57763671875;-0.46533203125;161.9375;32.0625;103.5625;
1441975572451766;0.4007568359375;-0.73712158203125;-0.49444580078125;-0.22711181640625;13.697997463032127;15.33584521852884;1.6232347452787277;-1.001953125;1.17431640625;-0.2724609375;76.9375;-13.875;45.1875;
1441975572473767;0.38287353515625;-0.74365234375;-0.50347900390625;-0.21673583984375;13.505909079601986;15.220172603917288;1.4905973549882479;-0.8408203125;1.0849609375;-0.35986328125;-21.375;-1.8125;121.875;
1441975572488768;0.36480712890625;-0.7459716796875;-0.516357421875;-0.2093505859375;13.355682250384321;15.077091962064973;1.345856054404208;-0.8828125;1.1103515625;-0.51953125;-17.625;-19.3125;126.9375;
1441975572511770;0.343994140625;-0.7501220703125;-0.52886962890625;-0.1983642578125;13.140725977579422;14.942664493267042;1.204908655036635;-0.88916015625;1.044921875;-0.263671875;-38.1875;-43.3125;116.4375;
1441975572533771;0.3193359375;-0.7564697265625;-0.53887939453125;-0.188232421875;12.897074398579601;14.831096246724641;1.0564561789902154;-0.87255859375;0.8720703125;-0.2265625;-36.375;-33.1875;145.125;
1441975572548772;0.293212890625;-0.76141357421875;-0.55029296875;-0.17755126953125;12.637329237176251;14.715058058792078;0.90850732382343;-0.82861328125;0.7119140625;-0.275390625;-14.75;-41.5;162.75;
1441975572571773;0.26434326171875;-0.76580810546875;-0.562255859375;-0.16595458984375;12.346511899631654;14.600585762129056;0.7583205898945679;-0.6962890625;0.79541015625;-0.171875;-23.1875;-47.75;168.3125;
1441975572593774;0.2362060546875;-0.76904296875;-0.57373046875;-0.15380859375;12.050314517690428;14.498933845237197;0.6260999581418434;-0.55224609375;0.783203125;-0.08203125;-25.4375;-53.8125;182.0625;
1441975572616776;0.2110595703125;-0.7733154296875;-0.58050537109375;-0.14349365234375;11.783383034291683;14.439879661211457;0.5205835461297144;-0.32421875;0.79052734375;-0.09619140625;-29.0625;-50.625;176.1875;
1441975572631776;0.190185546875;-0.77777099609375;-0.58331298828125;-0.13702392578125;11.578314656781194;14.412651661291788;0.43424762425506436;-0.228515625;0.70947265625;-0.18505859375;-6.75;-43.125;154.0625;
1441975572654778;0.17120361328125;-0.78118896484375;-0.5855712890625;-0.13275146484375;11.407158583389283;14.38972280467559;0.35231832188241724;-0.3720703125;0.701171875;-0.27685546875;11.0;-40.75;121.8125;
1441975572668779;0.155029296875;-0.78204345703125;-0.5885009765625;-0.13458251953125;11.313757688715796;14.357516015332031;0.26227402188404414;-0.45947265625;0.82666015625;-0.35888671875;10.125;-44.5625;105.5625;
1441975572691780;0.1405029296875;-0.77880859375;-0.59405517578125;-0.1446533203125;11.309172879859489;14.296363037876416;0.14637569723505287;-0.46484375;0.82763671875;-0.3486328125;-1.9375;-65.6875;75.0625;
1441975572713781;0.12933349609375;-0.77215576171875;-0.60125732421875;-0.1602783203125;11.376486552776418;14.213910875931411;0.021890149453501213;-0.50439453125;0.689453125;-0.3603515625;-18.125;-101.8125;35.3125;
1441975572728782;0.1226806640625;-0.76416015625;-0.6075439453125;-0.17877197265625;11.497755173373307;14.130548129969586;17.906036436304657;-0.53759765625;0.5791015625;-0.251953125;-34.6875;-118.625;1.375;
1441975572751783;0.120849609375;-0.75665283203125;-0.61083984375;-0.19970703125;11.673059404226121;14.062025485496694;17.80390460048052;-0.55712890625;0.52783203125;-0.1875;-36.875;-116.0625;-29.8125;
1441975572773785;0.12554931640625;-0.750244140625;-0.609619140625;-0.2232666015625;11.921109002436166;14.018550715732431;17.72446031672634;-0.55224609375;0.48876953125;-0.197265625;-25.5;-107.9375;-62.3125;
1441975572788785;0.1361083984375;-0.74420166015625;-0.60369873046875;-0.25140380859375;12.258278910169263;13.994424066507866;17.65592690396498;-0.5693359375;0.439453125;-0.23388671875;-8.625;-92.75;-104.125;
1441975572811787;0.15032958984375;-0.7373046875;-0.59454345703125;-0.2835693359375;12.664411947152534;13.974571984230678;17.586179828145053;-0.662109375;0.33154296875;-0.26123046875;8.0625;-88.1875;-149.125;
1441975572833788;0.16693115234375;-0.72857666015625;-0.583251953125;-0.31817626953125;13.116926396262969;13.948070938980248;17.510898454832635;-0.70947265625;0.33251953125;-0.23876953125;17.25;-91.6875;-184.4375;
1441975572848789;0.1861572265625;-0.7171630859375;-0.5709228515625;-0.3536376953125;13.60381258467777;13.905646602760761;17.43176303122049;-0.64697265625;0.35888671875;-0.20458984375;18.6875;-95.25;-210.0;
1441975572879791;0.2105712890625;-0.7008056640625;-0.55828857421875;-0.39105224609375;14.155101961088953;13.827150099431904;17.342377878804385;-0.548828125;0.52294921875;-0.2197265625;10.375;-94.5;-232.375;
1441975572895792;0.2373046875;-0.68023681640625;-0.54345703125;-0.4310302734375;14.758558183661336;13.702702447522451;17.211839995407495;-0.56640625;0.5126953125;-0.2685546875;-13.6875;-96.6875;-267.0;
1441975572910792;0.26318359375;-0.66070556640625;-0.52215576171875;-0.47076416015625;15.37486311246656;13.57469457671465;17.051098966900085;-0.630859375;0.24462890625;-0.09912109375;-18.5625;-104.25;-291.4375;
1441975572931794;0.2857666015625;-0.64593505859375;-0.4931640625;-0.5079345703125;15.970984731419241;13.480888031648078;16.883057257645227;-0.6728515625;0.14111328125;0.025390625;12.5625;-93.3125;-301.25;
1441975572953795;0.30670166015625;-0.63262939453125;-0.460205078125;-0.542236328125;16.552775218337654;13.36787379181403;16.681368072551674;-0.75;0.1591796875;0.01171875;60.5625;-69.0625;-295.625;
1441975572970796;0.32879638671875;-0.61712646484375;-0.4267578125;-0.5736083984375;17.130644559770555;13.077814747943876;16.31744040876805;-0.83642578125;0.1943359375;-0.099609375;79.3125;-54.3125;-292.375;
1441975572991797;0.35369873046875;-0.59521484375;-0.3944091796875;-0.604248046875;17.662067269704053;11.276874719409749;14.472063712011579;-0.92041015625;0.19775390625;-0.17578125;66.0;-48.5;-295.375;
1441975573013798;0.37860107421875;-0.56817626953125;-0.3663330078125;-0.63226318359375;17.471128447163775;6.867066848119739;10.049238592956604;-1.06298828125;0.11181640625;-0.15234375;36.4375;-61.9375;-312.3125;
1441975573030799;0.40228271484375;-0.5401611328125;-0.34173583984375;-0.655517578125;16.94290625684463;6.020713567869197;9.209933308651792;-1.06787109375;-0.17822265625;-0.03125;5.4375;-78.0625;-298.8125;
1441975573051800;0.42071533203125;-0.51605224609375;-0.31732177734375;-0.67535400390625;16.45657734214868;5.761893637536532;8.939579363481979;-1.009765625;-0.38720703125;-0.029296875;-13.5625;-76.1875;-272.1875;
1441975573073802;0.4339599609375;-0.49700927734375;-0.29339599609375;-0.69183349609375;16.043948912671972;5.6365408775148635;8.782447328463899;-1.02392578125;-0.47998046875;-0.0634765625;5.8125;-62.8125;-239.875;
1441975573090803;0.4429931640625;-0.48138427734375;-0.27154541015625;-0.7059326171875;15.695355596975157;5.579875822662601;8.683868634220055;-1.04296875;-0.498046875;-0.11767578125;26.125;-45.0;-205.0625;
1441975573111804;0.4483642578125;-0.46771240234375;-0.2508544921875;-0.71923828125;15.386079983980462;5.56787576148028;8.618059834690799;-1.1044921875;-0.388671875;-0.099609375;36.5625;-37.0;-175.9375;
1441975573133805;0.453857421875;-0.45391845703125;-0.2320556640625;-0.73089599609375;15.093845238349344;5.562253400943465;8.568995333764489;-1.1376953125;-0.14892578125;-0.14404296875;49.1875;-36.5;-159.625;
1441975573150806;0.461669921875;-0.43896484375;-0.21630859375;-0.73992919921875;14.812860921182134;5.545413132443571;8.535721296105885;-1.09375;0.05419921875;-0.1376953125;38.875;-37.375;-154.1875;
1441975573171807;0.4700927734375;-0.42431640625;-0.2027587890625;-0.7469482421875;14.553320520174077;5.523941307087385;8.511531023600392;-1.04052734375;0.1103515625;-0.16259765625;12.75;-40.4375;-147.5625;
1441975573195809;0.47381591796875;-0.412841796875;-0.1876220703125;-0.7548828125;14.323518064069017;5.527566003506003;8.48043160142648;-1.00439453125;0.06689453125;-0.13232421875;-0.25;-38.875;-136.3125;
1441975573210810;0.4730224609375;-0.4044189453125;-0.17120361328125;-0.76385498046875;14.123594830208962;5.555297088818122;8.442681092119235;-0.9140625;0.07861328125;-0.11474609375;29.75;-28.1875;-123.9375;
1441975573231811;0.46942138671875;-0.39654541015625;-0.15374755859375;-0.7738037109375;13.929082343603536;5.602256412045123;8.405626484249648;-0.8271484375;0.20556640625;-0.12744140625;57.875;-18.9375;-113.0;
1441975573253812;0.46478271484375;-0.387939453125;-0.13653564453125;-0.78411865234375;13.733231571427083;5.65986567965547;8.375851410576313;-0.73681640625;0.2890625;-0.14599609375;75.625;-18.625;-110.4375;
1441975573276813;0.46051025390625;-0.37945556640625;-0.12091064453125;-0.7933349609375;13.551157160934677;5.712992917271407;8.350023566516388;-0.63916015625;0.39404296875;-0.1787109375;79.875;-24.125;-110.1875;
1441975573291814;0.45892333984375;-0.37628173828125;-0.113037109375;-0.79693603515625;13.470343342924737;5.729054473637272;8.328044061946096;-0.5107421875;0.41552734375;-0.220703125;72.1875;-25.6875;-101.0;
1441975573313815;0.4593505859375;-0.375;-0.109130859375;-0.7978515625;13.431272628454645;5.725391791129514;8.311339761990899;-0.47607421875;0.359375;-0.20068359375;32.875;-21.875;-82.0625;
1441975573330816;0.45556640625;-0.37689208984375;-0.1072998046875;-0.79931640625;13.444871653358904;5.746155052403377;8.303466477065156;-0.55615234375;0.1953125;-0.1171875;9.375;-14.1875;-57.375;
1441975573351818;0.4473876953125;-0.3831787109375;-0.10748291015625;-0.80096435546875;13.52302420441635;5.788081017312257;8.298785122852896;-0.6015625;0.1650390625;-0.04345703125;24.5625;-6.5625;-31.375;
1441975573373819;0.44207763671875;-0.39068603515625;-0.11102294921875;-0.7998046875;13.63066551767545;5.805051975845397;8.297004515530801;-0.5322265625;0.361328125;-0.11474609375;42.6875;3.125;-6.875;
1441975573390820;0.4295654296875;-0.40093994140625;-0.114990234375;-0.80096435546875;13.781964056119987;5.872231919786312;8.309652468884485;-0.58056640625;0.20849609375;-0.1220703125;18.9375;6.5;12.0625;
1441975573411821;0.41326904296875;-0.418701171875;-0.12359619140625;-0.7991943359375;14.04739292190859;5.94645532194021;8.325310387167514;-0.66259765625;0.14990234375;-0.07958984375;57.9375;8.3125;36.25;
1441975573433822;0.4072265625;-0.43963623046875;-0.14288330078125;-0.7877197265625;14.39950817453952;5.932189515825806;8.346416461689051;-0.6337890625;0.53271484375;-0.20947265625;59.3125;29.5;68.6875;
1441975573451823;0.4100341796875;-0.4527587890625;-0.1649169921875;-0.7744140625;14.676826450973143;5.87934643419227;8.389734669277662;-0.7109375;0.646484375;-0.37109375;-30.25;38.6875;99.375;
1441975573471824;0.4039306640625;-0.47015380859375;-0.18585205078125;-0.762451171875;15.011350911438779;5.885176796990119;8.442217285909921;-0.88720703125;0.28857421875;-0.2119140625;-87.875;36.5;122.5;
1441975573493826;0.39300537109375;-0.49212646484375;-0.20782470703125;-0.74847412109375;15.415788724204013;5.915759688740535;8.49987736510263;-0.9384765625;0.29931640625;-0.1767578125;-38.75;46.625;149.375;
1441975573510827;0.383544921875;-0.51568603515625;-0.23541259765625;-0.7291259765625;15.88288513208587;5.940025765350614;8.583818757905961;-1.08544921875;0.607421875;-0.3154296875;-20.5;62.25;174.5625;
1441975573531828;0.37158203125;-0.541015625;-0.26739501953125;-0.70556640625;16.416924813384682;6.026035950095959;8.739927598355525;-1.41259765625;0.50146484375;-0.3017578125;-52.375;73.0625;205.4375;
1441975573555829;0.36468505859375;-0.56231689453125;-0.30596923828125;-0.67620849609375;16.960344226121354;6.2145869690122835;9.05811570821799;-1.640625;0.7919921875;-0.2734375;-62.875;80.1875;236.9375;
1441975573576830;0.35418701171875;-0.58355712890625;-0.35302734375;-0.63983154296875;17.543799751367057;7.439408980126766;10.442536166205436;-2.18701171875;0.55908203125;-0.271484375;-121.6875;84.6875;268.0625;
1441975573591831;0.3206787109375;-0.616455078125;-0.38897705078125;-0.60491943359375;17.43854931352883;12.471446626533083;15.487235765789212;-2.751953125;-0.521484375;0.23486328125;-150.1875;82.9375;325.0;
1441975573613833;0.2708740234375;-0.65679931640625;-0.41107177734375;-0.5712890625;16.666434694560444;13.616855142240615;16.521154906040223;-2.7177734375;-0.7509765625;0.31298828125;-1.625;96.9375;381.875;
