1441975680457944;0.09259033203125;-0.75628662109375;-0.61907958984375;-0.1905517578125;11.375458723155278;14.006416006437226;17.699369650608645;-1.79541015625;0.630859375;-0.03955078125;113.25;67.4375;229.6875;
1441975680481945;0.10052490234375;-0.73687744140625;-0.648193359375;-0.1639404296875;11.18316565706493;13.827997439140686;17.80117703611832;-1.70751953125;0.56005859375;-0.08349609375;-53.5625;109.0;160.9375;
1441975680503946;0.10662841796875;-0.70703125;-0.68621826171875;-0.134033203125;10.962305930519156;13.568133330760897;17.89909884079818;-1.6787109375;0.2294921875;0.1015625;-215.4375;111.8125;106.6875;
1441975680517947;0.10675048828125;-0.674560546875;-0.72296142578125;-0.104736328125;10.719556538590977;13.29828002942477;17.977746061478605;-1.65625;-0.2724609375;0.04638671875;-294.875;99.0;104.0;
1441975680549949;0.1043701171875;-0.65087890625;-0.74755859375;-0.08172607421875;10.52135567976515;13.10994187407221;0.04059642696625224;-1.47265625;-0.60400390625;-0.0302734375;-294.9375;71.9375;123.25;
1441975680563950;0.0994873046875;-0.64581298828125;-0.75439453125;-0.0634765625;10.341880832647384;13.067918361149442;0.09639658859237693;-1.25830078125;-0.54248046875;-0.0654296875;-205.5;47.625;127.75;
1441975680577951;0.10040283203125;-0.65740966796875;-0.744873046875;-0.0546875;10.279467807060126;13.159753144782284;0.1485287106813483;-1.0078125;-0.27783203125;-0.064453125;-56.1875;37.875;114.5625;
1441975680600952;0.09991455078125;-0.67291259765625;-0.7314453125;-0.04779052734375;10.214946999690014;13.281485700361985;0.18929479070436456;-0.7802734375;0.15966796875;-0.1328125;70.3125;37.125;87.5;
1441975680623953;0.101806640625;-0.6866455078125;-0.7183837890625;-0.046630859375;10.21393451239422;13.393313239139072;0.21354040635766433;-0.7373046875;0.556640625;-0.1533203125;109.4375;34.8125;46.1875;
1441975680637954;0.108154296875;-0.6973876953125;-0.70660400390625;-0.0523681640625;10.305395982254737;13.488282759922672;0.2261984539351422;-0.759765625;0.64794921875;-0.09326171875;104.8125;22.625;12.25;
1441975680660955;0.11553955078125;-0.70684814453125;-0.69525146484375;-0.060791015625;10.427551234614896;13.57660721427557;0.23320606517303585;-0.677734375;0.71728515625;0.015625;93.375;12.75;-10.4375;
1441975680683957;0.12628173828125;-0.71405029296875;-0.6846923828125;-0.0738525390625;10.616335626955111;13.653841360939525;0.2365116223464506;-0.5234375;0.919921875;0.03955078125;90.9375;7.375;-41.5;
1441975680706958;0.14227294921875;-0.7169189453125;-0.67681884765625;-0.08807373046875;10.85935074768797;13.706831140675742;0.2565699230099667;-0.39453125;0.9814453125;0.06640625;84.4375;2.0625;-86.9375;
1441975680720959;0.16107177734375;-0.71270751953125;-0.67523193359375;-0.1011962890625;11.120716793123849;13.708255469467904;0.28602393401379106;-0.38916015625;1.00048828125;0.0205078125;48.6875;11.8125;-121.875;
1441975680743960;0.18017578125;-0.70623779296875;-0.6751708984375;-0.1138916015625;11.383742603329255;13.695599307532627;0.3160131262470164;-0.529296875;0.890625;0.060546875;-6.5625;19.25;-129.25;
1441975680757961;0.19927978515625;-0.70111083984375;-0.67279052734375;-0.127197265625;11.651700583370262;13.700059193041845;0.3474873386524128;-0.599609375;0.7763671875;0.0498046875;-22.75;19.1875;-129.375;
1441975680780962;0.2178955078125;-0.69696044921875;-0.66845703125;-0.14129638671875;11.922549475244105;13.718280322898561;0.3780247136786335;-0.6318359375;0.76611328125;-0.0048828125;-8.0;19.6875;-131.9375;
1441975680803964;0.234130859375;-0.691162109375;-0.6661376953125;-0.15423583984375;12.167526026459955;13.718987553228072;0.3990230492996789;-0.69873046875;0.75927734375;-0.08447265625;3.4375;17.0;-132.6875;
1441975680819964;0.24786376953125;-0.68536376953125;-0.6641845703125;-0.1666259765625;12.389115588380783;13.715037382126102;0.41003177184649303;-0.76953125;0.7783203125;-0.07080078125;-10.0;9.0;-119.625;
1441975680840966;0.260498046875;-0.68096923828125;-0.6602783203125;-0.18048095703125;12.61382836683032;13.723814171963644;0.41446808067347474;-0.73388671875;0.72802734375;-0.0205078125;-9.3125;1.625;-107.6875;
1441975680863967;0.27081298828125;-0.6790771484375;-0.65411376953125;-0.19427490234375;12.817626624706918;13.751306795283533;0.4155862839789276;-0.76220703125;0.720703125;-0.015625;8.3125;-2.625;-98.9375;
1441975680877968;0.27850341796875;-0.67877197265625;-0.6473388671875;-0.20672607421875;12.98784742516931;13.78607919535091;0.4136737950804121;-0.77978515625;0.75390625;-0.03271484375;28.8125;-5.0625;-91.375;
1441975680900969;0.28399658203125;-0.6785888671875;-0.64141845703125;-0.21783447265625;13.129660631915542;13.814321551583781;0.4054910992794332;-0.70947265625;0.875;-0.0361328125;38.9375;-7.625;-86.0625;
1441975680923970;0.28814697265625;-0.6778564453125;-0.63726806640625;-0.2266845703125;13.242023367868603;13.830670936256695;0.3960245043244753;-0.6513671875;0.84375;-0.04833984375;35.625;-11.8125;-74.9375;
1441975680939971;0.29071044921875;-0.677001953125;-0.6346435546875;-0.23333740234375;13.322708549051807;13.837408946731278;0.38427171923025405;-0.69287109375;0.89208984375;-0.0771484375;24.25;-13.0;-61.6875;
1441975680960972;0.291748046875;-0.67694091796875;-0.6328125;-0.2371826171875;13.36546799760582;13.843930011421492;0.37645274360317904;-0.6484375;0.88525390625;-0.07861328125;16.1875;-13.125;-48.75;
1441975680983974;0.29150390625;-0.67608642578125;-0.6326904296875;-0.24029541015625;13.392455359531155;13.834947225352105;0.3592668159292619;-0.5888671875;0.94970703125;-0.09521484375;12.8125;-9.3125;-37.0625;
1441975680997975;0.2899169921875;-0.6748046875;-0.6341552734375;-0.24188232421875;13.39555918574402;13.814007812794516;0.33699515363173477;-0.62841796875;0.93017578125;-0.083984375;4.0;-14.4375;-25.875;
1441975681020976;0.2874755859375;-0.6749267578125;-0.63507080078125;-0.2420654296875;13.37753794354254;13.803096574222522;0.3203960867865273;-0.6435546875;0.87548828125;-0.07177734375;-4.1875;-15.875;-9.9375;
1441975681043977;0.28411865234375;-0.6759033203125;-0.63580322265625;-0.24139404296875;13.34361956241746;13.796601000111274;0.3047858339811701;-0.66650390625;0.86279296875;-0.08544921875;0.9375;-11.6875;1.625;
1441975681057978;0.27978515625;-0.6763916015625;-0.6378173828125;-0.23980712890625;13.29406181047489;13.780090007547905;0.28447610397453793;-0.67041015625;0.8203125;-0.12158203125;2.3125;-11.8125;12.1875;
1441975681080979;0.2752685546875;-0.67645263671875;-0.64056396484375;-0.2374267578125;13.236361864346192;13.758819380053431;0.26493541263745984;-0.6650390625;0.80419921875;-0.09716796875;-3.3125;-13.4375;21.8125;
1441975681103981;0.27130126953125;-0.676025390625;-0.64361572265625;-0.23504638671875;13.18323809977249;13.735262762388338;0.24732823945386603;-0.68701171875;0.77001953125;-0.078125;-8.625;-12.0625;28.875;
1441975681117981;0.2686767578125;-0.674560546875;-0.6468505859375;-0.23345947265625;13.14878357118106;13.707814928341035;0.231402775400241;-0.7509765625;0.72119140625;-0.09765625;-13.875;-12.125;33.0625;
1441975681140983;0.2674560546875;-0.67181396484375;-0.650634765625;-0.232177734375;13.129435704546278;13.674093080138375;0.2184271869969091;-0.85693359375;0.61083984375;-0.10693359375;-20.1875;-12.125;34.625;
1441975681163984;0.26788330078125;-0.6683349609375;-0.654541015625;-0.230712890625;13.122455635985666;13.640137511570288;0.2136659064324316;-0.95947265625;0.52099609375;-0.07958984375;-27.5625;-9.8125;36.625;
1441975681177985;0.27056884765625;-0.66375732421875;-0.65869140625;-0.228759765625;13.131005341311516;13.6051961457616;0.2207395104202714;-1.00146484375;0.46875;-0.078125;-33.8125;-4.0;35.0625;
1441975681216987;0.2752685546875;-0.65789794921875;-0.66363525390625;-0.22601318359375;13.150453341609696;13.565445821700402;0.2382495845094648;-1.0263671875;0.39501953125;-0.0732421875;-42.8125;3.75;31.1875;
1441975681223988;0.28192138671875;-0.65155029296875;-0.66796875;-0.22332763671875;13.188295120765261;13.530550977197702;0.2659488054274421;-1.0439453125;0.39501953125;-0.0634765625;-54.0;11.25;26.5;
1441975681237988;0.29022216796875;-0.64459228515625;-0.67181396484375;-0.2213134765625;13.24725044279284;13.49772591122988;0.29876367247047864;-1.04931640625;0.4140625;-0.06005859375;-56.375;18.5625;16.4375;
1441975681260990;0.300048828125;-0.63677978515625;-0.67535400390625;-0.22015380859375;13.32825486041191;13.464376677364424;0.33430616894861526;-1.05078125;0.3935546875;-0.08056640625;-58.8125;20.6875;6.25;
1441975681283991;0.3116455078125;-0.628173828125;-0.6781005859375;-0.22021484375;13.437024867692866;13.433511527570131;0.3732656744707035;-1.03466796875;0.38916015625;-0.08544921875;-61.9375;21.8125;-6.0;
1441975681297992;0.3250732421875;-0.61920166015625;-0.6795654296875;-0.2216796875;13.575159096528022;13.410207462731796;0.4172783531787096;-1.04541015625;0.3984375;-0.06640625;-61.75;25.1875;-20.9375;
1441975681320993;0.339599609375;-0.609375;-0.6802978515625;-0.224853515625;13.739820390743501;13.386980088181417;0.45882370772579073;-1.0537109375;0.3984375;-0.0673828125;-58.125;27.9375;-36.5;
1441975681343994;0.35546875;-0.5992431640625;-0.6795654296875;-0.22979736328125;13.93310118994411;13.371755109222843;0.5023560256408823;-1.03466796875;0.3974609375;-0.04833984375;-56.5625;27.5;-52.4375;
1441975681366996;0.37225341796875;-0.58880615234375;-0.6773681640625;-0.23663330078125;14.152672450492492;13.363857722258306;0.5456491997883787;-0.99267578125;0.36669921875;-0.05224609375;-50.6875;28.25;-69.4375;
1441975681380997;0.38800048828125;-0.5794677734375;-0.6739501953125;-0.2440185546875;14.368007550134227;13.367306879255246;0.5881392030076213;-0.96533203125;0.3486328125;-0.021484375;-42.9375;29.6875;-85.4375;
1441975681403998;0.40447998046875;-0.569580078125;-0.66900634765625;-0.25390625;14.613847046575032;13.376509686166244;0.6272780649202918;-0.974609375;0.37109375;-0.0244140625;-30.875;29.875;-101.6875;
1441975681417999;0.42169189453125;-0.55853271484375;-0.6629638671875;-0.26605224609375;14.889872854115234;13.386165207352672;0.6618562510445449;-0.986328125;0.39697265625;-0.0361328125;-23.1875;27.0625;-118.0;
1441975681441000;0.4395751953125;-0.54620361328125;-0.6558837890625;-0.27984619140625;15.191761545689852;13.396936774180308;0.695061579789372;-1.01513671875;0.388671875;-0.0537109375;-20.375;23.25;-133.8125;
1441975681464001;0.4571533203125;-0.53369140625;-0.64727783203125;-0.29547119140625;15.510924326503668;13.415212172564374;0.725437003264395;-1.05859375;0.32861328125;-0.05029296875;-18.625;21.0;-147.0;
1441975681478002;0.473876953125;-0.52178955078125;-0.6365966796875;-0.31304931640625;15.842785318102774;13.449889127531922;0.7563547288228727;-1.06298828125;0.2861328125;-0.02197265625;-9.1875;18.1875;-155.5625;
1441975681501003;0.48980712890625;-0.5103759765625;-0.62396240234375;-0.33221435546875;16.185386811226227;13.506431033288788;0.7956030125822618;-1.06494140625;0.25244140625;-0.0146484375;6.1875;15.625;-163.125;
1441975681524005;0.50421142578125;-0.49945068359375;-0.610107421875;-0.35235595703125;16.52737393916795;13.58221161099456;0.8427128237030878;-1.0859375;0.22216796875;-0.01025390625;19.5;14.375;-169.125;
1441975681538005;0.51739501953125;-0.48834228515625;-0.59588623046875;-0.37261962890625;16.86517739320306;13.678444675278952;0.9067684150564429;-1.10986328125;0.23388671875;0.01025390625;30.5625;11.0;-170.125;
1441975681561007;0.5294189453125;-0.4769287109375;-0.581787109375;-0.3922119140625;17.192341375116914;13.815428453119635;1.0123198563502467;-1.09765625;0.21923828125;0.009765625;34.0;7.3125;-169.5;
1441975681584008;0.53973388671875;-0.46563720703125;-0.5677490234375;-0.411865234375;17.50858054085823;14.043585633103055;1.204468107349581;-1.078125;0.18408203125;0.02001953125;32.875;4.1875;-165.3125;
1441975681598009;0.54791259765625;-0.4552001953125;-0.55322265625;-0.43194580078125;17.806718603345132;14.799721083647924;1.9140038144562486;-1.07421875;0.09423828125;0.01416015625;37.1875;-1.4375;-159.4375;
1441975681621010;0.55377197265625;-0.44647216796875;-0.5380859375;-0.45220947265625;17.86466237748726;2.9773699606294035;8.031673575574741;-1.05322265625;0.05517578125;0.03076171875;47.75;-5.9375;-154.25;
1441975681644012;0.55804443359375;-0.43890380859375;-0.52301025390625;-0.47174072265625;17.610873892710092;4.162771039815753;9.151803788699475;-1.048828125;0.09375;0.02734375;61.0;-7.5625;-146.5;
1441975681658012;0.5606689453125;-0.4317626953125;-0.50897216796875;-0.49017333984375;17.367667217541104;4.462387789846177;9.386544700733452;-1.099609375;0.13623046875;0.005859375;66.125;-8.375;-137.75;
1441975681681014;0.56231689453125;-0.42449951171875;-0.4959716796875;-0.507568359375;17.137767240375773;4.63789047454099;9.500752226488522;-1.1708984375;0.1845703125;-0.00634765625;65.5625;-12.9375;-128.3125;
1441975681704015;0.563232421875;-0.41717529296875;-0.484375;-0.5235595703125;16.92541447363472;4.7687809342023995;9.576447274234772;-1.166015625;0.2197265625;-0.01416015625;62.5;-17.5;-121.375;
1441975681727016;0.563720703125;-0.40997314453125;-0.47393798828125;-0.53814697265625;16.72942441273956;4.8703980107008835;9.62856925795131;-1.12158203125;0.201171875;-0.01513671875;56.1875;-20.5;-112.1875;
1441975681741017;0.5618896484375;-0.40576171875;-0.46600341796875;-0.54998779296875;16.593129174415793;4.964992490601353;9.673281029821954;-1.04736328125;0.158203125;-0.0205078125;50.5;-22.5625;-102.6875;
1441975681764018;0.55889892578125;-0.4029541015625;-0.45855712890625;-0.56134033203125;16.476354100896014;5.055402677556241;9.709065120082858;-0.9755859375;0.14013671875;-0.00390625;50.8125;-22.625;-92.1875;
1441975681778019;0.5546875;-0.40130615234375;-0.4520263671875;-0.57183837890625;16.381804493545214;5.149024880433197;9.746162988304349;-0.9169921875;0.119140625;-0.0029296875;55.375;-22.625;-80.5625;
1441975681810021;0.5498046875;-0.4007568359375;-0.44683837890625;-0.5809326171875;16.312420033029873;5.240997771177895;9.784305081983979;-0.88037109375;0.107421875;-0.01318359375;57.8125;-24.0;-68.1875;
1441975681824022;0.54412841796875;-0.40130615234375;-0.44305419921875;-0.5887451171875;16.267913816172644;5.33739462884132;9.829081927042736;-0.8583984375;0.09716796875;-0.02294921875;55.1875;-24.75;-54.5625;
1441975681838023;0.538330078125;-0.40289306640625;-0.44036865234375;-0.594970703125;16.246088681080167;5.42667579028692;9.871122705450682;-0.80078125;0.12548828125;-0.01953125;53.5;-24.4375;-42.375;
1441975681861024;0.5323486328125;-0.4049072265625;-0.43902587890625;-0.59991455078125;16.241358965824503;5.519785949433379;9.92282168477914;-0.75048828125;0.12158203125;-0.03173828125;49.0;-22.5625;-29.6875;
1441975681884025;0.52532958984375;-0.40838623046875;-0.4385986328125;-0.6041259765625;16.258609002528868;5.625516397679239;9.98470280470309;-0.73193359375;0.068359375;-0.015625;43.5;-21.75;-16.25;
1441975681906027;0.51690673828125;-0.41351318359375;-0.439208984375;-0.607421875;16.301175695781755;5.752110736649316;10.064328785119642;-0.7265625;0.0576171875;-0.0166015625;46.6875;-21.0;-3.125;
1441975681921027;0.5081787109375;-0.41986083984375;-0.441162109375;-0.6090087890625;16.36853746989262;5.889627636860606;10.159408825495985;-0.70263671875;0.08984375;-0.0087890625;49.9375;-19.375;9.625;
1441975681944029;0.49993896484375;-0.42669677734375;-0.44427490234375;-0.60882568359375;16.452193198198675;6.032298776198225;10.2682286495451;-0.6748046875;0.1455078125;-0.02001953125;45.625;-16.75;20.875;
1441975681958030;0.4915771484375;-0.43402099609375;-0.4481201171875;-0.607666015625;16.54575429885138;6.19480915494072;10.400145001946647;-0.685546875;0.1357421875;-0.02392578125;37.0;-13.875;30.9375;
1441975681981031;0.48223876953125;-0.4427490234375;-0.4520263671875;-0.60595703125;16.652038375711523;6.390767028290404;10.560468915029539;-0.7080078125;0.11767578125;9.765625E-4;34.0625;-10.375;39.3125;
1441975682004032;0.47210693359375;-0.452880859375;-0.4560546875;-0.6033935546875;16.771182765785387;6.630310550602372;10.76092852580535;-0.72216796875;0.1298828125;0.02099609375;38.9375;-6.125;47.6875;
1441975682018033;0.46209716796875;-0.46368408203125;-0.46044921875;-0.599609375;16.896879178372245;6.917973116012744;11.01256526492578;-0.72021484375;0.16357421875;0.033203125;42.0625;-0.875;55.125;
1441975682041034;0.4527587890625;-0.474365234375;-0.46563720703125;-0.5943603515625;17.020970112519812;7.2726044596836745;11.3399748974818;-0.7666015625;0.1806640625;0.03125;39.0625;3.9375;60.9375;
1441975682064036;0.4444580078125;-0.48455810546875;-0.47210693359375;-0.58721923828125;17.137720240294406;7.726845036593222;11.780492411463745;-0.81103515625;0.17333984375;0.04443359375;30.75;7.375;67.125;
1441975682078036;0.43768310546875;-0.49407958984375;-0.4798583984375;-0.57806396484375;17.237976964824924;8.30539772922467;12.361092120666619;-0.83447265625;0.1728515625;0.05859375;17.4375;11.4375;74.1875;
1441975682101038;0.43255615234375;-0.50244140625;-0.48919677734375;-0.5667724609375;17.30509189487035;9.029917816570137;13.106330096005802;-0.86328125;0.16650390625;0.06494140625;1.75;15.875;80.6875;
1441975682123039;0.42877197265625;-0.50946044921875;-0.4998779296875;-0.55389404296875;17.320222438455293;9.843381991040774;13.956521785214136;-0.90771484375;0.13671875;0.06201171875;-15.9375;18.875;87.75;
1441975682156041;0.424560546875;-0.515869140625;-0.51171875;-0.54022216796875;17.266244334040298;10.64151860138109;14.797382545250944;-0.97900390625;0.07080078125;0.0703125;-31.0625;19.875;96.5625;
1441975682161041;0.4200439453125;-0.5224609375;-0.52410888671875;-0.52532958984375;17.155720615845482;11.319965484713428;15.522133057757916;-1.0263671875;0.05078125;0.08447265625;-36.3125;18.75;104.9375;
1441975682183042;0.41552734375;-0.5289306640625;-0.53717041015625;-0.50897216796875;16.99991443927656;11.838435882817445;16.093338337212103;-1.05126953125;0.0830078125;0.095703125;-39.75;20.5625;112.0625;
1441975682198043;0.41107177734375;-0.5347900390625;-0.55078125;-0.49163818359375;16.813094652970413;12.20122318706231;16.51520392654311;-1.0859375;0.1181640625;0.09033203125;-45.3125;23.1875;118.0625;
1441975682221045;0.40582275390625;-0.54034423828125;-0.56439208984375;-0.47418212890625;16.604367391868468;12.446351244690405;16.81845338310104;-1.17724609375;0.07421875;0.076171875;-51.5625;22.875;122.9375;
1441975682243046;0.39923095703125;-0.5467529296875;-0.576904296875;-0.45703125;16.381835382298004;12.629648891569634;17.049642414371903;-1.19580078125;0.033203125;0.10791015625;-50.0;20.75;126.75;
1441975682258047;0.3919677734375;-0.553955078125;-0.5885009765625;-0.4395751953125;16.14948785165443;12.778899086280592;17.24098826481045;-1.140625;0.05615234375;0.13134765625;-39.5;20.5;129.3125;
1441975682281048;0.38507080078125;-0.56060791015625;-0.599853515625;-0.4215087890625;15.915128255361585;12.89232052226698;17.400498516768;-1.07861328125;0.1171875;0.14697265625;-32.75;24.125;130.9375;
1441975682305049;0.3787841796875;-0.56561279296875;-0.611572265625;-0.4031982421875;15.684289235498099;12.963656562226456;17.52666349353353;-1.06494140625;0.15673828125;0.12744140625;-36.25;25.9375;130.25;
1441975682318050;0.37261962890625;-0.56927490234375;-0.6239013671875;-0.3846435546875;15.452601983050055;13.002780446971787;17.62790904828794;-1.10595703125;0.140625;0.1083984375;-45.3125;23.8125;127.5625;
1441975682341051;0.3665771484375;-0.57177734375;-0.63623046875;-0.36602783203125;15.22469322118992;13.021285998878325;17.713131256445887;-1.08154296875;0.14208984375;0.126953125;-52.3125;20.6875;127.125;
1441975682363053;0.361328125;-0.572998046875;-0.648193359375;-0.34783935546875;15.011372171676916;13.024886143933978;17.787928072508908;-1.013671875;0.18310546875;0.11865234375;-57.0625;18.9375;124.0625;
1441975682378054;0.3568115234375;-0.5731201171875;-0.65972900390625;-0.33026123046875;14.813290460152215;13.017360755442349;17.854668823014162;-0.9931640625;0.21484375;0.11767578125;-61.4375;18.25;116.5;
1441975682401055;0.35455322265625;-0.5712890625;-0.66943359375;-0.31591796875;14.668253962585553;12.997442264719474;17.906797147458427;-0.97265625;0.23828125;0.12109375;-64.0;17.5625;108.3125;
1441975682423056;0.35333251953125;-0.5692138671875;-0.67742919921875;-0.30389404296875;14.554654704992647;12.978578702567674;17.951948099158493;-0.94970703125;0.25390625;0.1181640625;-61.125;16.1875;97.4375;
1441975682438057;0.35235595703125;-0.56744384765625;-0.68365478515625;-0.29412841796875;14.464154594272948;12.963487741196829;17.988712577784757;-0.951171875;0.25244140625;0.11328125;-53.75;14.375;82.875;
1441975682461058;0.35186767578125;-0.5660400390625;-0.6883544921875;-0.28656005859375;14.396894771664572;12.95257936054004;0.018662701535286517;-0.9404296875;0.28662109375;0.11767578125;-42.875;12.25;69.4375;
1441975682483060;0.3526611328125;-0.56427001953125;-0.69158935546875;-0.28106689453125;14.360410606355918;12.943615409947201;0.044544907002693875;-0.89501953125;0.3330078125;0.123046875;-32.75;10.9375;53.875;
1441975682498060;0.35504150390625;-0.56182861328125;-0.6937255859375;-0.27764892578125;14.356631371819788;12.933713219668533;0.06618749670771817;-0.85888671875;0.3662109375;0.11669921875;-27.875;11.3125;35.3125;
1441975682521062;0.35894775390625;-0.5584716796875;-0.6949462890625;-0.2764892578125;14.38636631546635;12.91965462945994;0.08080740058768184;-0.845703125;0.380859375;0.10400390625;-26.1875;11.0;17.3125;
1441975682543063;0.3642578125;-0.55450439453125;-0.69482421875;-0.27777099609375;14.450462325098584;12.904812545313664;0.08862326582048574;-0.82373046875;0.35693359375;0.1142578125;-24.3125;11.25;0.125;
1441975682558064;0.370361328125;-0.5509033203125;-0.693115234375;-0.28106689453125;14.538931772095278;12.896679638123619;0.09303065380930926;-0.8271484375;0.30712890625;0.13427734375;-18.3125;11.8125;-15.0;
1441975682581065;0.377197265625;-0.54766845703125;-0.69000244140625;-0.285888671875;14.647379366455823;12.89587661593747;0.09664568322728395;-0.82763671875;0.30322265625;0.13427734375;-9.0;12.375;-28.0625;
1441975682603066;0.38470458984375;-0.54400634765625;-0.686279296875;-0.2918701171875;14.772519212709396;12.893449653830789;0.09633382093339153;-0.83935546875;0.3173828125;0.109375;-2.1875;13.0;-39.4375;
1441975682618067;0.39239501953125;-0.53973388671875;-0.6822509765625;-0.29888916015625;14.909162017912635;12.884552569625454;0.08780653427481917;-0.8564453125;0.31884765625;0.10498046875;-0.875;12.5;-48.6875;
1441975682642069;0.4005126953125;-0.53485107421875;-0.6778564453125;-0.30682373046875;15.058644756990269;12.86993783138854;0.07270864144344016;-0.87646484375;0.33447265625;0.109375;-0.25;9.6875;-57.1875;
1441975682663070;0.40887451171875;-0.52978515625;-0.67279052734375;-0.3155517578125;15.218520988171038;12.853802569038745;0.052988357009113286;-0.88671875;0.33203125;0.10595703125;-0.625;8.625;-65.0;
1441975682678071;0.417236328125;-0.5247802734375;-0.6669921875;-0.3250732421875;15.38628782176836;12.836832304369187;0.027782221327721766;-0.91015625;0.333984375;0.09912109375;1.75;8.0;-71.875;
1441975682701072;0.42547607421875;-0.51983642578125;-0.66058349609375;-0.3353271484375;15.560053165676534;12.817063526977558;17.995373107669746;-0.93212890625;0.33984375;0.10498046875;6.25;7.5625;-77.625;
1441975682723073;0.4332275390625;-0.514892578125;-0.6536865234375;-0.3463134765625;15.73659941362199;12.789769533941524;17.95064836991559;-0.94775390625;0.326171875;0.0908203125;10.0;6.1875;-81.8125;
1441975682738074;0.4404296875;-0.51031494140625;-0.646240234375;-0.35784912109375;15.913167963933482;12.757670302525865;17.89545903908377;-0.94873046875;0.30078125;0.09912109375;14.0625;4.1875;-84.75;
1441975682761075;0.44683837890625;-0.50634765625;-0.63818359375;-0.36981201171875;16.08652173770999;12.721551158559805;17.829449544268975;-0.958984375;0.28125;0.1025390625;20.1875;2.6875;-85.9375;
1441975682783077;0.4525146484375;-0.50262451171875;-0.62994384765625;-0.38189697265625;16.254392752301765;12.674304322021035;17.748936777775565;-0.97021484375;0.271484375;0.09716796875;26.0625;1.375;-86.0;
1441975682815079;0.45770263671875;-0.4989013671875;-0.62176513671875;-0.39373779296875;16.41593786864604;12.612397771878461;17.65357728716951;-0.97607421875;0.2568359375;0.09375;29.6875;-0.4375;-85.375;
1441975682829079;0.46240234375;-0.4952392578125;-0.614013671875;-0.40496826171875;16.566576014574327;12.533789143013417;17.543212677451983;-0.9755859375;0.2373046875;0.0947265625;29.625;-1.875;-83.375;
1441975682843080;0.4664306640625;-0.49169921875;-0.60675048828125;-0.4154052734375;16.703069364496592;12.436984053758659;17.41637331975679;-0.97265625;0.21875;0.08740234375;28.3125;-3.0;-79.5;
1441975682866081;0.4698486328125;-0.4884033203125;-0.59991455078125;-0.42529296875;16.826572992764596;12.31922517822137;17.26912541044344;-0.970703125;0.203125;0.09033203125;26.5;-3.8125;-74.25;
1441975682883082;0.4722900390625;-0.4857177734375;-0.59344482421875;-0.4345703125;16.932867336212183;12.184961989675495;17.103820979214657;-0.9765625;0.17724609375;0.0947265625;26.5;-4.625;-68.4375;
1441975682905084;0.47418212890625;-0.4837646484375;-0.58746337890625;-0.44281005859375;17.022804986860063;12.049500221990666;16.93814499438371;-0.98876953125;0.17236328125;0.1015625;28.0;-5.4375;-62.25;
1441975682920085;0.4755859375;-0.48199462890625;-0.5823974609375;-0.44989013671875;17.09537358811329;11.905163593064463;16.76776406831927;-0.98876953125;0.1796875;0.08251953125;27.25;-5.375;-55.5625;
1441975682941086;0.47674560546875;-0.48040771484375;-0.5782470703125;-0.45562744140625;17.15264026298752;11.765023815775589;16.60694124142713;-0.97705078125;0.1767578125;0.08447265625;23.5625;-5.375;-48.75;
1441975682963087;0.47772216796875;-0.47894287109375;-0.5750732421875;-0.46014404296875;17.195965729745012;11.633112498928437;16.459836301289602;-0.97314453125;0.17919921875;0.07568359375;18.3125;-5.1875;-41.625;
1441975682980088;0.4783935546875;-0.47760009765625;-0.5728759765625;-0.4635009765625;17.225349658870403;11.516118314629008;16.33261395531978;-0.97998046875;0.1728515625;0.0751953125;13.0625;-4.9375;-34.1875;
1441975683001089;0.478759765625;-0.476806640625;-0.5714111328125;-0.4658203125;17.243471930699886;11.433667219747344;16.242571747746585;-0.98388671875;0.162109375;0.08740234375;8.875;-4.5;-26.625;
1441975683023090;0.47869873046875;-0.4764404296875;-0.5706787109375;-0.4671630859375;17.25040813922199;11.38607519146395;16.189877335744047;-0.9794921875;0.1640625;0.07763671875;6.5;-3.8125;-19.3125;
1441975683047092;0.4783935546875;-0.47650146484375;-0.57073974609375;-0.4674072265625;17.247620697148648;11.380108145059307;16.182326246029433;-0.97998046875;0.16552734375;0.0810546875;3.9375;-3.25;-11.9375;
1441975683062093;0.4779052734375;-0.4766845703125;-0.57147216796875;-0.466796875;17.237095463828698;11.399532229450541;16.20370291967947;-0.970703125;0.166015625;0.07958984375;1.0;-2.1875;-4.9375;
1441975683091094;0.47698974609375;-0.477294921875;-0.5726318359375;-0.46563720703125;17.218707408353197;11.44422597673393;16.25071827301625;-0.9638671875;0.15625;0.08251953125;-2.125;-1.6875;1.5;
1441975683106095;0.4755859375;-0.478515625;-0.5740966796875;-0.4639892578125;17.192495697805896;11.515444032477006;16.323392835704425;-0.95166015625;0.14013671875;0.08740234375;-2.125;-1.25;7.9375;
1441975683121096;0.47369384765625;-0.48040771484375;-0.575927734375;-0.46173095703125;17.157172444643894;11.613205051795;16.42209512408488;-0.947265625;0.14013671875;0.08642578125;-1.0625;-0.9375;14.25;
1441975683143097;0.47149658203125;-0.482666015625;-0.578125;-0.45880126953125;17.11374902964757;11.72531947271934;16.53623984040959;-0.94873046875;0.142578125;0.083984375;-0.3125;-0.25;20.3125;
1441975683166099;0.46917724609375;-0.4849853515625;-0.580810546875;-0.4554443359375;17.063325150393254;11.833581754688455;16.64863571892277;-0.95068359375;0.15478515625;0.06640625;-1.0;-0.25;25.125;
1441975683181099;0.46673583984375;-0.4874267578125;-0.58380126953125;-0.45147705078125;17.00651414986455;11.942978591725627;16.76414503216332;-0.9521484375;0.1533203125;0.07421875;-3.125;-0.375;29.25;
1441975683203101;0.464111328125;-0.4898681640625;-0.5870361328125;-0.447265625;16.94435833913845;12.041653871910752;16.86984467692572;-0.953125;0.16064453125;0.0703125;-4.9375;-0.1875;33.1875;
1441975683226102;0.46124267578125;-0.49249267578125;-0.59033203125;-0.4429931640625;16.877970261038584;12.13179205450862;16.966147750677916;-0.9521484375;0.15478515625;0.0751953125;-5.25;-0.125;36.25;
1441975683241103;0.45819091796875;-0.49542236328125;-0.5936279296875;-0.43853759765625;16.807610833027727;12.219312032477642;17.05897243798208;-0.95751953125;0.1552734375;0.0791015625;-4.4375;-0.25;38.75;
1441975683263104;0.45513916015625;-0.498291015625;-0.596923828125;-0.43389892578125;16.735667760210813;12.29841039296717;17.14412652216079;-0.9658203125;0.16943359375;0.0712890625;-3.8125;-0.1875;40.5625;
1441975683286105;0.4522705078125;-0.5008544921875;-0.60040283203125;-0.42919921875;16.66369243828663;12.363765746452279;17.217654642204174;-0.97119140625;0.17724609375;0.06787109375;-4.3125;-0.25;41.625;
1441975683301106;0.4495849609375;-0.5030517578125;-0.60382080078125;-0.424560546875;16.594229896705684;12.416917425240847;17.28025436095494;-0.97607421875;0.1787109375;0.07177734375;-6.3125;-0.25;42.0625;
1441975683323108;0.44677734375;-0.50531005859375;-0.6070556640625;-0.420166015625;16.525350092229292;12.463400575712884;17.33444051069932;-0.974609375;0.15966796875;0.07568359375;-7.3125;-0.3125;42.375;
1441975683355109;0.4439697265625;-0.5078125;-0.60992431640625;-0.41607666015625;16.458968246501172;12.508600286297737;17.384679459765458;-0.97607421875;0.158203125;0.08544921875;-5.625;-0.25;42.375;
1441975683369110;0.441162109375;-0.51025390625;-0.61260986328125;-0.412109375;16.39410381491961;12.549217551862034;17.429661899410597;-0.96826171875;0.1630859375;0.08203125;-3.0625;0.1875;41.625;
1441975683385111;0.4385986328125;-0.51251220703125;-0.61517333984375;-0.40814208984375;16.332156740288582;12.586473391829859;17.472183206606335;-0.96875;0.173828125;0.08935546875;-2.1875;0.625;40.5625;
1441975683406112;0.4364013671875;-0.514404296875;-0.61761474609375;-0.40435791015625;16.27561963277616;12.617360156985377;17.509566920832953;-0.97314453125;0.1904296875;0.0859375;-2.9375;0.875;39.125;
1441975683422113;0.43463134765625;-0.5157470703125;-0.62005615234375;-0.40081787109375;16.225268127467764;12.639160444946215;17.53996788559835;-0.97900390625;0.1962890625;0.08349609375;-4.5625;1.125;36.625;
1441975683443114;0.43328857421875;-0.5167236328125;-0.622314453125;-0.39752197265625;16.18165524275669;12.656570552553301;17.567024629266292;-0.97412109375;0.19189453125;0.09228515625;-6.4375;1.125;33.625;
1441975683474116;0.43231201171875;-0.5174560546875;-0.62420654296875;-0.3946533203125;16.145930149270583;12.671087154637224;17.590630293577124;-0.97412109375;0.201171875;0.0927734375;-7.75;1.625;30.3125;
1441975683481117;0.4317626953125;-0.51788330078125;-0.62579345703125;-0.39215087890625;16.118139992872354;12.68277777058059;17.611556130631225;-0.966796875;0.19921875;0.09375;-7.375;2.0625;26.5625;
1441975683505118;0.43157958984375;-0.5179443359375;-0.627197265625;-0.3900146484375;16.097361431542016;12.68993508714762;17.628445872820716;-0.955078125;0.2021484375;0.0908203125;-7.4375;2.4375;22.5625;
1441975683526119;0.43182373046875;-0.5177001953125;-0.6282958984375;-0.38836669921875;16.08521635861359;12.693801929519099;17.64180499888696;-0.94873046875;0.208984375;0.0986328125;-7.8125;2.6875;18.375;
1441975683541120;0.4324951171875;-0.51715087890625;-0.6290283203125;-0.3870849609375;16.08142313919905;12.696097071997853;17.65356697548012;-0.93798828125;0.2138671875;0.09130859375;-8.125;2.6875;13.75;
1441975683563121;0.43365478515625;-0.5162353515625;-0.6295166015625;-0.38623046875;16.086310612687356;12.695029001916158;17.6624253660604;-0.93359375;0.21728515625;0.08349609375;-8.5;2.6875;9.125;
1441975683586123;0.43524169921875;-0.514892578125;-0.6297607421875;-0.38592529296875;16.100280260184284;12.688518696928115;17.665942846595584;-0.92919921875;0.21875;0.080078125;-9.1875;2.75;4.25;
1441975683601123;0.4371337890625;-0.51336669921875;-0.62945556640625;-0.38629150390625;16.123888872262008;12.680087983585627;17.665355975706817;-0.92822265625;0.2158203125;0.08251953125;-9.375;2.4375;-0.4375;
1441975683623125;0.43939208984375;-0.51177978515625;-0.62860107421875;-0.38726806640625;16.156842420014378;12.6719260211784;17.66282357341296;-0.93994140625;0.22119140625;0.08203125;-7.5;2.5625;-5.875;
1441975683646126;0.44189453125;-0.5098876953125;-0.62738037109375;-0.38885498046875;16.198017693537768;12.658636572509963;17.653877662749377;-0.9521484375;0.2333984375;0.07177734375;-5.75;2.75;-11.1875;
1441975683661127;0.4447021484375;-0.5076904296875;-0.6258544921875;-0.39093017578125;16.246864676401547;12.640671175446188;17.639675972633082;-0.939453125;0.23486328125;0.076171875;-4.8125;2.3125;-16.5625;
1441975683691129;0.44781494140625;-0.50531005859375;-0.62396240234375;-0.3935546875;16.303570395360836;12.618911408048588;17.62036490119837;-0.9375;0.22802734375;0.0791015625;-4.25;2.625;-21.0;
1441975683706129;0.45111083984375;-0.5028076171875;-0.62164306640625;-0.3966064453125;16.366674329995185;12.594506653622446;17.596805895899795;-0.94091796875;0.2236328125;0.08203125;-2.9375;2.75;-25.5;
1441975683722130;0.4544677734375;-0.50018310546875;-0.619140625;-0.39996337890625;16.43314148598792;12.565107975303738;17.567357070423427;-0.94287109375;0.21044921875;0.0810546875;-1.625;2.5;-28.6875;
1441975683743132;0.45806884765625;-0.497314453125;-0.6165771484375;-0.4033203125;16.50252196401074;12.531657787408848;17.53510202086482;-0.94677734375;0.2080078125;0.07861328125;-1.125;2.375;-31.125;
1441975683766133;0.46173095703125;-0.49432373046875;-0.61407470703125;-0.40667724609375;16.57219452268855;12.492965240392271;17.498304858052805;-0.95068359375;0.1953125;0.0712890625;-2.25;2.375;-32.625;
1441975683781134;0.46527099609375;-0.4913330078125;-0.611572265625;-0.41009521484375;16.640919152185663;12.448760601673046;17.455481958327127;-0.94970703125;0.18115234375;0.06494140625;-3.125;1.9375;-32.875;
1441975683803135;0.46856689453125;-0.48858642578125;-0.60894775390625;-0.4134521484375;16.707120112932937;12.404538084774687;17.411108333626917;-0.9541015625;0.16796875;0.0751953125;-2.5625;1.5625;-32.625;
1441975683826136;0.47161865234375;-0.48583984375;-0.60650634765625;-0.41680908203125;16.769879123386975;12.351958362234694;17.358218046933295;-0.9736328125;0.17333984375;0.06005859375;-1.0625;1.0;-32.1875;
1441975683849138;0.47442626953125;-0.48321533203125;-0.60418701171875;-0.4200439453125;16.82858490610583;12.295094626519546;17.300724966877375;-0.984375;0.16259765625;0.05859375;-1.25;0.0;-31.125;
1441975683863138;0.47674560546875;-0.48101806640625;-0.60186767578125;-0.42327880859375;16.881679784150318;12.237383714502695;17.239775855098184;-0.98291015625;0.1484375;0.0654296875;-0.75;-0.6875;-29.1875;
1441975683886140;0.47845458984375;-0.4793701171875;-0.59954833984375;-0.426513671875;16.927879422859355;12.181119910078623;17.17696819757267;-0.9765625;0.14306640625;0.06982421875;1.9375;-0.9375;-26.9375;
1441975683902141;0.479736328125;-0.47833251953125;-0.59722900390625;-0.429443359375;16.967476112705793;12.135999007567461;17.12323948842987;-0.98486328125;0.14453125;0.07421875;5.625;-1.0;-24.5;
1441975683923142;0.480712890625;-0.4775390625;-0.59527587890625;-0.43194580078125;16.99966086266807;12.095383777806916;17.074750564486582;-0.98291015625;0.1494140625;0.06494140625;7.4375;-1.125;-21.75;
1441975683946143;0.4815673828125;-0.47686767578125;-0.5936279296875;-0.43402099609375;17.02674947074846;12.059762581207348;17.03268759328477;-0.984375;0.15771484375;0.0625;6.875;-1.5;-18.5625;
1441975683962144;0.482177734375;-0.476318359375;-0.59234619140625;-0.4356689453125;17.04742438864078;12.02876372140877;16.99651663535497;-0.98046875;0.1552734375;0.06201171875;5.375;-1.3125;-15.5625;
1441975683983145;0.4825439453125;-0.47607421875;-0.59130859375;-0.4368896484375;17.062207130014002;12.009146731748997;16.972107040528183;-0.97314453125;0.150390625;0.07177734375;4.5;-0.75;-12.625;
1441975684006147;0.482666015625;-0.47613525390625;-0.59051513671875;-0.437744140625;17.071382473895095;12.000532946864357;16.958890354803124;-0.96923828125;0.15234375;0.06982421875;4.375;-0.375;-9.625;
1441975684022148;0.4825439453125;-0.4764404296875;-0.59002685546875;-0.43829345703125;17.074888343045558;11.999966787438545;16.954071567985153;-0.96142578125;0.15771484375;0.07177734375;4.125;-0.125;-6.5625;
1441975684043149;0.4822998046875;-0.47698974609375;-0.5897216796875;-0.43841552734375;17.074204212610518;12.012347739838694;16.9629274525985;-0.96337890625;0.154296875;0.0771484375;4.0;-0.0625;-3.5;
1441975684066150;0.48199462890625;-0.4775390625;-0.5897216796875;-0.4381103515625;17.06948697490472;12.030635825766879;16.979655380159166;-0.95703125;0.16845703125;0.06298828125;3.25;0.0;-1.0625;
1441975684082151;0.48162841796875;-0.47802734375;-0.59002685546875;-0.43756103515625;17.061439313895495;12.049033834429643;16.99808085791874;-0.95556640625;0.16796875;0.06005859375;1.3125;0.125;1.125;
1441975684103152;0.4810791015625;-0.47869873046875;-0.59033203125;-0.43695068359375;17.051229598492;12.071543262017604;17.01975692264997;-0.953125;0.16455078125;0.0673828125;0.0;0.0;3.0625;
1441975684126154;0.4803466796875;-0.47967529296875;-0.590576171875;-0.4364013671875;17.039363173315948;12.098897939094822;17.044501388104376;-0.95751953125;0.162109375;0.06884765625;0.9375;0.0;4.5625;
1441975684142154;0.47930908203125;-0.48077392578125;-0.59100341796875;-0.435791015625;17.02317499725789;12.125570991563498;17.068052561024377;-0.95654296875;0.162109375;0.06396484375;2.8125;-0.0625;5.9375;
1441975684171156;0.4781494140625;-0.48199462890625;-0.59149169921875;-0.43505859375;17.004764126235816;12.155145017070543;17.094342513932137;-0.94775390625;0.166015625;0.07666015625;3.3125;-0.4375;7.3125;
1441975684186157;0.47705078125;-0.4832763671875;-0.5919189453125;-0.4342041015625;16.986561498907413;12.188570582389875;17.124671482110287;-0.95361328125;0.169921875;0.07470703125;3.75;-0.1875;8.6875;
1441975684202158;0.47607421875;-0.48431396484375;-0.59271240234375;-0.43310546875;16.966472388438678;12.21726085331793;17.15306505150606;-0.96923828125;0.171875;0.0654296875;3.0625;-0.1875;9.5625;
1441975684225159;0.4752197265625;-0.48504638671875;-0.5936279296875;-0.43194580078125;16.947054396224836;12.23905862711131;17.17634351593536;-0.966796875;0.169921875;0.06689453125;0.5;-0.375;10.25;
1441975684246160;0.47412109375;-0.486083984375;-0.59442138671875;-0.430908203125;16.926063374168294;12.263690707267441;17.200167023223273;-0.96728515625;0.15185546875;0.07568359375;-0.875;-0.5625;11.125;
1441975684262161;0.47283935546875;-0.4874267578125;-0.594970703125;-0.42999267578125;16.904781980905472;12.292689925266771;17.225905400985113;-0.96337890625;0.14892578125;0.08154296875;1.25;-0.125;12.4375;
1441975684283163;0.47149658203125;-0.48883056640625;-0.59576416015625;-0.4287109375;16.879643072470234;12.325175061440765;17.25655634137138;-0.96728515625;0.14794921875;0.08251953125;3.75;0.3125;13.4375;
1441975684306164;0.470458984375;-0.489990234375;-0.596923828125;-0.42706298828125;16.8535850083406;12.35611033437499;17.28932314889835;-0.9638671875;0.16357421875;0.07568359375;2.4375;0.4375;14.5625;
1441975684322165;0.46966552734375;-0.4906005859375;-0.59832763671875;-0.42523193359375;16.828648043452148;12.377373693570732;17.315977076670837;-0.96826171875;0.169921875;0.07275390625;-1.375;0.4375;15.1875;
1441975684343166;0.46881103515625;-0.4910888671875;-0.5997314453125;-0.42352294921875;16.80406123307068;12.392959138412055;17.336793957959074;-0.96875;0.15966796875;0.07470703125;-4.4375;0.0;15.3125;
1441975684374168;0.46795654296875;-0.4918212890625;-0.60101318359375;-0.42193603515625;16.77996640347552;12.411682881820823;17.35929448175506;-0.9658203125;0.15576171875;0.0849609375;-4.75;-0.125;15.4375;
1441975684382168;0.46697998046875;-0.49261474609375;-0.60198974609375;-0.4205322265625;16.75743297194767;12.430150039338534;17.379652421110464;-0.958984375;0.15966796875;0.07958984375;-3.0;-0.1875;14.875;
1441975684403169;0.46600341796875;-0.49346923828125;-0.6029052734375;-0.41937255859375;16.736112126498544;12.446056617246274;17.396343231025018;-0.958984375;0.1708984375;0.0732421875;-1.375;-0.375;13.9375;
1441975684426171;0.465087890625;-0.49420166015625;-0.6036376953125;-0.41845703125;16.717881500037475;12.458077883343616;17.40844737935188;-0.95654296875;0.17724609375;0.078125;-0.375;-0.4375;12.75;
1441975684442172;0.4642333984375;-0.494873046875;-0.60430908203125;-0.417724609375;16.701511087421462;12.46717933646913;17.417253245061815;-0.9580078125;0.17822265625;0.078125;0.25;-0.6875;11.125;
1441975684463173;0.463623046875;-0.49542236328125;-0.604736328125;-0.4171142578125;16.68951973172205;12.476473038288912;17.426251284203563;-0.94580078125;0.1865234375;0.08056640625;0.75;-0.6875;9.5;
1441975684486174;0.46331787109375;-0.49566650390625;-0.60516357421875;-0.41656494140625;16.68116528688531;12.481807303555831;17.43285522392726;-0.94384765625;0.1923828125;0.07421875;0.5;-0.5625;7.4375;
1441975684502175;0.46331787109375;-0.49542236328125;-0.6055908203125;-0.4161376953125;16.677340792476464;12.479353078879729;17.433614963269285;-0.94873046875;0.19873046875;0.07568359375;-1.1875;-0.25;5.0625;
1441975684523176;0.463623046875;-0.4949951171875;-0.6058349609375;-0.416015625;16.67902180814968;12.47360249789911;17.431022696569727;-0.94921875;0.19580078125;0.08203125;-2.75;-0.25;2.625;
1441975684546178;0.464111328125;-0.4945068359375;-0.6058349609375;-0.416015625;16.6844163610293;12.468842656391569;17.42907001175192;-0.9462890625;0.19140625;0.08154296875;-3.25;0.125;0.25;
1441975684562178;0.46484375;-0.4937744140625;-0.605712890625;-0.416259765625;16.694374727315502;12.459433053042874;17.42278975938021;-0.94677734375;0.1884765625;0.07373046875;-3.0;0.25;-1.8125;
1441975684583180;0.4656982421875;-0.49298095703125;-0.60546875;-0.4166259765625;16.706791313642203;12.449215130329545;17.415510831386634;-0.95458984375;0.18212890625;0.07470703125;-3.0625;0.25;-3.5;
1441975684606181;0.46661376953125;-0.4921875;-0.60504150390625;-0.41717529296875;16.721649535522563;12.43846330104548;17.4068060691491;-0.9541015625;0.1826171875;0.0751953125;-3.0;0.25;-4.875;
1441975684622182;0.467529296875;-0.49127197265625;-0.6046142578125;-0.41778564453125;16.737154929247783;12.424418615358574;17.39499757693676;-0.95556640625;0.18017578125;0.0732421875;-2.4375;0.25;-6.125;
1441975684643183;0.468505859375;-0.4903564453125;-0.6041259765625;-0.41845703125;16.753768881947554;12.410209285372826;17.3828340936588;-0.9560546875;0.185546875;0.07666015625;-2.375;0.4375;-7.375;
1441975684666184;0.4696044921875;-0.4893798828125;-0.60357666015625;-0.419189453125;16.772159730505344;12.39512723472882;17.36995796680272;-0.951171875;0.19189453125;0.0791015625;-2.25;0.5;-8.4375;
1441975684682185;0.470947265625;-0.48822021484375;-0.60302734375;-0.41986083984375;16.792744048218882;12.37899521733533;17.35743274928612;-0.9541015625;0.19384765625;0.0791015625;-2.625;1.0;-9.625;
1441975684703187;0.472412109375;-0.48687744140625;-0.6025390625;-0.42047119140625;16.814167903738888;12.360162220271576;17.343445989806245;-0.9560546875;0.1884765625;0.076171875;-4.125;1.4375;-10.75;
1441975684726188;0.47393798828125;-0.48553466796875;-0.60198974609375;-0.42108154296875;16.836431535718692;12.341825008510174;17.32995312925224;-0.955078125;0.185546875;0.07763671875;-5.3125;1.25;-11.0625;
1441975684742189;0.4755859375;-0.484130859375;-0.6014404296875;-0.421630859375;16.859552570720137;12.323626353944947;17.317297199354755;-0.970703125;0.18896484375;0.07470703125;-5.25;1.6875;-11.75;
1441975684763190;0.477294921875;-0.48248291015625;-0.6009521484375;-0.4222412109375;16.883701148165656;12.29863957076178;17.298741221065228;-0.970703125;0.1904296875;0.0693359375;-5.875;1.75;-12.375;
1441975684786191;0.478759765625;-0.48095703125;-0.60052490234375;-0.4229736328125;16.905575709224575;12.270522369762682;17.275812136424484;-0.96533203125;0.173828125;0.07080078125;-6.8125;1.0;-12.5;
1441975684802192;0.47991943359375;-0.4798583984375;-0.599853515625;-0.423828125;16.925822000704194;12.24837805318644;17.255705201875962;-0.9599609375;0.1611328125;0.08642578125;-5.5625;0.9375;-11.3125;
1441975684825194;0.48095703125;-0.47894287109375;-0.59930419921875;-0.4244384765625;16.942750728499824;12.231636637259772;17.2411910326828;-0.95361328125;0.15478515625;0.0849609375;-2.3125;1.5;-10.3125;
1441975684846195;0.4820556640625;-0.47796630859375;-0.59912109375;-0.42462158203125;16.956193784489816;12.217687474627402;17.23210732138687;-0.955078125;0.16259765625;0.07861328125;-2.3125;1.3125;-9.125;
1441975684870196;0.4832763671875;-0.47674560546875;-0.59918212890625;-0.424560546875;16.96869874645636;12.201070059152773;17.22283345350514;-0.96142578125;0.171875;0.0751953125;-5.125;1.0625;-7.6875;
1441975684885197;0.4842529296875;-0.47564697265625;-0.599365234375;-0.42437744140625;16.97761459459508;12.18598463146718;17.21477263759983;-0.96142578125;0.15771484375;0.0751953125;-7.625;1.125;-6.3125;
1441975684906198;0.4849853515625;-0.47491455078125;-0.5994873046875;-0.42413330078125;16.983740872185034;12.178824578320416;17.212888734926437;-0.953125;0.15087890625;0.0751953125;-7.125;0.875;-4.625;
1441975684922199;0.48541259765625;-0.47442626953125;-0.5997314453125;-0.423828125;16.985698452321653;12.174576370591106;17.21286784850066;-0.95947265625;0.154296875;0.0732421875;-5.25;0.75;-2.9375;
1441975684945200;0.48577880859375;-0.47412109375;-0.60003662109375;-0.42340087890625;16.985785732061636;12.175682591154981;17.2180099807952;-0.96630859375;0.16357421875;0.07763671875;-4.25;0.5;-1.5625;
1441975684966202;0.486083984375;-0.4737548828125;-0.600341796875;-0.42291259765625;16.985332887036453;12.17610815665668;17.222696052899398;-0.9677734375;0.16845703125;0.064453125;-4.4375;-0.1875;-0.5625;
1441975684990203;0.48614501953125;-0.4736328125;-0.6007080078125;-0.42254638671875;16.982294711944025;12.17704992844523;17.226275663639584;-0.97314453125;0.158203125;0.0673828125;-4.25;-0.125;0.4375;
1441975685005204;0.48602294921875;-0.4737548828125;-0.6009521484375;-0.42218017578125;16.977943645100524;12.183258778445827;17.233566563756415;-0.96875;0.15576171875;0.0810546875;-2.5625;-0.125;1.5;
1441975685034205;0.48583984375;-0.47412109375;-0.6011962890625;-0.42169189453125;16.97194086364933;12.1966591129694;17.247507958536545;-0.96923828125;0.15869140625;0.076171875;-0.8125;0.125;2.375;
1441975685042206;0.4857177734375;-0.4742431640625;-0.60174560546875;-0.42083740234375;16.963636937127802;12.208666344832118;17.262919839237412;-0.966796875;0.16943359375;0.0732421875;-0.875;0.5625;3.0;
1441975685065207;0.48590087890625;-0.4742431640625;-0.6024169921875;-0.41973876953125;16.95630364626459;12.223515779590997;17.283429156220496;-0.958984375;0.17333984375;0.08056640625;-2.875;1.125;3.6875;
1441975685086208;0.4862060546875;-0.47412109375;-0.60321044921875;-0.41839599609375;16.948477615548896;12.23966355358531;17.307018994269352;-0.95947265625;0.171875;0.07275390625;-5.5;1.5625;4.125;
1441975685102209;0.486572265625;-0.473876953125;-0.60394287109375;-0.4171142578125;16.942105224138093;12.252970131253067;17.32796076595953;-0.9599609375;0.17041015625;0.07373046875;-7.25;1.875;4.4375;
1441975685132211;0.48687744140625;-0.47381591796875;-0.6046142578125;-0.41595458984375;16.935553870830415;12.267906655091423;17.349257409562338;-0.9609375;0.1630859375;0.0751953125;-7.1875;2.0625;4.625;
1441975685146212;0.48712158203125;-0.47381591796875;-0.60516357421875;-0.41485595703125;16.92935392858634;12.283639513423998;17.37049507154719;-0.9658203125;0.15966796875;0.07568359375;-6.125;2.25;4.8125;
1441975685162213;0.4873046875;-0.47381591796875;-0.605712890625;-0.413818359375;16.922887887403135;12.297563186002252;17.389574793587503;-0.96875;0.1572265625;0.07421875;-5.1875;2.3125;5.125;
1441975685184214;0.48736572265625;-0.47393798828125;-0.606201171875;-0.412841796875;16.91570397251327;12.31237974311261;17.40849994601273;-0.9658203125;0.15283203125;0.07421875;-4.5625;1.9375;5.5;
1441975685208215;0.4873046875;-0.47418212890625;-0.606689453125;-0.41192626953125;16.907398485178955;12.327371031029369;17.426708705407915;-0.96142578125;0.150390625;0.07421875;-3.6875;1.625;5.875;
1441975685222216;0.48724365234375;-0.474365234375;-0.60723876953125;-0.4110107421875;16.898859283366907;12.34019553662075;17.443100464936123;-0.96728515625;0.15380859375;0.07373046875;-3.0;1.375;6.1875;
1441975685245218;0.4871826171875;-0.47442626953125;-0.60784912109375;-0.4100341796875;16.89003746121676;12.350696920818333;17.45790539399291;-0.966796875;0.15380859375;0.07470703125;-3.125;1.1875;6.5;
1441975685266219;0.48699951171875;-0.474609375;-0.60845947265625;-0.4091796875;16.880374039722124;12.360339129659874;17.470766514278736;-0.96142578125;0.1513671875;0.07666015625;-3.8125;1.0625;6.625;
1441975685282220;0.48687744140625;-0.474853515625;-0.60894775390625;-0.4083251953125;16.871748578250074;12.372870541196216;17.486167864882844;-0.96240234375;0.15283203125;0.0791015625;-3.0;0.9375;6.8125;
1441975685305221;0.48687744140625;-0.47503662109375;-0.60943603515625;-0.40740966796875;16.8639739433329;12.386046732370925;17.502913159851794;-0.97216796875;0.158203125;0.07177734375;-2.5625;0.9375;6.4375;
1441975685326222;0.4869384765625;-0.47503662109375;-0.60992431640625;-0.40655517578125;16.857534683123138;12.395015613119703;17.51599460734461;-0.96435546875;0.16455078125;0.0712890625;-3.1875;1.125;5.875;
1441975685342223;0.48699951171875;-0.47509765625;-0.61029052734375;-0.4058837890625;16.85246581131868;12.403459600205467;17.527465432929535;-0.958984375;0.16650390625;0.06787109375;-3.8125;0.9375;5.0;
1441975685365224;0.48699951171875;-0.47515869140625;-0.6104736328125;-0.40545654296875;16.849178262641715;12.409436416726315;17.535071814691168;-0.9599609375;0.16259765625;0.07763671875;-2.8125;1.25;4.25;
1441975685386226;0.4869384765625;-0.47528076171875;-0.610595703125;-0.4052734375;16.846690135118138;12.412804791964655;17.538789567914957;-0.95751953125;0.1630859375;0.078125;-1.375;1.25;3.25;
1441975685402227;0.48699951171875;-0.475341796875;-0.610595703125;-0.405029296875;16.845849235716443;12.41839239744505;17.545114283402913;-0.955078125;0.16455078125;0.08154296875;0.0;1.1875;2.5625;
1441975685425228;0.48724365234375;-0.47509765625;-0.6107177734375;-0.40484619140625;16.846962956956492;12.417394710167452;17.54640676907377;-0.95947265625;0.16845703125;0.07177734375;-0.75;0.8125;1.8125;
1441975685446229;0.4874267578125;-0.47491455078125;-0.61077880859375;-0.40478515625;16.84833572319107;12.415772651277969;17.546182142167392;-0.95947265625;0.158203125;0.0732421875;-1.9375;0.5;1.0625;
1441975685462230;0.48748779296875;-0.474853515625;-0.61077880859375;-0.40484619140625;16.84928840445888;12.414160272965747;17.544725136032145;-0.958984375;0.15869140625;0.0771484375;-1.5;0.3125;0.75;
1441975685485231;0.48748779296875;-0.474853515625;-0.61077880859375;-0.40484619140625;16.84928840445888;12.414160272965747;17.544725136032145;-0.96240234375;0.1591796875;0.07421875;-0.1875;0.1875;0.125;
1441975685506232;0.48760986328125;-0.47479248046875;-0.61053466796875;-0.40509033203125;16.85308595715529;12.412892450536193;17.542564685554872;-0.96923828125;0.17333984375;0.0751953125;0.625;0.0625;-0.3125;
1441975685522233;0.48779296875;-0.474609375;-0.6103515625;-0.4053955078125;16.857656001301223;12.40811780662496;17.53740217879546;-0.96826171875;0.17041015625;0.06884765625;0.75;-0.0625;-1.0625;
1441975685544235;0.48797607421875;-0.474365234375;-0.610107421875;-0.40576171875;16.86309547987163;12.40181721744772;17.53055835918089;-0.9677734375;0.1669921875;0.0732421875;0.4375;-0.0625;-1.6875;
1441975685565236;0.48822021484375;-0.47418212890625;-0.60986328125;-0.4061279296875;16.868787194953576;12.397179497246976;17.525338979673467;-0.96142578125;0.1689453125;0.0751953125;0.625;0.0625;-2.3125;
1441975685582237;0.488525390625;-0.47393798828125;-0.609619140625;-0.4063720703125;16.87461220797011;12.393839130798394;17.522154029927037;-0.9599609375;0.1748046875;0.0771484375;0.5;0.3125;-2.6875;
1441975685604238;0.489013671875;-0.47357177734375;-0.609375;-0.40655517578125;16.881987925775167;12.390683329591415;17.520201414478855;-0.96240234375;0.1787109375;0.07080078125;-0.3125;0.5;-3.125;
1441975685625239;0.489501953125;-0.4730224609375;-0.6092529296875;-0.4068603515625;16.88973936028834;12.380414094164074;17.511639753445632;-0.96484375;0.173828125;0.064453125;-1.5;0.5;-3.5;
1441975685642240;0.48992919921875;-0.47265625;-0.6090087890625;-0.4071044921875;16.89690990238058;12.375570784002155;17.507650109278618;-0.95849609375;0.16845703125;0.08251953125;-1.5625;0.625;-3.625;
1441975685665242;0.490234375;-0.47235107421875;-0.6087646484375;-0.40740966796875;16.90319992315711;12.369774717325676;17.502009290957627;-0.95849609375;0.16650390625;0.07275390625;-0.875;0.5625;-3.4375;
1441975685686243;0.49053955078125;-0.4720458984375;-0.60858154296875;-0.40771484375;16.909090221744382;12.363212421694813;17.495757460511335;-0.96484375;0.16796875;0.0732421875;-0.5;0.375;-3.1875;
1441975685702244;0.49078369140625;-0.4716796875;-0.6085205078125;-0.407958984375;16.913654192661337;12.354442286742486;17.487840801990995;-0.970703125;0.1669921875;0.07177734375;-0.5625;0.0;-2.75;
1441975685724245;0.49102783203125;-0.47137451171875;-0.60845947265625;-0.40814208984375;16.917742386239556;12.347911832892684;17.482163743707957;-0.9677734375;0.1650390625;0.0732421875;-0.8125;-0.25;-2.3125;
1441975685746246;0.49102783203125;-0.4713134765625;-0.60845947265625;-0.40814208984375;16.91794658609336;12.346660305693945;17.481106174917162;-0.9677734375;0.1591796875;0.0732421875;-0.875;-0.5;-1.6875;
1441975685762247;0.49102783203125;-0.4713134765625;-0.60845947265625;-0.408203125;16.918208864360476;12.345602236079356;17.479854146894635;-0.9619140625;0.16162109375;0.0732421875;-0.6875;-0.8125;-0.875;
1441975685784248;0.49102783203125;-0.47113037109375;-0.608642578125;-0.4080810546875;16.9171039317969;12.34186965078409;17.477556824731543;-0.962890625;0.16455078125;0.07568359375;-0.4375;-0.6875;-0.3125;
1441975685807250;0.490966796875;-0.47088623046875;-0.60888671875;-0.4080810546875;16.91585367074515;12.333543401235197;17.4704718965583;-0.95751953125;0.16845703125;0.07177734375;-1.5;-0.875;0.125;
1441975685822251;0.49078369140625;-0.4708251953125;-0.60906982421875;-0.4080810546875;16.913447136226218;12.328610517239829;17.465733051284314;-0.9580078125;0.1640625;0.07666015625;-1.375;-1.125;0.5;
1441975685845252;0.49066162109375;-0.47076416015625;-0.60931396484375;-0.40789794921875;16.910332255167976;12.326706865464063;17.464915745178132;-0.96923828125;0.16845703125;0.07275390625;-0.3125;-1.1875;0.625;
1441975685874254;0.49072265625;-0.47027587890625;-0.6097412109375;-0.40777587890625;16.909098304580386;12.314566572632634;17.45595652200267;-0.96337890625;0.18115234375;0.07177734375;-1.4375;-1.125;0.3125;
1441975685882254;0.49078369140625;-0.469970703125;-0.6099853515625;-0.40777587890625;16.908968534722458;12.3061230350558;17.449258382961247;-0.96630859375;0.1650390625;0.07666015625;-3.0625;-1.5625;0.375;
1441975685905255;0.4906005859375;-0.469970703125;-0.61004638671875;-0.4078369140625;16.907405357960396;12.302820674235953;17.445452073829127;-0.9619140625;0.1533203125;0.07666015625;-1.8125;-1.25;0.5625;
1441975685927257;0.4903564453125;-0.47015380859375;-0.61004638671875;-0.407958984375;16.9054307124956;12.302373073622304;17.44341392892943;-0.95751953125;0.1572265625;0.0791015625;0.375;-0.6875;1.0;
1441975685943257;0.49017333984375;-0.47027587890625;-0.610107421875;-0.40789794921875;16.9029579943644;12.303682690790257;17.44421949171689;-0.95556640625;0.15869140625;0.07666015625;1.6875;-0.5625;1.4375;
1441975685964259;0.4901123046875;-0.4700927734375;-0.6104736328125;-0.4075927734375;16.899395100638362;12.300641944431696;17.44350688510464;-0.95849609375;0.16357421875;0.07177734375;0.3125;-0.6875;1.6875;
1441975685987260;0.4901123046875;-0.46990966796875;-0.61083984375;-0.40728759765625;16.8963060055786;12.298127438983402;17.44347554937713;-0.9560546875;0.16259765625;0.07470703125;-2.1875;-0.75;1.9375;
1441975686003261;0.49005126953125;-0.4698486328125;-0.61114501953125;-0.40704345703125;16.89300493941614;12.297204383401676;17.444143195474723;-0.95556640625;0.16064453125;0.07275390625;-2.5;-0.6875;2.125;
1441975686024262;0.48992919921875;-0.46978759765625;-0.61138916015625;-0.4068603515625;16.889885590583603;12.29539927406449;17.443424986930562;-0.95361328125;0.15869140625;0.076171875;-1.5625;-0.6875;2.125;
1441975686047263;0.4898681640625;-0.4698486328125;-0.611572265625;-0.4066162109375;16.886990014829397;12.29826705610722;17.447185350181755;-0.95703125;0.1669921875;0.080078125;-1.0;-0.5625;1.875;
1441975686064264;0.48980712890625;-0.4698486328125;-0.61175537109375;-0.4063720703125;16.884290470660986;12.29989245399361;17.449897786283408;-0.95947265625;0.17431640625;0.06884765625;-0.9375;-0.375;1.4375;
1441975686085266;0.4898681640625;-0.4697265625;-0.61187744140625;-0.40625;16.883847036527474;12.298684577190471;17.44993166225158;-0.9580078125;0.17529296875;0.07568359375;-1.3125;-0.3125;0.875;
1441975686113267;0.48992919921875;-0.4697265625;-0.61187744140625;-0.40625;16.884321288925122;12.299194269173805;17.45059597110322;-0.9599609375;0.1728515625;0.07861328125;-1.1875;-0.125;0.1875;
1441975686123268;0.4901123046875;-0.4696044921875;-0.61181640625;-0.40618896484375;16.886280365664632;12.299970886226685;17.45226523630421;-0.966796875;0.16845703125;0.0634765625;-0.9375;0.0625;-0.1875;
1441975686144269;0.4903564453125;-0.46942138671875;-0.61181640625;-0.40606689453125;16.888254805313498;12.300402786384902;17.454287956908654;-0.9677734375;0.16552734375;0.07421875;-1.125;0.4375;-0.25;
1441975686167270;0.4906005859375;-0.46929931640625;-0.61187744140625;-0.4058837890625;16.889374470759908;12.3024355680477;17.458066025722122;-0.962890625;0.1630859375;0.07763671875;-1.5;0.75;0.0;
1441975686188271;0.4908447265625;-0.46917724609375;-0.61187744140625;-0.4056396484375;16.89063311527216;12.30618077679943;17.463596622962704;-0.962890625;0.16064453125;0.076171875;-1.625;1.0;0.375;
1441975686204272;0.49102783203125;-0.46917724609375;-0.6119384765625;-0.4053955078125;16.89061839362465;12.311201811416435;17.47001378526866;-0.95556640625;0.16015625;0.07763671875;-1.5;1.125;0.75;
1441975686228274;0.49114990234375;-0.46923828125;-0.61199951171875;-0.40509033203125;16.889665726730577;12.317959332861301;17.478013046261715;-0.9560546875;0.1640625;0.07373046875;-1.3125;1.125;1.0625;
1441975686256275;0.49127197265625;-0.46923828125;-0.612060546875;-0.4049072265625;16.889430446202642;12.321420507178276;17.482521244598065;-0.9619140625;0.1669921875;0.0712890625;-1.25;0.875;1.0625;
1441975686265276;0.49127197265625;-0.46917724609375;-0.612060546875;-0.4049072265625;16.889632029449476;12.320195192502142;17.48149065982291;-0.96435546875;0.16748046875;0.07421875;-1.125;0.625;0.9375;
1441975686287277;0.49127197265625;-0.46917724609375;-0.612060546875;-0.4049072265625;16.889632029449476;12.320195192502142;17.48149065982291;-0.96044921875;0.16650390625;0.07373046875;-0.6875;0.5;0.875;
1441975686308278;0.49127197265625;-0.46917724609375;-0.612060546875;-0.40496826171875;16.88989286368816;12.319164134922696;17.480264872342488;-0.9599609375;0.16357421875;0.08349609375;0.375;0.4375;0.8125;
1441975686324279;0.49127197265625;-0.4691162109375;-0.612060546875;-0.40496826171875;16.890094118601095;12.31793787469103;17.479233342011796;-0.9658203125;0.1650390625;0.08056640625;0.8125;0.375;0.8125;
1441975686348281;0.4913330078125;-0.468994140625;-0.61224365234375;-0.40484619140625;16.88925578307523;12.316041511751182;17.478732974175294;-0.95947265625;0.16748046875;0.080078125;-0.5625;0.3125;0.75;
1441975686368282;0.4913330078125;-0.46893310546875;-0.61224365234375;-0.40484619140625;16.889456675620103;12.314815396975288;17.477701631861308;-0.958984375;0.16357421875;0.08203125;-1.5;-0.0625;0.9375;
1441975686384283;0.4913330078125;-0.46893310546875;-0.61224365234375;-0.40484619140625;16.889456675620103;12.314815396975288;17.477701631861308;-0.96826171875;0.16650390625;0.078125;-0.375;-0.4375;0.875;
1441975686406284;0.49127197265625;-0.46868896484375;-0.61248779296875;-0.40484619140625;16.888194171768482;12.30669522481511;17.470823235196733;-0.966796875;0.1787109375;0.0859375;-0.4375;-0.5;0.3125;
1441975686429285;0.49127197265625;-0.46868896484375;-0.61248779296875;-0.4049072265625;16.88845318576309;12.305663152394704;17.469596355792532;-0.96630859375;0.17138671875;0.08154296875;-1.1875;-1.0625;-0.1875;
1441975686444286;0.49102783203125;-0.46868896484375;-0.6124267578125;-0.4052734375;16.888507314594584;12.298070945706929;17.460064420447953;-0.96044921875;0.162109375;0.08984375;0.0625;-0.9375;-0.1875;
1441975686466287;0.49072265625;-0.4688720703125;-0.61236572265625;-0.40545654296875;16.88671501975384;12.296757358080407;17.456656751428692;-0.958984375;0.16455078125;0.09033203125;2.0;-0.625;-0.25;
1441975686489289;0.4906005859375;-0.46881103515625;-0.612548828125;-0.40545654296875;16.884766953703213;12.29251366115048;17.45276208037717;-0.9599609375;0.17626953125;0.0810546875;1.875;-0.8125;0.0625;
1441975686504290;0.49066162109375;-0.4683837890625;-0.6129150390625;-0.4052734375;16.883452282989932;12.283559288218905;17.446835099485345;-0.958984375;0.1826171875;0.076171875;-0.625;-1.25;0.125;
1441975686526291;0.49066162109375;-0.4678955078125;-0.61328125;-0.40533447265625;16.882864888792078;12.268760687072731;17.434325338911563;-0.9560546875;0.17236328125;0.07568359375;-3.0;-1.5625;0.0;
1441975686549292;0.49041748046875;-0.46771240234375;-0.61346435546875;-0.405517578125;16.88109233238972;12.258025021618376;17.4234355341877;-0.95751953125;0.16455078125;0.08056640625;-2.4375;-2.0;0.0;
1441975686565293;0.49005126953125;-0.46771240234375;-0.613525390625;-0.4058837890625;16.879332248961514;12.248216078286044;17.411686693471786;-0.9619140625;0.16845703125;0.07958984375;-0.1875;-2.3125;-0.25;
1441975686586294;0.4896240234375;-0.4678955078125;-0.613525390625;-0.40618896484375;16.876664597000694;12.243316777120695;17.404149376756653;-0.96142578125;0.17431640625;0.07861328125;1.625;-2.6875;-0.0625;
1441975686609296;0.48919677734375;-0.468017578125;-0.613525390625;-0.40655517578125;16.874428509115088;12.236187466146172;17.394381931663972;-0.9599609375;0.18115234375;0.0732421875;2.375;-2.625;-0.125;
1441975686624296;0.48883056640625;-0.46807861328125;-0.61358642578125;-0.40679931640625;16.871951553121832;12.22977456839296;17.386223603178628;-0.95849609375;0.17919921875;0.07568359375;2.1875;-2.5625;-0.1875;
1441975686646298;0.488525390625;-0.4681396484375;-0.61370849609375;-0.406982421875;16.869297482191644;12.224269442772643;17.379476554139764;-0.955078125;0.1787109375;0.078125;1.5625;-2.25;-0.1875;
1441975686669299;0.48828125;-0.46820068359375;-0.61383056640625;-0.406982421875;16.866381969343895;12.222349049363798;17.377052531032522;-0.94775390625;0.18017578125;0.0810546875;1.125;-1.75;-0.125;
1441975686684300;0.48822021484375;-0.46820068359375;-0.61395263671875;-0.4068603515625;16.864601034797744;12.222680679449317;17.377927890175265;-0.953125;0.18798828125;0.07666015625;0.1875;-1.3125;0.125;
1441975686706301;0.4881591796875;-0.4681396484375;-0.61419677734375;-0.40667724609375;16.86195133004502;12.221567339107402;17.37805654916527;-0.96142578125;0.18359375;0.07177734375;-0.8125;-1.375;0.125;
1441975686729302;0.4881591796875;-0.468017578125;-0.6143798828125;-0.40655517578125;16.86061754412781;12.219308603383395;17.37703982748659;-0.96142578125;0.17919921875;0.07177734375;-1.5;-1.125;0.5625;
1441975686744303;0.48797607421875;-0.46795654296875;-0.6146240234375;-0.406494140625;16.85749701567648;12.215230230936687;17.37350526178378;-0.97314453125;0.17138671875;0.07373046875;-1.4375;-1.25;1.125;
1441975686767305;0.48748779296875;-0.4681396484375;-0.61480712890625;-0.40655517578125;16.85212615570663;12.212292679451012;17.36901673642301;-0.9814453125;0.166015625;0.08154296875;-0.4375;-1.75;1.875;
1441975686789306;0.48687744140625;-0.46868896484375;-0.61480712890625;-0.40667724609375;16.846147338733054;12.216530679791996;17.369568421800018;-0.9931640625;0.1748046875;0.083984375;1.375;-2.0625;2.5625;
1441975686804307;0.486083984375;-0.4691162109375;-0.61480712890625;-0.4071044921875;16.840315434935643;12.211958550696885;17.360261951302075;-1.02880859375;0.18359375;0.0751953125;3.4375;-2.5625;2.8125;
1441975686826308;0.48504638671875;-0.46942138671875;-0.61492919921875;-0.40777587890625;16.833067182719702;12.198072124081495;17.340941979127706;-1.05615234375;0.18115234375;0.07080078125;4.3125;-4.1875;2.875;
1441975686849309;0.48345947265625;-0.470458984375;-0.61456298828125;-0.40899658203125;16.824702084099766;12.190518767409195;17.32123807567131;-1.06689453125;0.1748046875;0.09716796875;5.1875;-5.5;3.3125;
1441975686873311;0.481201171875;-0.4722900390625;-0.61376953125;-0.41070556640625;16.813453031964965;12.190011447016085;17.301705384096948;-1.072265625;0.1728515625;0.0888671875;11.625;-6.0;3.4375;
1441975686886311;0.4786376953125;-0.47467041015625;-0.61260986328125;-0.41278076171875;16.802078981967536;12.19572740030761;17.283772702754327;-1.06689453125;0.20751953125;0.0869140625;18.5;-6.875;2.75;
1441975686909313;0.47607421875;-0.47686767578125;-0.6114501953125;-0.41485595703125;16.791237099523006;12.198070101627875;17.263040971292686;-1.0615234375;0.2275390625;0.08203125;22.6875;-7.0625;1.625;
1441975686925314;0.47369384765625;-0.47869873046875;-0.61041259765625;-0.41693115234375;16.78206928767601;12.193722067748308;17.237555207603183;-1.06298828125;0.2373046875;0.0859375;22.1875;-7.3125;0.5625;
1441975686946315;0.47174072265625;-0.4801025390625;-0.60955810546875;-0.41888427734375;16.77578380808662;12.18453469881177;17.21053692037887;-1.068359375;0.23974609375;0.0888671875;20.1875;-7.6875;-0.3125;
1441975686969316;0.47039794921875;-0.48028564453125;-0.609375;-0.42041015625;16.771492075774223;12.157055195316044;17.17372772832506;-1.05712890625;0.22119140625;0.07763671875;16.75;-8.125;-0.75;
1441975686985317;0.46905517578125;-0.4803466796875;-0.60980224609375;-0.4212646484375;16.760771093163697;12.132862233201182;17.14427997501886;-0.9853515625;0.15380859375;0.0986328125;8.875;-8.0;0.8125;
1441975687006318;0.46807861328125;-0.48016357421875;-0.61053466796875;-0.4215087890625;16.749251229466907;12.113650609866983;17.12423942635041;-0.95166015625;0.1630859375;0.1181640625;5.0;-6.25;3.5;
1441975687029320;0.4671630859375;-0.479736328125;-0.6123046875;-0.42047119140625;16.727123531253785;12.101872258623105;17.119276391837097;-0.91162109375;0.12890625;0.109375;0.8125;-5.6875;6.5625;
1441975687045320;0.466796875;-0.47869873046875;-0.6148681640625;-0.4183349609375;16.701633172894987;12.092414706221962;17.12549509919053;-0.89599609375;0.150390625;0.119140625;-6.4375;-4.4375;10.875;
1441975687066322;0.466796875;-0.47674560546875;-0.61846923828125;-0.41522216796875;16.670850780091133;12.074776542376473;17.13313722776671;-0.86572265625;0.1494140625;0.11376953125;-15.125;-3.4375;13.75;
1441975687089323;0.46661376953125;-0.47491455078125;-0.62255859375;-0.411376953125;16.6323583593425;12.065201550393276;17.15157549484024;-0.7841796875;0.1220703125;0.1220703125;-24.125;-3.4375;17.0625;
1441975687105324;0.4661865234375;-0.47369384765625;-0.6265869140625;-0.4071044921875;16.589233387931742;12.070753047678107;17.183798676849285;-0.7431640625;0.1357421875;0.1357421875;-26.875;-2.25;20.5625;
1441975687126325;0.4658203125;-0.472900390625;-0.63037109375;-0.402587890625;16.54620006936792;12.08750481890062;17.226195605723206;-0.7353515625;0.17041015625;0.1279296875;-25.3125;-0.75;21.8125;
1441975687149326;0.4656982421875;-0.47186279296875;-0.63397216796875;-0.39825439453125;16.507584705366604;12.098950462602733;17.263660242421786;-0.74658203125;0.21337890625;0.109375;-24.3125;0.0625;20.9375;
1441975687164327;0.46539306640625;-0.47125244140625;-0.6370849609375;-0.3944091796875;16.471375444067;12.112524162242105;17.29863712068306;-0.7431640625;0.2119140625;0.1025390625;-25.0625;-0.25;18.9375;
1441975687186329;0.46551513671875;-0.47119140625;-0.63873291015625;-0.39154052734375;16.450455211388345;12.134719653000914;17.33472349850298;-0.78125;0.26904296875;0.111328125;-20.625;0.5625;14.8125;
1441975687209330;0.466064453125;-0.47027587890625;-0.64013671875;-0.38983154296875;16.44147864019253;12.133469499166198;17.346846680802514;-0.85693359375;0.2861328125;0.078125;-13.75;1.4375;8.5;
1441975687225331;0.46661376953125;-0.46929931640625;-0.64068603515625;-0.38934326171875;16.44308524762738;12.12309767108109;17.343960963189755;-0.85205078125;0.25830078125;0.09130859375;-13.75;-0.375;2.4375;
1441975687246332;0.46710205078125;-0.46923828125;-0.63995361328125;-0.3900146484375;16.45464333148966;12.12203842758836;17.340318051028;-0.833984375;0.22314453125;0.10693359375;-7.9375;-0.3125;-2.5;
1441975687269333;0.4677734375;-0.46923828125;-0.638671875;-0.39129638671875;16.47351632606436;12.119513167247995;17.332124209954834;-0.8759765625;0.232421875;0.1103515625;2.4375;1.5;-6.75;
1441975687285334;0.46905517578125;-0.4686279296875;-0.63739013671875;-0.392578125;16.49898727161652;12.110394385126206;17.320839757830313;-0.88232421875;0.23046875;0.10205078125;5.0;1.9375;-10.6875;
1441975687306335;0.4708251953125;-0.4674072265625;-0.63616943359375;-0.39385986328125;16.52963334922177;12.093193939587545;17.30482086314506;-0.900390625;0.22998046875;0.09765625;1.3125;2.25;-13.625;
1441975687329337;0.472900390625;-0.4659423828125;-0.635009765625;-0.39508056640625;16.562720399349054;12.073208746349067;17.287918125660408;-0.91845703125;0.21044921875;0.10791015625;-1.8125;3.25;-15.4375;
1441975687345338;0.475341796875;-0.46502685546875;-0.63330078125;-0.39599609375;16.599773623252954;12.0720353608448;17.288579218044575;-0.9267578125;0.20849609375;0.1240234375;-3.375;4.8125;-16.75;
1441975687366339;0.478515625;-0.46307373046875;-0.632080078125;-0.3963623046875;16.640188685760364;12.0607811385897;17.287326524484445;-0.98583984375;0.24609375;0.09814453125;-2.5625;7.5625;-18.125;
1441975687389340;0.48223876953125;-0.4608154296875;-0.6312255859375;-0.3958740234375;16.680211058415054;12.05630585879231;17.298869932721022;-1.001953125;0.23828125;0.10205078125;-10.5625;8.375;-19.75;
1441975687411341;0.48675537109375;-0.4578857421875;-0.6302490234375;-0.395263671875;16.728812637856514;12.047446499404433;17.310247454061845;-1.0673828125;0.28076171875;0.10009765625;-16.375;10.5;-20.6875;
1441975687426342;0.49176025390625;-0.45361328125;-0.62994384765625;-0.39453125;16.780012465458025;12.012170574391973;17.30279975977072;-1.1357421875;0.25390625;0.06689453125;-21.1875;10.0625;-22.0625;
1441975687449344;0.4967041015625;-0.4490966796875;-0.6295166015625;-0.39422607421875;16.833663966355882;11.963689774623582;17.281074529701364;-1.12060546875;0.193359375;0.08056640625;-28.3125;8.625;-22.0;
1441975687471345;0.50042724609375;-0.4453125;-0.62884521484375;-0.39483642578125;16.88021302809588;11.90530603557622;17.240478565310625;-1.10302734375;0.099609375;0.09228515625;-26.8125;7.625;-18.8125;
1441975687486346;0.50250244140625;-0.443603515625;-0.6278076171875;-0.395751953125;16.911549838016924;11.87490137415036;17.21518517229881;-1.0595703125;0.02734375;0.11767578125;-17.375;6.125;-13.625;
1441975687509347;0.50323486328125;-0.44378662109375;-0.626708984375;-0.3963623046875;16.926712694103685;11.882145177948434;17.21894842109633;-1.0205078125;0.02685546875;0.13037109375;-4.3125;5.8125;-6.25;
1441975687532348;0.5030517578125;-0.444580078125;-0.62646484375;-0.39605712890625;16.923922283864993;11.906090074263664;17.240261447409964;-1.00927734375;0.06787109375;0.103515625;4.1875;4.6875;0.5;
1441975687546349;0.5025634765625;-0.44537353515625;-0.62701416015625;-0.3948974609375;16.910176128116664;11.936093883483053;17.271609173689573;-0.99365234375;0.10888671875;0.1005859375;3.3125;2.6875;6.625;
1441975687569350;0.50152587890625;-0.44635009765625;-0.62811279296875;-0.393310546875;16.88612094686326;11.967848619226665;17.30550568199904;-0.97607421875;0.1201171875;0.099609375;-0.5;1.3125;11.75;
1441975687585351;0.5;-0.44793701171875;-0.62933349609375;-0.3916015625;16.855059028351537;12.00819834921273;17.34551305831529;-0.95703125;0.13818359375;0.11181640625;-1.1875;0.5625;15.1875;
1441975687606353;0.49822998046875;-0.44976806640625;-0.6304931640625;-0.38995361328125;16.821783491891605;12.049098197460275;17.384331403748448;-0.95166015625;0.1748046875;0.11328125;1.125;0.1875;16.9375;
1441975687629354;0.49615478515625;-0.45172119140625;-0.631591796875;-0.38848876953125;16.786627083366216;12.085708217877297;17.41697052345617;-0.953125;0.1845703125;0.10888671875;2.875;-0.75;17.5;
1441975687645355;0.49395751953125;-0.4539794921875;-0.63238525390625;-0.38739013671875;16.752898024895536;12.12244490664364;17.446499282770485;-0.9501953125;0.205078125;0.10791015625;4.6875;-1.625;17.0;
1441975687666356;0.4918212890625;-0.4561767578125;-0.6328125;-0.3868408203125;16.72431822644313;12.1520885049902;17.466591595492208;-0.95166015625;0.21875;0.0966796875;7.8125;-2.25;15.375;
1441975687689357;0.4896240234375;-0.4580078125;-0.6331787109375;-0.38677978515625;16.69870125561554;12.167344556512267;17.47159420453016;-0.94287109375;0.216796875;0.09521484375;9.625;-3.0625;12.75;
1441975687704358;0.48760986328125;-0.4598388671875;-0.6331787109375;-0.38714599609375;16.678667925720045;12.180735897636335;17.47288568838169;-0.92724609375;0.2177734375;0.103515625;10.25;-4.0;10.125;
1441975687726359;0.48577880859375;-0.4615478515625;-0.6329345703125;-0.38787841796875;16.663560662154858;12.190127402677682;17.46922872389316;-0.9306640625;0.22705078125;0.1015625;11.9375;-4.125;7.0625;
1441975687749361;0.484375;-0.46282958984375;-0.6324462890625;-0.388916015625;16.65599660670994;12.19291328058508;17.45981180933447;-0.92822265625;0.23583984375;0.1025390625;12.6875;-3.75;3.4375;
1441975687764362;0.4833984375;-0.46343994140625;-0.63189697265625;-0.3902587890625;16.655510104252855;12.183326350392205;17.44011479332644;-0.93896484375;0.23779296875;0.09765625;11.8125;-3.6875;0.0;
1441975687786363;0.482666015625;-0.46392822265625;-0.63116455078125;-0.39178466796875;16.659239822667935;12.172254248356353;17.4188864964063;-0.93017578125;0.2119140625;0.10595703125;9.5;-3.75;-2.6875;
1441975687809364;0.4822998046875;-0.46429443359375;-0.6302490234375;-0.3931884765625;16.66691324763899;12.16461069447817;17.40233239756359;-0.927734375;0.20849609375;0.11279296875;9.25;-2.6875;-4.5625;
1441975687824365;0.482421875;-0.46417236328125;-0.62945556640625;-0.39453125;16.678841038444194;12.151153080389921;17.383260032079235;-0.935546875;0.2177734375;0.1015625;8.6875;-1.5625;-6.5;
1441975687847366;0.48291015625;-0.46331787109375;-0.6290283203125;-0.39556884765625;16.69212580768231;12.12792735890161;17.359595478886227;-0.9462890625;0.201171875;0.09228515625;4.625;-1.6875;-7.625;
1441975687869368;0.483642578125;-0.46246337890625;-0.6285400390625;-0.39642333984375;16.706979128079734;12.10896746681159;17.341244101557024;-0.939453125;0.1875;0.1044921875;-0.0625;-1.5;-7.9375;
1441975687884368;0.48443603515625;-0.46148681640625;-0.6280517578125;-0.3974609375;16.723305435295174;12.084978702103703;17.317818797736013;-0.94775390625;0.1875;0.1005859375;-0.9375;-0.375;-8.3125;
1441975687907370;0.48516845703125;-0.46075439453125;-0.62744140625;-0.39837646484375;16.738748251136137;12.067447911165964;17.300001339669166;-0.94873046875;0.17431640625;0.10498046875;-0.9375;-0.375;-8.6875;
1441975687929371;0.48602294921875;-0.460205078125;-0.626708984375;-0.39910888671875;16.754775980764435;12.057567580978576;17.289834427390595;-0.95751953125;0.1845703125;0.10107421875;-0.125;-0.0625;-8.3125;
1441975687944372;0.4869384765625;-0.45941162109375;-0.62628173828125;-0.39959716796875;16.768973889600314;12.044361443463512;17.278828581442024;-0.96484375;0.18994140625;0.08837890625;-0.3125;1.0;-8.375;
1441975687968373;0.48797607421875;-0.45849609375;-0.6258544921875;-0.40008544921875;16.784457763750055;12.02928781161493;17.26665213870164;-0.9521484375;0.19482421875;0.099609375;-2.625;1.25;-8.5625;
1441975687989374;0.489013671875;-0.45770263671875;-0.625244140625;-0.400634765625;16.801056589982384;12.016849823588469;17.256064363139775;-0.95263671875;0.1875;0.09619140625;-3.4375;1.1875;-8.625;
1441975688004375;0.4898681640625;-0.45709228515625;-0.62469482421875;-0.401123046875;16.815046558692718;12.007032179857653;17.247399155912177;-0.9521484375;0.17431640625;0.09423828125;-1.9375;1.6875;-8.0625;
1441975688027377;0.49078369140625;-0.45654296875;-0.62432861328125;-0.40118408203125;16.826588085625485;12.00412926683589;17.247436780061083;-0.94384765625;0.1796875;0.10009765625;-1.5625;2.125;-7.5;
1441975688049378;0.49176025390625;-0.45587158203125;-0.62408447265625;-0.4012451171875;16.838109076033756;11.998049793315156;17.245145722482892;-0.93994140625;0.1943359375;0.091796875;-3.25;2.25;-7.125;
1441975688064379;0.4927978515625;-0.4552001953125;-0.623779296875;-0.401123046875;16.849884129157388;11.99595400637498;17.24742879530124;-0.94482421875;0.189453125;0.09814453125;-4.0625;2.6875;-6.5625;
1441975688088380;0.49371337890625;-0.45458984375;-0.62359619140625;-0.40093994140625;16.85946554576395;11.994261150979101;17.250114187783538;-0.95263671875;0.185546875;0.09228515625;-4.5;2.8125;-6.0625;
1441975688109381;0.49462890625;-0.4541015625;-0.62335205078125;-0.40069580078125;16.86892857565668;11.996709005959694;17.25659134491403;-0.95068359375;0.18359375;0.09716796875;-4.625;2.9375;-5.3125;
1441975688124382;0.4954833984375;-0.4537353515625;-0.6231689453125;-0.40045166015625;16.877161022660623;12.00079058248569;17.264306748729933;-0.9580078125;0.18505859375;0.091796875;-3.9375;3.1875;-4.8125;
1441975688148384;0.496337890625;-0.453369140625;-0.62298583984375;-0.40008544921875;16.88494875037726;12.007108097515443;17.274652361940234;-0.9609375;0.1826171875;0.08837890625;-3.75;2.9375;-4.1875;
1441975688170385;0.49700927734375;-0.45306396484375;-0.62286376953125;-0.39971923828125;16.890675626935106;12.012971461772965;17.284044646556897;-0.9609375;0.18017578125;0.0830078125;-4.125;2.875;-3.3125;
1441975688191386;0.49749755859375;-0.4530029296875;-0.62274169921875;-0.39947509765625;16.894709787646644;12.020581690615149;17.293546099044143;-0.9599609375;0.1650390625;0.09130859375;-3.4375;2.6875;-2.0625;
1441975688207387;0.49774169921875;-0.4532470703125;-0.62261962890625;-0.39898681640625;16.895044863331727;12.037234582705242;17.311290668095324;-0.96044921875;0.162109375;0.0908203125;-1.625;2.5625;-0.5;
1441975688228388;0.49810791015625;-0.45330810546875;-0.622802734375;-0.398193359375;16.893626596579654;12.053373161054788;17.331155628752736;-0.97021484375;0.17578125;0.0888671875;-1.125;2.625;0.625;
1441975688244389;0.49847412109375;-0.45318603515625;-0.623291015625;-0.39715576171875;16.88970704841486;12.06694245066086;17.35058756431667;-0.95556640625;0.17724609375;0.08642578125;-3.4375;2.5625;1.4375;
1441975688267390;0.4989013671875;-0.45306396484375;-0.62371826171875;-0.3961181640625;16.886648127105374;12.08145194809847;17.370959870888807;-0.9482421875;0.17529296875;0.09521484375;-5.5625;2.8125;2.375;
1441975688288392;0.499267578125;-0.45318603515625;-0.6240234375;-0.39495849609375;16.88269320218785;12.103735512896236;17.39826073822652;-0.947265625;0.173828125;0.09375;-5.4375;3.0625;2.75;
1441975688311393;0.499755859375;-0.453369140625;-0.6243896484375;-0.3936767578125;16.878550179262962;12.129491296082639;17.429681481851944;-0.94189453125;0.18115234375;0.0859375;-4.75;3.625;2.75;
1441975688334394;0.50042724609375;-0.45330810546875;-0.62469482421875;-0.392333984375;16.87664814899639;12.153212133836691;17.460358673688358;-0.9482421875;0.2001953125;0.083984375;-5.3125;4.25;2.5;
1441975688349395;0.50115966796875;-0.45294189453125;-0.62506103515625;-0.3912353515625;16.876677555854105;12.166432881609111;17.481033272268238;-0.95556640625;0.19482421875;0.07421875;-6.625;4.0;1.875;
1441975688364396;0.5018310546875;-0.45269775390625;-0.62530517578125;-0.39031982421875;16.877359641271518;12.179816681920395;17.500429645012822;-0.94921875;0.16748046875;0.080078125;-7.375;3.375;1.6875;
1441975688388397;0.50225830078125;-0.4527587890625;-0.6253662109375;-0.38958740234375;16.877079527175297;12.196208852836328;17.520200894247022;-0.9453125;0.1552734375;0.08349609375;-5.4375;3.3125;2.125;
1441975688408398;0.50244140625;-0.45318603515625;-0.6253662109375;-0.3887939453125;16.87380212434721;12.219535664018874;17.545168174474707;-0.93115234375;0.14892578125;0.08740234375;-2.875;3.875;2.875;
1441975688424399;0.5025634765625;-0.45404052734375;-0.625244140625;-0.38775634765625;16.868286630355144;12.25599939212029;17.58222926037375;-0.9140625;0.162109375;0.09228515625;-0.875;4.6875;3.8125;
1441975688447401;0.5029296875;-0.4549560546875;-0.62518310546875;-0.38641357421875;16.86251523357771;12.29969463036059;17.62806163061054;-0.943359375;0.19482421875;0.0927734375;0.0625;6.1875;3.875;
1441975688469402;0.5037841796875;-0.4552001953125;-0.625244140625;-0.3848876953125;16.860983750740132;12.335926348311602;17.670704938987424;-0.9560546875;0.224609375;0.08349609375;-1.625;7.4375;2.8125;
1441975688491403;0.50506591796875;-0.45489501953125;-0.62542724609375;-0.3831787109375;16.86286953194381;12.366953666591048;17.711871597277693;-0.9501953125;0.2216796875;0.0810546875;-5.9375;7.625;1.0;
1441975688508404;0.50665283203125;-0.45452880859375;-0.62554931640625;-0.38134765625;16.86690761714032;12.402497375650293;17.75874513714654;-0.9501953125;0.20458984375;0.08056640625;-9.1875;8.5;0.1875;
1441975688529405;0.50872802734375;-0.45343017578125;-0.62603759765625;-0.37921142578125;16.87345091336876;12.429504250089831;17.802544295460294;-0.958984375;0.21484375;0.0751953125;-10.625;9.4375;-0.875;
1441975688544406;0.510986328125;-0.45159912109375;-0.6268310546875;-0.37689208984375;16.881297548195988;12.44387139806853;17.837882499667817;-0.9716796875;0.2080078125;0.06884765625;-16.1875;8.9375;-2.0;
1441975688568408;0.513427734375;-0.4498291015625;-0.62738037109375;-0.3748779296875;16.893165041439094;12.45991145464119;17.873539232417635;-0.9873046875;0.203125;0.0791015625;-20.25;8.5;-2.6875;
1441975688589409;0.5157470703125;-0.44793701171875;-0.62774658203125;-0.373291015625;16.90777097427285;12.468390326801789;17.899895814813785;-1.00537109375;0.19287109375;0.0693359375;-19.0625;8.5;-3.8125;
1441975688612410;0.51788330078125;-0.44647216796875;-0.6278076171875;-0.37200927734375;16.922631974551347;12.4827889055451;17.928588045126446;-0.99072265625;0.17333984375;0.07177734375;-17.375;7.6875;-4.5;
1441975688627411;0.51971435546875;-0.445556640625;-0.6275634765625;-0.3709716796875;16.936010317959006;12.50531459401599;17.96133335597395;-0.97216796875;0.162109375;0.0771484375;-13.6875;8.25;-4.375;
1441975688649412;0.52142333984375;-0.44464111328125;-0.62744140625;-0.36981201171875;16.947061257215367;12.527429540386061;17.994070739776834;-0.955078125;0.15771484375;0.07763671875;-9.3125;9.1875;-3.5;
1441975688671413;0.52313232421875;-0.4437255859375;-0.6278076171875;-0.367919921875;16.951346532551586;12.555178460443889;0.03602056092659728;-0.92138671875;0.154296875;0.0751953125;-10.0625;8.875;-2.75;
1441975688687414;0.52508544921875;-0.4429931640625;-0.62823486328125;-0.365234375;16.95186952344097;12.601640024734174;0.09942729862613929;-0.8876953125;0.1845703125;0.08056640625;-13.25;9.6875;-1.4375;
1441975688708416;0.527587890625;-0.44195556640625;-0.6287841796875;-0.36199951171875;16.9535548958582;12.65605511699549;0.17520141870494052;-0.884765625;0.20654296875;0.06396484375;-15.75;12.0625;-0.4375;
1441975688731417;0.5302734375;-0.440673828125;-0.62969970703125;-0.3580322265625;16.95098816380376;12.714120860936491;0.2591634561988824;-0.88671875;0.21484375;0.044921875;-20.625;12.9375;-0.5625;
1441975688747418;0.5328369140625;-0.4403076171875;-0.63018798828125;-0.353759765625;16.943058558136123;12.798085668078663;0.3657141644802394;-0.89697265625;0.2314453125;0.04150390625;-24.625;14.0;0.25;
1441975688770419;0.53546142578125;-0.44085693359375;-0.62945556640625;-0.35040283203125;16.941527392750775;12.904322408481931;0.4857256633964398;-0.912109375;0.27392578125;0.02783203125;-21.625;16.75;1.4375;
1441975688791420;0.53717041015625;-0.44256591796875;-0.62823486328125;-0.34783935546875;16.93379820742825;13.013762459096693;0.5991580948978853;-0.92236328125;0.23583984375;-0.01171875;-12.375;18.25;0.75;
1441975688807421;0.53826904296875;-0.44512939453125;-0.6273193359375;-0.34454345703125;16.90987425225327;13.129911377321802;0.7181921002290114;-0.93408203125;0.26611328125;-0.0302734375;-3.25;15.5625;1.4375;
1441975688830423;0.539794921875;-0.44683837890625;-0.62744140625;-0.33966064453125;16.876397953847217;13.23487064238687;0.8376104028354812;-0.916015625;0.3125;-0.04736328125;-1.75;15.3125;5.4375;
1441975688851424;0.54150390625;-0.44757080078125;-0.62921142578125;-0.33258056640625;16.82613950518506;13.317243170592636;0.9493394928991582;-0.89306640625;0.302734375;-0.0712890625;-13.6875;15.0;10.625;
1441975688867425;0.54339599609375;-0.4481201171875;-0.631591796875;-0.32415771484375;16.764928034365386;13.394235384748413;1.0626853376955117;-0.87109375;0.32666015625;-0.04541015625;-28.0625;16.0625;16.6875;
1441975688890426;0.54498291015625;-0.44879150390625;-0.6343994140625;-0.31494140625;16.692902936407336;13.459079831300395;1.1664905339726999;-0.84130859375;0.29443359375;-0.06591796875;-35.25;17.1875;24.0625;
1441975688911427;0.54534912109375;-0.45074462890625;-0.636962890625;-0.30621337890625;16.61007272462783;13.512974905861462;1.2500938605215697;-0.8349609375;0.29736328125;-0.06982421875;-37.5625;16.75;29.25;
1441975688927428;0.544677734375;-0.45416259765625;-0.6395263671875;-0.2969970703125;16.508470597592016;13.56384173044628;1.3250805326418627;-0.83837890625;0.29296875;-0.08251953125;-28.875;13.875;35.75;
1441975688950429;0.5438232421875;-0.4573974609375;-0.64251708984375;-0.28680419921875;16.39786785456999;13.602480293342039;1.3924394912617999;-0.7919921875;0.31298828125;-0.11181640625;-23.5625;11.8125;43.625;
1441975688971431;0.54248046875;-0.460693359375;-0.64581298828125;-0.27642822265625;16.281761208143042;13.626461094692177;1.4452477690844938;-0.71484375;0.28369140625;-0.130859375;-28.5625;11.1875;49.6875;
1441975688987432;0.54010009765625;-0.46539306640625;-0.6485595703125;-0.26666259765625;16.157617126173246;13.650175196756862;1.48742281107995;-0.6591796875;0.2421875;-0.11181640625;-28.5625;10.375;54.5625;
1441975689010433;0.53662109375;-0.4725341796875;-0.65020751953125;-0.2569580078125;16.0157270567646;13.689631687374256;1.5319074076950598;-0.62158203125;0.2314453125;-0.087890625;-18.0;10.625;59.875;
1441975689031434;0.53350830078125;-0.48052978515625;-0.65057373046875;-0.2474365234375;15.87430604149447;13.745798190839707;1.5875038573776583;-0.6298828125;0.345703125;-0.10498046875;-4.6875;12.9375;62.1875;
1441975689047435;0.53131103515625;-0.487060546875;-0.65118408203125;-0.2376708984375;15.743411898515578;13.791571891142146;1.6412284374926187;-0.69189453125;0.41552734375;-0.177734375;0.6875;14.625;59.0625;
1441975689070436;0.530029296875;-0.49163818359375;-0.65203857421875;-0.2286376953125;15.634103759976702;13.823412369358099;1.6878690201405246;-0.7412109375;0.45703125;-0.2177734375;-8.5;13.9375;53.5625;
1441975689092438;0.529052734375;-0.49530029296875;-0.65264892578125;-0.22125244140625;15.545465933146868;13.84780187466525;1.7246500513379286;-0.76611328125;0.4140625;-0.2197265625;-16.0625;12.125;47.0625;
1441975689107438;0.5283203125;-0.4991455078125;-0.652099609375;-0.2158203125;15.474437357303483;13.880159377701855;1.7598820118902407;-0.783203125;0.37451171875;-0.1875;-13.25;11.0;41.125;
1441975689130440;0.5277099609375;-0.50360107421875;-0.65045166015625;-0.21197509765625;15.414493121238028;13.922374533688513;1.7950642374287367;-0.7802734375;0.31884765625;-0.1796875;-3.8125;10.75;36.375;
1441975689151441;0.52685546875;-0.5087890625;-0.64776611328125;-0.209716796875;15.362929783517936;13.972049237581652;1.8266727554003994;-0.7646484375;0.2890625;-0.18896484375;6.25;10.6875;32.3125;
1441975689167442;0.5262451171875;-0.51470947265625;-0.64404296875;-0.20843505859375;15.31675118861874;14.033762068369136;1.8624868290886838;-0.74755859375;0.2724609375;-0.18701171875;16.8125;9.8125;29.0625;
1441975689197444;0.52642822265625;-0.51983642578125;-0.6400146484375;-0.20758056640625;15.282322433660605;14.097954260618616;1.9031056608653059;-0.77978515625;0.33544921875;-0.2060546875;25.3125;11.3125;23.1875;
1441975689211444;0.5277099609375;-0.52294921875;-0.636474609375;-0.20733642578125;15.26932880318807;14.154255566765976;1.9442766151786968;-0.810546875;0.36328125;-0.2470703125;22.5625;11.625;15.75;
1441975689227445;0.529296875;-0.52484130859375;-0.63287353515625;-0.20947265625;15.285023934550676;14.205243549212192;1.9765810876122882;-0.82958984375;0.32958984375;-0.2646484375;13.875;9.0625;7.9375;
1441975689250447;0.53057861328125;-0.5269775390625;-0.62872314453125;-0.21331787109375;15.31240072644651;14.259305587640347;2.0031972480336946;-0.84033203125;0.22314453125;-0.2412109375;16.75;4.0625;0.875;
1441975689271448;0.53173828125;-0.5299072265625;-0.62347412109375;-0.2186279296875;15.34694886579581;14.326059909358445;2.03188455060988;-0.810546875;0.19921875;-0.19677734375;25.8125;2.4375;-4.0;
1441975689287449;0.53302001953125;-0.5335693359375;-0.617431640625;-0.22369384765625;15.374819480972809;14.405811557901956;2.0703955597252803;-0.76171875;0.1572265625;-0.16455078125;37.5625;4.25;-7.25;
1441975689310450;0.534423828125;-0.53753662109375;-0.61090087890625;-0.22869873046875;15.399767178484412;14.493734511711047;2.11543690218295;-0.70947265625;0.158203125;-0.14404296875;42.625;9.875;-7.6875;
1441975689331451;0.53515625;-0.5413818359375;-0.60516357421875;-0.2330322265625;15.416080671151697;14.56948459750945;2.1513633536178873;-0.6640625;0.1123046875;-0.134765625;44.75;13.125;-6.0;
1441975689347452;0.5355224609375;-0.544921875;-0.60076904296875;-0.23541259765625;15.415196395640255;14.628741556059882;2.180855262576349;-0.619140625;0.09033203125;-0.12548828125;40.875;10.625;-1.375;
1441975689370453;0.53631591796875;-0.548095703125;-0.5966796875;-0.23663330078125;15.407328197929962;14.686932669922777;2.2162297796533363;-0.5712890625;0.14697265625;-0.10400390625;31.6875;12.0625;2.1875;
1441975689391455;0.53656005859375;-0.55133056640625;-0.593017578125;-0.2376708984375;15.395273707509995;14.73651256156928;2.2431116648927443;-0.59228515625;0.201171875;-0.107421875;25.6875;16.25;1.4375;
1441975689407456;0.536376953125;-0.55389404296875;-0.59033203125;-0.23895263671875;15.388467314140659;14.770600484495889;2.257258062155114;-0.671875;0.2734375;-0.11083984375;25.875;14.9375;2.125;
1441975689430457;0.535400390625;-0.55810546875;-0.58642578125;-0.240966796875;15.374437605094457;14.81609800578159;2.2698862285685864;-0.72412109375;0.27587890625;-0.0166015625;24.5;15.625;3.3125;
1441975689451458;0.5341796875;-0.56298828125;-0.58233642578125;-0.24224853515625;15.348504441388268;14.863028099240898;2.2830956182803734;-0.7373046875;0.2109375;-0.03076171875;36.3125;16.1875;11.3125;
1441975689467459;0.53179931640625;-0.56744384765625;-0.57989501953125;-0.24273681640625;15.315766256251612;14.882920586043753;2.274538639606694;-0.76904296875;0.2529296875;-0.09033203125;36.0;16.1875;14.375;
1441975689490460;0.52911376953125;-0.5712890625;-0.57879638671875;-0.2423095703125;15.278665198379695;14.88519625817474;2.2560101821776595;-0.8896484375;0.36962890625;-0.05908203125;31.3125;13.6875;18.0625;
1441975689511462;0.52679443359375;-0.574462890625;-0.57830810546875;-0.24102783203125;15.239629592090168;14.882119890316096;2.2396389153978733;-1.005859375;0.482421875;-0.0361328125;25.0625;13.75;18.6875;
1441975689527462;0.52655029296875;-0.57586669921875;-0.57757568359375;-0.23980712890625;15.218488697901002;14.891081740022111;2.2455656263795296;-1.0791015625;0.546875;-0.04150390625;18.5;16.5;17.75;
1441975689550464;0.52557373046875;-0.5791015625;-0.5750732421875;-0.24029541015625;15.197767319575199;14.917721368018697;2.251069233664361;-1.0625;0.462890625;0.0234375;11.4375;25.0;10.1875;
1441975689571465;0.5238037109375;-0.5830078125;-0.5723876953125;-0.24114990234375;15.173643504559953;14.942432449061755;2.2487109472872677;-0.998046875;0.49560546875;-0.017578125;29.0625;21.6875;6.375;
1441975689587466;0.52423095703125;-0.58367919921875;-0.57269287109375;-0.2379150390625;15.141501160141733;14.942730787196083;2.259415431461161;-0.93701171875;0.505859375;-0.068359375;32.9375;16.0;7.0;
1441975689609467;0.52606201171875;-0.58203125;-0.57440185546875;-0.233642578125;15.119826030297592;14.932333784044756;2.277715902754623;-0.9140625;0.552734375;-0.04541015625;-1.5625;24.125;4.1875;
1441975689631468;0.52740478515625;-0.579345703125;-0.576904296875;-0.23126220703125;15.121107618110289;14.9093329214087;2.281314139809837;-1.046875;0.57080078125;-0.06494140625;-19.25;25.75;1.125;
1441975689647469;0.528564453125;-0.578369140625;-0.57684326171875;-0.231201171875;15.130105770496952;14.91504901457867;2.2932464924370315;-1.14599609375;0.53955078125;-0.02685546875;-18.0625;18.0625;-0.5;
1441975689669471;0.5302734375;-0.57769775390625;-0.5760498046875;-0.23095703125;15.136465641963687;14.932194212829954;2.315741696793198;-1.12109375;0.48876953125;-0.07958984375;0.8125;15.9375;-3.5625;
1441975689692472;0.53173828125;-0.575927734375;-0.576904296875;-0.22991943359375;15.143232230909405;14.928776436379216;2.327521072828778;-1.0830078125;0.478515625;-0.13330078125;1.125;17.3125;-5.6875;
1441975689707473;0.533447265625;-0.5726318359375;-0.579345703125;-0.22784423828125;15.15241541989748;14.90731380508048;2.3344177485696083;-1.103515625;0.46435546875;-0.1376953125;-10.375;12.5625;-1.75;
1441975689729474;0.53436279296875;-0.570068359375;-0.58160400390625;-0.2264404296875;15.160563355675285;14.884454726635251;2.33276247315764;-1.0908203125;0.41064453125;-0.1455078125;-25.375;9.0625;1.4375;
1441975689752475;0.53448486328125;-0.56854248046875;-0.5833740234375;-0.2254638671875;15.163220576799793;14.863787746469512;2.3251999778654895;-1.119140625;0.42333984375;-0.15185546875;-19.25;5.625;3.5625;
1441975689767476;0.5347900390625;-0.56781005859375;-0.58428955078125;-0.2242431640625;15.158477793026483;14.854565030898787;2.3255858315357503;-1.12451171875;0.46435546875;-0.1591796875;-11.6875;3.5;4.875;
1441975689789477;0.535400390625;-0.567626953125;-0.5843505859375;-0.22283935546875;15.148865231704644;14.856951743991194;2.3350085294044347;-1.05712890625;0.4609375;-0.15966796875;-7.3125;7.4375;5.125;
1441975689812479;0.535888671875;-0.56707763671875;-0.58526611328125;-0.220703125;15.135258887365222;14.849035073024236;2.339650920242435;-1.01220703125;0.43896484375;-0.19189453125;-4.875;9.9375;5.3125;
1441975689827480;0.53668212890625;-0.56646728515625;-0.5863037109375;-0.21771240234375;15.115352545232833;14.841436977779859;2.348781825027772;-1.03369140625;0.4580078125;-0.20947265625;-11.3125;7.8125;7.875;
1441975689849481;0.53839111328125;-0.5645751953125;-0.58782958984375;-0.2142333984375;15.10239975099954;14.831626508255601;2.365147839561404;-1.0439453125;0.458984375;-0.28955078125;-17.4375;6.6875;10.125;
1441975689872482;0.53985595703125;-0.56268310546875;-0.5894775390625;-0.2108154296875;15.089441025099509;14.819037666488382;2.378251075742605;-1.01806640625;0.41650390625;-0.30224609375;-27.0625;6.75;7.625;
1441975689887483;0.540771484375;-0.5626220703125;-0.5897216796875;-0.2081298828125;15.06857767099509;14.82117703419911;2.3926237200496154;-0.99658203125;0.41015625;-0.2353515625;-25.0;9.5625;8.375;
1441975689909484;0.541015625;-0.5650634765625;-0.5880126953125;-0.20574951171875;15.030746950087917;14.843521811038073;2.4112987071516176;-0.97265625;0.36279296875;-0.2373046875;-12.3125;11.1875;13.875;
1441975689932486;0.5411376953125;-0.56787109375;-0.58624267578125;-0.20257568359375;14.982887389677606;14.865477029067073;2.4306241225281973;-0.94140625;0.3876953125;-0.2919921875;3.3125;13.625;18.25;
1441975689954487;0.54180908203125;-0.5693359375;-0.58551025390625;-0.19873046875;14.940023315829407;14.87711313336124;2.450370276342266;-0.98046875;0.45166015625;-0.34033203125;1.9375;14.6875;20.3125;
1441975689969488;0.54205322265625;-0.57147216796875;-0.584228515625;-0.1956787109375;14.898169410136267;14.892833600615619;2.4668155249435686;-0.97021484375;0.40283203125;-0.3203125;-9.25;15.375;20.875;
1441975690000490;0.54229736328125;-0.5755615234375;-0.58056640625;-0.19390869140625;14.852618516996964;14.934792097190229;2.4926063558501874;-0.9306640625;0.38720703125;-0.27734375;-0.625;16.0625;20.9375;
1441975690013490;0.542724609375;-0.580322265625;-0.575927734375;-0.19244384765625;14.80440939966448;14.987202712171433;2.5235273415932618;-0.9189453125;0.41259765625;-0.3193359375;16.9375;19.6875;18.875;
1441975690029491;0.5440673828125;-0.58355712890625;-0.572265625;-0.1898193359375;14.758482040624203;15.030860498224;2.5595048218393064;-0.95947265625;0.4423828125;-0.37890625;22.1875;20.875;17.375;
1441975690052492;0.5465087890625;-0.5860595703125;-0.568603515625;-0.18609619140625;14.709303853031777;15.076931108965873;2.606877643283207;-0.96630859375;0.45654296875;-0.37646484375;9.6875;24.3125;14.75;
1441975690073494;0.55035400390625;-0.588134765625;-0.56378173828125;-0.182861328125;14.66769386470752;15.139303337402792;2.6709306676928084;-0.9580078125;0.44873046875;-0.3779296875;2.6875;31.375;12.4375;
1441975690089495;0.55517578125;-0.590087890625;-0.557861328125;-0.17999267578125;14.62861349629893;15.215156032892292;2.7473238262775443;-1.0078125;0.431640625;-0.3837890625;5.3125;39.25;6.125;
1441975690112496;0.5611572265625;-0.59161376953125;-0.55218505859375;-0.17388916015625;14.563255658753798;15.287088507025883;2.835956273177491;-1.0556640625;0.4921875;-0.40380859375;9.9375;45.4375;-1.6875;
1441975690133497;0.57159423828125;-0.58880615234375;-0.54693603515625;-0.16583251953125;14.513433909278623;15.367138203240474;2.966502856923799;-0.97509765625;0.6689453125;-0.39990234375;1.25;58.5625;-9.1875;
1441975690149498;0.5806884765625;-0.5751953125;-0.55224609375;-0.1644287109375;14.61472772702157;15.354951905336645;3.0411444536511425;-1.0244140625;0.6513671875;-0.49072265625;-27.3125;71.1875;-29.25;
1441975690172499;0.58868408203125;-0.57025146484375;-0.54791259765625;-0.16754150390625;14.67373076498612;15.438484210794783;3.1396244540976284;-1.61865234375;0.2724609375;-0.09521484375;-69.8125;36.3125;-31.0;
1441975690193501;0.599853515625;-0.5638427734375;-0.54132080078125;-0.17095947265625;14.73749070787171;15.562561362557865;3.284812481737964;-0.97705078125;-0.0498046875;-0.18505859375;-5.1875;37.6875;-24.4375;
1441975690209501;0.60345458984375;-0.5689697265625;-0.53125;-0.1729736328125;14.6927268099951;15.675642834065444;3.357716936450245;-1.64501953125;0.80615234375;-0.40478515625;11.1875;57.375;-76.125;
1441975690232503;0.6077880859375;-0.56024169921875;-0.5364990234375;-0.170166015625;14.74336866912985;15.645366314374316;3.390324385074922;-1.306640625;0.5205078125;-0.87939453125;41.125;26.6875;-4.625;
1441975690253504;0.6058349609375;-0.5594482421875;-0.5377197265625;-0.17559814453125;14.799682618887978;15.63971837983705;3.366535795181359;-1.353515625;0.314453125;-0.09716796875;-52.25;25.0625;-11.8125;
1441975690269505;0.6009521484375;-0.56610107421875;-0.5357666015625;-0.1771240234375;14.761335331916548;15.634567775248538;3.3167663428545477;-1.0634765625;0.48486328125;-0.046875;25.5;-4.375;-12.0;
1441975690292506;0.59820556640625;-0.5716552734375;-0.5321044921875;-0.1795654296875;14.734121091288571;15.65889571389989;3.2980359864380526;-0.88671875;0.77978515625;-0.15185546875;52.6875;7.5625;10.5625;
1441975690313507;0.59478759765625;-0.57281494140625;-0.5347900390625;-0.17938232421875;14.73117741799775;15.616536090512122;3.2505310249994124;-1.03466796875;0.962890625;-0.4931640625;51.5;-0.4375;-11.8125;
1441975690329508;0.5933837890625;-0.568603515625;-0.54132080078125;-0.177734375;14.762008796807448;15.546072431281136;3.2126300403802093;-1.0107421875;0.87548828125;-0.310546875;11.5;-10.25;-5.1875;
1441975690352510;0.59246826171875;-0.5673828125;-0.54443359375;-0.17535400390625;14.756724922207189;15.50710427642277;3.1914498596175;-0.93994140625;0.68603515625;-0.09814453125;-24.1875;-8.0625;-12.3125;
1441975690373511;0.5916748046875;-0.5673828125;-0.54644775390625;-0.17138671875;14.72605459228981;15.475183604212075;3.1763731614102544;-0.9306640625;0.65966796875;-0.25048828125;-12.3125;0.6875;-3.125;
1441975690389512;0.5897216796875;-0.56597900390625;-0.55242919921875;-0.1636962890625;14.680275922713207;15.393460782157891;3.1361698253884827;-0.9833984375;0.7958984375;-0.4697265625;-13.5625;-0.5;-1.5;
1441975690412513;0.5867919921875;-0.5621337890625;-0.5618896484375;-0.155029296875;14.647635732276465;15.273919872271504;3.0761189159060267;-0.8642578125;0.7841796875;-0.43896484375;-42.8125;-8.3125;11.3125;
1441975690433514;0.58197021484375;-0.5599365234375;-0.57086181640625;-0.14801025390625;14.6118753215018;15.154926907605814;2.9995449431692855;-0.83251953125;0.603515625;-0.314453125;-65.9375;-16.3125;23.8125;
1441975690449515;0.575439453125;-0.5604248046875;-0.57843017578125;-0.14227294921875;14.560322068432608;15.046565399380855;2.9124559796061824;-0.83837890625;0.54052734375;-0.255859375;-52.0;-22.0625;34.8125;
1441975690472517;0.56768798828125;-0.56219482421875;-0.5858154296875;-0.13604736328125;14.489241686355056;14.93758542749964;2.818836890219468;-0.89794921875;0.5888671875;-0.2626953125;-33.3125;-24.75;44.0625;
1441975690493518;0.55926513671875;-0.563720703125;-0.5941162109375;-0.1285400390625;14.403868789286651;14.819675773291097;2.7224530176545247;-0.9814453125;0.6279296875;-0.302734375;-30.5625;-26.8125;55.9375;
1441975690509519;0.55010986328125;-0.56475830078125;-0.60333251953125;-0.1201171875;14.307893413767886;14.693735369600303;2.6236930652123625;-0.9873046875;0.599609375;-0.2841796875;-38.9375;-28.375;66.0;
1441975690532520;0.5399169921875;-0.56683349609375;-0.61212158203125;-0.1119384765625;14.19863587208369;14.574352531883527;2.523727127651621;-1.0;0.580078125;-0.2685546875;-47.125;-30.375;74.5;
1441975690554521;0.52935791015625;-0.56939697265625;-0.62017822265625;-0.1044921875;14.086028002638391;14.466316006134923;2.428317525699262;-0.97509765625;0.58984375;-0.2958984375;-42.75;-36.125;80.4375;
1441975690569522;0.5189208984375;-0.57183837890625;-0.6278076171875;-0.09771728515625;13.976002934291301;14.367283713303985;2.3392893698919703;-0.9375;0.5302734375;-0.287109375;-37.75;-38.0;83.875;
1441975690592523;0.509033203125;-0.573486328125;-0.63543701171875;-0.09100341796875;13.869860264039138;14.272954204897497;2.2589704539374513;-0.958984375;0.49267578125;-0.24951171875;-34.5625;-37.125;85.0;
1441975690613525;0.5006103515625;-0.572509765625;-0.6439208984375;-0.08392333984375;13.779617533080465;14.17443260074442;2.1908381173048888;-0.931640625;0.4658203125;-0.1953125;-36.8125;-34.125;82.8125;
1441975690629525;0.49285888671875;-0.57220458984375;-0.65093994140625;-0.0775146484375;13.691224075064449;14.09382817134758;2.134013479810374;-0.92724609375;0.43408203125;-0.125;-48.6875;-28.75;75.25;
1441975690652527;0.4862060546875;-0.572021484375;-0.65673828125;-0.071533203125;13.609063862085979;14.028341930124146;2.090097631449321;-0.92041015625;0.40185546875;-0.142578125;-41.8125;-26.0625;73.75;
1441975690675528;0.4798583984375;-0.57183837890625;-0.66204833984375;-0.06689453125;13.538578481516563;13.969034137100266;2.046959228217512;-0.90380859375;0.4306640625;-0.16064453125;-37.625;-21.5625;67.625;
1441975690689529;0.47412109375;-0.57049560546875;-0.667724609375;-0.06280517578125;13.481216442473224;13.907004466406859;2.0056021990401462;-0.8837890625;0.49365234375;-0.150390625;-31.6875;-23.9375;58.625;
1441975690712530;0.46905517578125;-0.56854248046875;-0.67333984375;-0.05859375;13.42861386377557;13.846716741957849;1.9701870300308695;-0.84228515625;0.48681640625;-0.119140625;-35.3125;-24.1875;50.0;
1441975690735532;0.46575927734375;-0.56866455078125;-0.67572021484375;-0.056396484375;13.390981459957123;13.820879043330276;1.9504184669867373;-0.77587890625;0.5048828125;-0.064453125;-35.8125;-20.25;43.375;
1441975690749532;0.46405029296875;-0.56927490234375;-0.676513671875;-0.0548095703125;13.364697657057615;13.812331959368313;1.9437082977785396;-0.736328125;0.48486328125;-0.08935546875;-13.9375;-11.8125;33.625;
1441975690772534;0.46270751953125;-0.56719970703125;-0.6793212890625;-0.05224609375;13.346471650700995;13.783092509740358;1.9355157471922042;-0.7197265625;0.48046875;-0.14501953125;-8.5;-6.5;26.75;
1441975690795535;0.46240234375;-0.5631103515625;-0.68304443359375;-0.05078125;13.353896090884874;13.744441476252932;1.9255743721076946;-0.68017578125;0.5537109375;-0.072265625;-24.5625;-5.125;17.1875;
1441975690816536;0.46173095703125;-0.55755615234375;-0.68817138671875;-0.04876708984375;13.361945322335668;13.690503681669535;1.9103145382640347;-0.65234375;0.486328125;-0.03515625;-31.625;-6.4375;6.4375;
1441975690832537;0.4620361328125;-0.5545654296875;-0.6905517578125;-0.04656982421875;13.360927783038564;13.666219777014511;1.9117785813544783;-0.6435546875;0.47412109375;0.0693359375;-38.1875;-5.5;6.5625;
1441975690862539;0.46527099609375;-0.55096435546875;-0.69140625;-0.04437255859375;13.380793244732516;13.658969801793692;1.9355008262579723;-0.5439453125;0.54931640625;-0.005859375;-23.9375;2.3125;1.25;
1441975690876540;0.47125244140625;-0.5435791015625;-0.69329833984375;-0.04296875;13.443540384896824;13.640663546091446;1.9673667470637866;-0.4912109375;0.642578125;-0.07470703125;-25.875;14.0;-17.125;
1441975690892541;0.47833251953125;-0.53460693359375;-0.69537353515625;-0.043701171875;13.539152860850729;13.618951216373143;1.9959135771391434;-0.5107421875;0.623046875;-0.07373046875;-42.375;18.9375;-37.75;
1441975690915542;0.48553466796875;-0.52716064453125;-0.69580078125;-0.04742431640625;13.652290224359554;13.613501522959153;2.0197378001546036;-0.5361328125;0.576171875;-0.08837890625;-45.5;14.625;-51.0;
1441975690936543;0.492431640625;-0.5228271484375;-0.69366455078125;-0.054931640625;13.77813263352141;13.634977009720833;2.0378614423719217;-0.50830078125;0.5419921875;-0.03564453125;-23.0625;13.375;-60.1875;
1441975690952544;0.49835205078125;-0.5203857421875;-0.6903076171875;-0.06622314453125;13.919214679250734;13.667739768937906;2.0410851507319423;-0.4736328125;0.42529296875;-0.06298828125;6.3125;7.5625;-63.5;
1441975690975545;0.50396728515625;-0.518310546875;-0.6864013671875;-0.0789794921875;14.068813879490403;13.704760069971995;2.040152381861309;-0.47021484375;0.41357421875;-0.08935546875;27.0625;-5.375;-71.0625;
1441975690996546;0.50823974609375;-0.51519775390625;-0.68408203125;-0.0916748046875;14.216035138632638;13.721382399576301;2.023846382261878;-0.515625;0.48681640625;-0.173828125;31.4375;-13.0625;-78.0625;
1441975691012547;0.51171875;-0.51409912109375;-0.68060302734375;-0.103271484375;14.338934073936926;13.751393615720744;2.0139330912688145;-0.60888671875;0.4599609375;-0.1650390625;23.875;-22.6875;-72.3125;
1441975691035549;0.51519775390625;-0.5152587890625;-0.67523193359375;-0.114501953125;14.446664143486988;13.805570950329379;2.0175987776362763;-0.57177734375;0.53125;-0.2060546875;31.1875;-20.5;-66.8125;
1441975691056550;0.51751708984375;-0.51776123046875;-0.66925048828125;-0.12744140625;14.555141243073138;13.864408600989641;2.0112758973841975;-0.5478515625;0.64892578125;-0.26513671875;43.0625;-15.625;-68.875;
1441975691072551;0.51861572265625;-0.51873779296875;-0.66510009765625;-0.13995361328125;14.662253060537932;13.897580606224667;1.9881584921514754;-0.5556640625;0.6982421875;-0.3388671875;54.0625;-26.375;-72.125;
1441975691095552;0.5186767578125;-0.518798828125;-0.66217041015625;-0.15277099609375;14.771815421811013;13.911053042569854;1.9482832613923577;-0.50390625;0.66015625;-0.2939453125;44.625;-34.25;-71.25;
1441975691116553;0.51812744140625;-0.51873779296875;-0.65911865234375;-0.16754150390625;14.895807058092785;13.91833507721446;1.8943169616604216;-0.49609375;0.607421875;-0.2373046875;41.375;-40.375;-68.8125;
1441975691132554;0.516845703125;-0.518798828125;-0.65533447265625;-0.185302734375;15.041357318436052;13.922046767592246;1.8228202073698185;-0.5537109375;0.58740234375;-0.22314453125;48.3125;-47.0625;-72.8125;
1441975691155556;0.51422119140625;-0.5191650390625;-0.6517333984375;-0.203369140625;15.180828694163106;13.912783423549579;1.7341618867969877;-0.62060546875;0.5302734375;-0.1943359375;61.375;-54.9375;-78.1875;
1441975691176557;0.5118408203125;-0.5186767578125;-0.64935302734375;-0.21771240234375;15.293840173076783;13.891277589761945;1.6531312395214313;-0.61572265625;0.5419921875;-0.14111328125;66.5;-58.25;-76.125;
1441975691198558;0.51007080078125;-0.51666259765625;-0.64813232421875;-0.2298583984375;15.398570964874164;13.854932878054392;1.5745483562896656;-0.6015625;0.556640625;-0.14208984375;48.0;-51.3125;-66.5;
1441975691215559;0.5078125;-0.5145263671875;-0.6470947265625;-0.2421875;15.501681123299296;13.807345305599217;1.483998870647783;-0.6220703125;0.52490234375;-0.16015625;30.9375;-49.1875;-61.6875;
1441975691236560;0.50482177734375;-0.5130615234375;-0.645751953125;-0.25494384765625;15.599640384679363;13.75444176500747;1.3821396938909236;-0.6259765625;0.49072265625;-0.16796875;31.0;-53.1875;-59.6875;
1441975691252561;0.501953125;-0.51104736328125;-0.6448974609375;-0.2664794921875;15.689042410776336;13.691533239885233;1.2779356913177264;-0.61376953125;0.482421875;-0.1689453125;36.0;-56.1875;-58.0625;
1441975691275562;0.49835205078125;-0.51141357421875;-0.642578125;-0.27789306640625;15.761853463099058;13.64878545594845;1.1811991086484523;-0.62890625;0.4306640625;-0.12744140625;30.0;-52.0;-52.125;
1441975691296564;0.4930419921875;-0.51416015625;-0.6397705078125;-0.2886962890625;15.80705221543807;13.61354042746844;1.0809118812951874;-0.61962890625;0.3701171875;-0.12939453125;43.4375;-46.9375;-41.6875;
1441975691312565;0.486572265625;-0.51715087890625;-0.6376953125;-0.29876708984375;15.835365771307266;13.564306629476425;0.9673439537676758;-0.61767578125;0.4365234375;-0.146484375;54.5;-47.5625;-33.0625;
1441975691335566;0.4805908203125;-0.517822265625;-0.637939453125;-0.3065185546875;15.852761122511;13.485812012556874;0.8468436267536117;-0.66162109375;0.50341796875;-0.115234375;53.6875;-49.5625;-28.75;
1441975691356567;0.474365234375;-0.51971435546875;-0.6387939453125;-0.311279296875;15.836066110570247;13.423653479304981;0.7494523680492092;-0.732421875;0.513671875;-0.1142578125;30.4375;-51.75;-23.0625;
1441975691372568;0.46783447265625;-0.52337646484375;-0.63885498046875;-0.31488037109375;15.801577975203946;13.389068190347555;0.6748740923110659;-0.73291015625;0.5546875;-0.1298828125;24.875;-44.8125;-9.625;
1441975691395569;0.4617919921875;-0.52734375;-0.63720703125;-0.3204345703125;15.788379061634949;13.367803576800174;0.6031099093269665;-0.75;0.6201171875;-0.1298828125;30.5;-37.375;-4.6875;
1441975691416571;0.4547119140625;-0.531982421875;-0.63555908203125;-0.32611083984375;15.765555425897542;13.345339624546826;0.5249028494529846;-0.8408203125;0.6025390625;-0.14892578125;40.875;-37.9375;-11.8125;
1441975691432571;0.4456787109375;-0.53900146484375;-0.63372802734375;-0.33062744140625;15.710566141548707;13.339590460954525;0.4539092037798343;-0.908203125;0.5537109375;-0.12548828125;45.8125;-39.5;-2.125;
1441975691454573;0.43475341796875;-0.54803466796875;-0.63226318359375;-0.3331298828125;15.617919136834937;13.348291079704303;0.39323066187913847;-0.84228515625;0.48681640625;-0.06982421875;57.125;-34.4375;17.5;
1441975691476574;0.42266845703125;-0.55755615234375;-0.63177490234375;-0.3338623046875;15.499174745082545;13.357066609012373;0.3359739982481794;-0.75830078125;0.52099609375;-0.01171875;63.3125;-28.375;32.6875;
1441975691492575;0.40966796875;-0.56671142578125;-0.63287353515625;-0.33245849609375;15.354824865035505;13.358023211304465;0.2803159585646858;-0.693359375;0.52783203125;0.04052734375;61.25;-25.1875;45.1875;
1441975691522577;0.39593505859375;-0.576904296875;-0.63427734375;-0.328857421875;15.184450088421409;13.373246720662268;0.2410564584812565;-0.62158203125;0.541015625;0.08837890625;53.0625;-22.9375;56.5;
1441975691536577;0.38311767578125;-0.58795166015625;-0.63616943359375;-0.32080078125;14.983792118664821;13.413566743980258;0.24168476011836906;-0.5732421875;0.591796875;0.1240234375;53.3125;-15.0625;66.3125;
1441975691552578;0.37115478515625;-0.5997314453125;-0.63848876953125;-0.30816650390625;14.751510803128095;13.472260088021105;0.2759892166049749;-0.59130859375;0.66943359375;0.103515625;42.75;2.5;80.625;
1441975691574580;0.3614501953125;-0.60833740234375;-0.6424560546875;-0.2943115234375;14.532973591530794;13.50680608209622;0.3108188780595771;-0.6474609375;0.78759765625;0.0107421875;29.0;16.0;94.0625;
1441975691597581;0.35198974609375;-0.6160888671875;-0.64752197265625;-0.278076171875;14.297976356565753;13.532596502914647;0.3510090844314522;-0.67431640625;0.8330078125;0.04541015625;6.1875;19.4375;104.3125;
1441975691612582;0.34173583984375;-0.624267578125;-0.653076171875;-0.25897216796875;14.03217724662976;13.557963488740027;0.39794960182268796;-0.701171875;0.76611328125;0.046875;-6.25;25.125;114.1875;
1441975691634583;0.329833984375;-0.63299560546875;-0.65899658203125;-0.2374267578125;13.732492466533525;13.579565526074646;0.4439667500989788;-0.75390625;0.7587890625;0.0166015625;-11.25;31.5;130.25;
1441975691665585;0.3165283203125;-0.64202880859375;-0.6650390625;-0.213134765625;13.399686713225758;13.598324548615881;0.4920133083466588;-0.75537109375;0.83349609375;0.02392578125;-12.625;34.5625;147.5;
1441975691672585;0.30206298828125;-0.65130615234375;-0.67083740234375;-0.18621826171875;13.037207324751469;13.615612524379276;0.5432504921791343;-0.7080078125;0.8779296875;-0.00634765625;-15.5;38.8125;163.625;
1441975691694586;0.28564453125;-0.66156005859375;-0.67547607421875;-0.15673828125;12.63860341894056;13.63675905842635;0.5956508898702385;-0.71484375;0.89013671875;-0.0244140625;-16.875;44.8125;179.125;
1441975691717588;0.26654052734375;-0.671875;-0.679443359375;-0.1263427734375;12.213639442850196;13.651808726569476;0.6360535593570498;-0.68701171875;0.94580078125;-0.06298828125;-11.625;49.5;197.1875;
1441975691731589;0.2447509765625;-0.681640625;-0.6829833984375;-0.0950927734375;11.76415509629628;13.658624517071601;0.6648934353839598;-0.62744140625;0.93359375;-0.0615234375;-7.875;44.0;211.3125;
1441975691754590;0.2216796875;-0.69024658203125;-0.6859130859375;-0.06396484375;11.31008013679698;13.658941837235691;0.6862768604561447;-0.53271484375;0.97021484375;-0.0654296875;-7.9375;36.9375;223.375;
1441975691777591;0.19903564453125;-0.6959228515625;-0.689208984375;-0.03338623046875;10.871176985203158;13.644633699678899;0.7058020380903853;-0.431640625;0.97021484375;-0.0517578125;-8.8125;32.125;226.0625;
1441975691798592;0.17596435546875;-0.70184326171875;-0.6903076171875;-0.00518798828125;10.448914772069504;13.639096886558788;0.7170436875290792;-0.35205078125;0.84423828125;-0.0048828125;-20.6875;30.0625;219.0625;
1441975691814593;0.15264892578125;-0.7103271484375;-0.6868896484375;0.020263671875;10.042225607932126;13.6621372592991;0.7202684279998833;-0.38720703125;0.8505859375;0.02783203125;-7.6875;21.625;213.3125;
1441975691838595;0.12994384765625;-0.71685791015625;-0.683837890625;0.04083251953125;9.684421589943566;13.677460591589725;0.7057489435198657;-0.2587890625;0.83251953125;-0.060546875;22.125;13.9375;204.875;
1441975691866596;0.10858154296875;-0.72003173828125;-0.68310546875;0.056640625;9.382872074228613;13.673496972170772;0.677377346006714;-0.2314453125;0.8798828125;-0.015625;18.3125;-3.4375;181.625;
1441975691874597;0.0887451171875;-0.720458984375;-0.6844482421875;0.0684814453125;9.130671750292205;13.654161558355163;0.6403123712965355;-0.19140625;0.84619140625;-0.01171875;-0.875;-19.0;154.6875;
1441975691897598;0.0712890625;-0.7193603515625;-0.686767578125;0.076171875;8.933123623170946;13.629280400419177;0.5979191519922098;-0.1533203125;0.74560546875;0.02294921875;-16.75;-29.5;130.3125;
1441975691918599;0.05718994140625;-0.71875;-0.68853759765625;0.078369140625;8.805744601187866;13.61366286642673;0.5482853356574783;-0.1279296875;0.6669921875;0.056640625;-23.1875;-37.1875;102.9375;
1441975691942601;0.0458984375;-0.71893310546875;-0.68951416015625;0.07489013671875;8.745601553187097;13.60880281596438;0.4877536507888736;-0.1220703125;0.66650390625;0.05908203125;-11.0625;-46.875;76.0;
1441975691957601;0.0394287109375;-0.71978759765625;-0.68988037109375;0.0673828125;8.75587391630218;13.612340424684195;0.43091217258627;-0.09765625;0.6416015625;0.0634765625;-1.0625;-59.125;41.1875;
1441975691978603;0.0390625;-0.72052001953125;-0.6900634765625;0.0570068359375;8.838205287952993;13.618204389012813;0.3879482219429598;-0.07470703125;0.646484375;0.02783203125;4.5625;-56.875;4.0625;
1441975691994604;0.04400634765625;-0.7200927734375;-0.69122314453125;0.042724609375;8.996018551215288;13.617064566465503;0.3516223447042201;-0.1005859375;0.65234375;-0.0341796875;3.8125;-44.25;-31.125;
1441975692017605;0.05169677734375;-0.7188720703125;-0.69281005859375;0.02490234375;9.205316995206712;13.611372378074137;0.312583347850614;-0.1640625;0.61962890625;-0.04541015625;-2.9375;-39.3125;-65.9375;
1441975692038606;0.062744140625;-0.71697998046875;-0.6943359375;0.001953125;9.483701579500128;13.603199035198127;0.2668296124102818;-0.18115234375;0.60107421875;-0.0283203125;-5.375;-43.0;-100.375;
1441975692054607;0.077392578125;-0.71356201171875;-0.69580078125;-0.027099609375;9.8416576714244;13.587721969688358;0.21082784781670397;-0.18798828125;0.634765625;-0.046875;-5.875;-50.8125;-134.875;
1441975692077608;0.095947265625;-0.70843505859375;-0.69659423828125;-0.0614013671875;10.274711789758749;13.564829831746675;0.14808840558334352;-0.20263671875;0.68994140625;-0.05859375;-9.6875;-61.5625;-175.625;
1441975692098610;0.11834716796875;-0.70379638671875;-0.69366455078125;-0.09759521484375;10.755081482352221;13.556008849166489;0.09372286010693136;-0.251953125;0.6181640625;0.02197265625;-10.9375;-67.375;-213.0;
1441975692114610;0.14434814453125;-0.701171875;-0.6854248046875;-0.1334228515625;11.264068154250413;13.577197528923946;0.06059862937363299;-0.3466796875;0.53662109375;0.03955078125;6.375;-57.375;-236.4375;
1441975692137612;0.1712646484375;-0.6995849609375;-0.67254638671875;-0.1702880859375;11.794327872410427;13.621421798082629;0.034292076489212786;-0.5068359375;0.51416015625;0.009765625;32.75;-36.9375;-249.3125;
1441975692158613;0.19830322265625;-0.69451904296875;-0.65875244140625;-0.2109375;12.365518209735225;13.648835187048432;17.99153305391151;-0.66552734375;0.63525390625;-0.125;54.1875;-33.5;-259.375;
1441975692174614;0.225830078125;-0.68243408203125;-0.6463623046875;-0.25604248046875;12.98935648274268;13.624645634769005;17.914993361179548;-0.77880859375;0.7216796875;-0.1806640625;46.9375;-51.4375;-279.5625;
1441975692197615;0.25433349609375;-0.66546630859375;-0.63409423828125;-0.30072021484375;13.628223537104045;13.56227522482928;17.8221906600381;-0.94873046875;0.59716796875;-0.12939453125;20.125;-77.125;-302.875;
1441975692218616;0.28326416015625;-0.64874267578125;-0.61798095703125;-0.34222412109375;14.256434221863852;13.509838401108219;17.738366367419456;-1.068359375;0.39111328125;-0.02197265625;0.9375;-78.1875;-309.5625;
1441975692234617;0.31005859375;-0.6324462890625;-0.59820556640625;-0.3822021484375;14.868876192961096;13.456982296130692;17.640318783361707;-1.17041015625;0.20361328125;0.02294921875;11.5;-58.375;-304.25;
1441975692257619;0.3336181640625;-0.61566162109375;-0.5771484375;-0.42022705078125;15.448883783070663;13.371245609345724;17.503480520266628;-1.30078125;0.04248046875;0.0205078125;28.25;-53.5625;-295.875;
1441975692278620;0.3538818359375;-0.60028076171875;-0.553955078125;-0.4556884765625;15.989580768811189;13.258462005544663;17.327089775305797;-1.3994140625;-0.1044921875;0.13818359375;35.8125;-54.75;-280.0;
1441975692294621;0.37158203125;-0.58660888671875;-0.5299072265625;-0.4869384765625;16.479688302844963;13.108523294958296;17.11064000182911;-1.4140625;-0.18798828125;0.22509765625;51.3125;-48.1875;-262.8125;
