1441975560879104;-0.00323486328125;-0.81640625;-0.5240478515625;-0.24285888671875;11.314746819164718;14.561220845567519;17.17943483231868;-1.8896484375;0.6962890625;0.259765625;153.3125;68.9375;215.6875;
1441975560901105;-0.01300048828125;-0.80938720703125;-0.54827880859375;-0.2103271484375;10.903683983717475;14.458429174446849;17.22806055383474;-1.8134765625;0.478515625;0.275390625;7.0625;95.1875;188.5625;
1441975560918106;-0.01666259765625;-0.7890625;-0.5858154296875;-0.18450927734375;10.576089831681164;14.239391409037278;17.270459190598984;-1.8037109375;0.1279296875;0.10693359375;-120.5;113.3125;177.1875;
1441975560939108;-0.01934814453125;-0.76654052734375;-0.6212158203125;-0.1619873046875;10.296035290671433;14.019612374709093;17.314725422844365;-1.76171875;-0.091796875;0.21240234375;-231.6875;87.0;144.9375;
1441975560963109;-0.01666259765625;-0.75048828125;-0.64453125;-0.14544677734375;10.13508420689247;13.871908620955043;17.374174459916148;-1.4921875;-0.4248046875;0.0830078125;-231.0625;72.125;127.5;
1441975560978110;-0.007568359375;-0.7449951171875;-0.651123046875;-0.14495849609375;10.189511382474858;13.823005377129448;17.41019812222819;-1.35595703125;-0.52294921875;-0.1865234375;-164.125;73.0;94.9375;
1441975560999111;0.0018310546875;-0.74774169921875;-0.64697265625;-0.14971923828125;10.307621275533714;13.848249490612018;17.43468855665275;-1.1982421875;-0.43212890625;-0.1220703125;-67.1875;39.9375;54.5;
1441975561021112;0.01385498046875;-0.75341796875;-0.63812255859375;-0.158203125;10.483600949234361;13.903174012588792;17.46035134765314;-0.982421875;-0.240234375;-0.03173828125;16.125;24.125;7.6875;
1441975561038113;0.02777099609375;-0.7579345703125;-0.62896728515625;-0.1710205078125;10.71068220287162;13.952616378267889;17.47851191380132;-0.95263671875;-0.00732421875;-0.0068359375;48.625;21.3125;-27.5625;
1441975561059114;0.044189453125;-0.75872802734375;-0.62255859375;-0.186767578125;10.977971583601558;13.974496661579499;17.49358316752938;-0.97412109375;0.18994140625;0.015625;47.375;10.25;-54.8125;
1441975561082116;0.0601806640625;-0.75787353515625;-0.617919921875;-0.20068359375;11.224228889825177;13.984774723473361;17.512402361029334;-0.9453125;0.29541015625;0.037109375;23.125;3.4375;-79.8125;
1441975561098117;0.08038330078125;-0.7550048828125;-0.61285400390625;-0.218994140625;11.541626712996667;13.987436147738707;17.531546732716315;-0.96533203125;0.419921875;-0.0078125;4.5625;-0.625;-111.875;
1441975561119118;0.10467529296875;-0.7503662109375;-0.6065673828125;-0.2410888671875;11.925967900077893;13.988192150866206;17.553654085939034;-1.00927734375;0.5615234375;-0.02294921875;-4.0;-7.1875;-148.3125;
1441975561141119;0.13360595703125;-0.743408203125;-0.59906005859375;-0.265869140625;12.37340068383825;13.987858191314851;17.58556539014535;-0.982421875;0.7236328125;-0.044921875;-8.25;-11.0;-184.3125;
1441975561158120;0.1666259765625;-0.734130859375;-0.59039306640625;-0.291259765625;12.86328396433586;13.991266589312058;17.635014663005645;-0.99365234375;0.7861328125;-0.01123046875;-15.125;-8.9375;-218.5625;
1441975561179121;0.2022705078125;-0.7222900390625;-0.58056640625;-0.31695556640625;13.383925426001998;13.999319575231246;17.698296786749083;-1.07958984375;0.75390625;-0.0107421875;-24.0;-0.25;-242.25;
1441975561201123;0.23870849609375;-0.7078857421875;-0.5693359375;-0.34326171875;13.926610007837878;14.012450711096935;17.767492664749348;-1.20849609375;0.7236328125;-0.08349609375;-33.375;3.875;-258.5625;
1441975561218124;0.274658203125;-0.6910400390625;-0.55712890625;-0.3697509765625;14.478546314692633;14.02890202842326;17.838971286274024;-1.291015625;0.603515625;-0.1162109375;-37.0;0.375;-269.5;
1441975561239125;0.3114013671875;-0.671142578125;-0.54541015625;-0.3939208984375;15.027260115118477;14.050796842791245;17.932359946633486;-1.3564453125;0.49658203125;-0.1435546875;-40.5625;-6.4375;-273.1875;
1441975561261126;0.34686279296875;-0.6495361328125;-0.5347900390625;-0.41461181640625;15.543693386689716;14.085002957335313;0.049197757065867105;-1.466796875;0.43359375;-0.1865234375;-57.9375;-2.3125;-273.3125;
1441975561284127;0.379150390625;-0.6275634765625;-0.523681640625;-0.43389892578125;16.032383525981007;14.144157298931512;0.18245617237645634;-1.544921875;0.404296875;-0.1083984375;-70.0;1.9375;-259.4375;
1441975561299128;0.40716552734375;-0.6077880859375;-0.5098876953125;-0.45263671875;16.487923014016335;14.281959282994547;0.3672776462285402;-1.49365234375;0.287109375;-0.0615234375;-64.4375;-1.75;-245.625;
1441975561321129;0.42926025390625;-0.591552734375;-0.49322509765625;-0.4718017578125;16.898267298660592;14.54743655748185;0.6416782689950724;-1.49560546875;0.14892578125;-0.06884765625;-38.6875;-1.9375;-230.5625;
1441975561338130;0.44683837890625;-0.578125;-0.47515869140625;-0.4903564453125;17.252232571714764;15.06628007899861;1.1453846124320342;-1.447265625;0.14111328125;-0.06640625;-2.1875;-4.75;-212.0625;
1441975561359132;0.46160888671875;-0.5653076171875;-0.45770263671875;-0.50787353515625;17.533435699709248;16.165336807527147;2.223748362333689;-1.38818359375;0.19140625;-0.0869140625;21.5;-5.125;-194.625;
1441975561382133;0.47412109375;-0.55303955078125;-0.44146728515625;-0.52392578125;17.645466763516836;0.3955220809738333;4.432494109683714;-1.34375;0.18798828125;-0.0771484375;26.5;-8.9375;-180.75;
1441975561404134;0.485595703125;-0.541015625;-0.42724609375;-0.53759765625;17.526268868298505;2.32030013212496;6.344459143164737;-1.26171875;0.1826171875;-0.046875;26.6875;-11.4375;-165.8125;
1441975561419135;0.4959716796875;-0.52935791015625;-0.41546630859375;-0.54888916015625;17.32840325636753;3.1714617928128193;7.192232260476223;-1.18505859375;0.15185546875;-0.01611328125;17.375;-10.8125;-150.0625;
1441975561442136;0.5054931640625;-0.5184326171875;-0.40606689453125;-0.55755615234375;17.133434982614546;3.560428146568548;7.587500599671269;-1.12353515625;0.1201171875;-0.01806640625;7.6875;-12.0;-132.8125;
1441975561464138;0.509765625;-0.50970458984375;-0.4007568359375;-0.56549072265625;17.006551727295676;3.842103898180841;7.868042602296526;-1.08447265625;0.03857421875;-0.01611328125;-2.6875;-10.5625;-113.375;
1441975561479139;0.5096435546875;-0.5045166015625;-0.39654541015625;-0.57318115234375;16.92637131977081;4.060195580749627;8.066096900635173;-1.0595703125;0.0126953125;0.060546875;4.1875;-19.0625;-86.9375;
1441975561501140;0.50714111328125;-0.50250244140625;-0.3941650390625;-0.57879638671875;16.893705871767917;4.210950341188633;8.192207222882423;-0.99951171875;0.033203125;0.078125;22.5;-19.8125;-61.25;
1441975561524141;0.503662109375;-0.5015869140625;-0.39422607421875;-0.58251953125;16.89540421468434;4.342598635478645;8.305851948332451;-0.978515625;0.056640625;0.0498046875;26.0625;-16.8125;-36.375;
1441975561540142;0.50128173828125;-0.50030517578125;-0.397216796875;-0.58367919921875;16.91795082467572;4.452296762599892;8.417779835898946;-1.00146484375;0.03466796875;-0.001953125;20.4375;-21.125;-16.8125;
1441975561561143;0.5006103515625;-0.49847412109375;-0.40411376953125;-0.58111572265625;16.96920559354237;4.530676745377843;8.527064275531574;-0.9736328125;-0.04736328125;-0.0263671875;0.0625;-23.125;0.75;
1441975561584145;0.5010986328125;-0.49688720703125;-0.41522216796875;-0.57415771484375;17.062922652668444;4.571609045083936;8.626437183535804;-0.95703125;-0.099609375;0.001953125;-29.0625;-20.375;20.375;
1441975561600145;0.50225830078125;-0.49542236328125;-0.4298095703125;-0.56353759765625;17.19358681908172;4.594040371213702;8.729376377768716;-0.9365234375;-0.0869140625;0.01806640625;-57.0625;-15.4375;42.375;
1441975561621147;0.50299072265625;-0.4940185546875;-0.4466552734375;-0.55096435546875;17.350627180315243;4.652258802821027;8.878611469320344;-0.9443359375;-0.0791015625;0.009765625;-79.625;-13.1875;62.125;
1441975561644148;0.5015869140625;-0.49322509765625;-0.46405029296875;-0.5384521484375;17.523651004606283;4.86012310058881;9.170746934888488;-0.97802734375;-0.099609375;0.0068359375;-89.6875;-15.4375;78.3125;
1441975561660149;0.4971923828125;-0.493896484375;-0.481201171875;-0.52667236328125;17.704476420739912;5.51005655061407;9.889188453448483;-1.01025390625;-0.0947265625;0.01611328125;-83.125;-20.625;89.1875;
1441975561681150;0.4913330078125;-0.49554443359375;-0.498046875;-0.51483154296875;17.834521997622808;7.739730845000498;12.179576334074502;-0.99462890625;-0.04248046875;0.01806640625;-67.125;-25.5;98.0;
1441975561704151;0.48455810546875;-0.497802734375;-0.5145263671875;-0.50274658203125;17.753882515198196;10.783714563056096;15.279517327043841;-0.94091796875;0.01318359375;0.0087890625;-59.0625;-26.3125;104.5;
1441975561720152;0.4769287109375;-0.5003662109375;-0.53033447265625;-0.49090576171875;17.56043184307213;11.729344496299559;16.27518854065012;-0.9130859375;0.05224609375;-0.0078125;-54.25;-25.3125;108.0625;
1441975561750154;0.46826171875;-0.5032958984375;-0.5452880859375;-0.47979736328125;17.34715579601166;12.054576463303118;16.641967949236864;-0.90771484375;0.06884765625;-0.00537109375;-48.625;-26.1875;109.0625;
1441975561764155;0.458740234375;-0.50634765625;-0.5589599609375;-0.46990966796875;17.13514097269445;12.189481378083848;16.80854909914543;-0.880859375;0.091796875;-0.0048828125;-40.125;-27.9375;108.625;
1441975561780156;0.44891357421875;-0.50982666015625;-0.571044921875;-0.4610595703125;16.93293236336506;12.267742376930475;16.908941962138787;-0.85205078125;0.10986328125;-0.01123046875;-30.5;-31.0;104.3125;
1441975561801157;0.43878173828125;-0.513427734375;-0.5814208984375;-0.4537353515625;16.744621697716667;12.308991115553905;16.961867919541135;-0.845703125;0.1513671875;-0.02294921875;-21.5625;-34.125;98.0625;
1441975561824158;0.4288330078125;-0.5169677734375;-0.59002685546875;-0.44805908203125;16.5758968508686;12.32959284422358;16.985027497847394;-0.845703125;0.2021484375;-0.0263671875;-12.25;-35.9375;88.1875;
1441975561840159;0.41961669921875;-0.5201416015625;-0.5968017578125;-0.44415283203125;16.433009456830913;12.335272267736073;16.986015843613572;-0.8583984375;0.24755859375;-0.03173828125;-4.0;-37.125;76.0;
1441975561861160;0.41119384765625;-0.52288818359375;-0.6016845703125;-0.44219970703125;16.317733901043468;12.32862853335696;16.967036496206166;-0.861328125;0.275390625;-0.03271484375;2.25;-36.6875;62.0625;
1441975561884162;0.4036865234375;-0.5252685546875;-0.604736328125;-0.44207763671875;16.22994666190301;12.3143951190549;16.933497109755077;-0.84814453125;0.28857421875;-0.01318359375;8.8125;-35.5;47.125;
1441975561900163;0.3970947265625;-0.52783203125;-0.6055908203125;-0.44390869140625;16.17118865491102;12.301386922339011;16.891178205103667;-0.8115234375;0.2900390625;0.01318359375;15.75;-32.9375;32.625;
1441975561921164;0.39154052734375;-0.53045654296875;-0.604248046875;-0.44757080078125;16.142219531024892;12.288690666335782;16.84024644061755;-0.79541015625;0.294921875;0.03662109375;25.3125;-28.8125;17.8125;
1441975561944165;0.38690185546875;-0.533203125;-0.6011962890625;-0.452392578125;16.1361256928725;12.279442067866231;16.786706581275787;-0.787109375;0.2783203125;0.05322265625;34.1875;-23.9375;4.1875;
1441975561960166;0.38348388671875;-0.5355224609375;-0.59698486328125;-0.45806884765625;16.151767214998408;12.26602812887349;16.7279413368305;-0.75439453125;0.2548828125;0.06201171875;40.4375;-19.75;-6.125;
1441975561982167;0.38134765625;-0.53729248046875;-0.59222412109375;-0.46392822265625;16.18330750573308;12.24925043891082;16.66903627612808;-0.73388671875;0.23681640625;0.07421875;41.5;-15.8125;-15.6875;
1441975562004169;0.38043212890625;-0.53839111328125;-0.58746337890625;-0.46942138671875;16.224782955989344;12.22911268287475;16.613368653001118;-0.72900390625;0.21142578125;0.08447265625;38.9375;-11.1875;-21.875;
1441975562020169;0.380615234375;-0.538818359375;-0.58294677734375;-0.474365234375;16.272870389920676;12.20536793850731;16.56157046390027;-0.71240234375;0.177734375;0.09228515625;32.9375;-7.25;-24.1875;
1441975562041171;0.382080078125;-0.53875732421875;-0.57861328125;-0.47857666015625;16.328676615616036;12.183269240766068;16.51924814098708;-0.70751953125;0.16748046875;0.1025390625;25.9375;-3.125;-26.375;
1441975562064172;0.385009765625;-0.537841796875;-0.57464599609375;-0.48199462890625;16.39293079739888;12.157544007254296;16.483406603393973;-0.736328125;0.1826171875;0.087890625;18.25;0.5625;-29.6875;
1441975562080173;0.3892822265625;-0.53570556640625;-0.571533203125;-0.484619140625;16.461733969510462;12.118957103013395;16.446904381934083;-0.78173828125;0.19189453125;0.06884765625;8.25;2.9375;-32.4375;
1441975562104174;0.39471435546875;-0.53265380859375;-0.569091796875;-0.48651123046875;16.534480922422503;12.07103189669761;16.41111999480378;-0.81396484375;0.18017578125;0.06103515625;-4.25;4.3125;-33.9375;
1441975562124175;0.40045166015625;-0.5294189453125;-0.566650390625;-0.48822021484375;16.60921377297811;12.01904563957877;16.373185941656423;-0.83056640625;0.15087890625;0.06884765625;-13.5625;6.3125;-33.75;
1441975562140176;0.40606689453125;-0.52691650390625;-0.56341552734375;-0.49005126953125;16.687714006536222;11.977768777234417;16.340831431191553;-0.84228515625;0.12451171875;0.08984375;-14.9375;9.1875;-33.4375;
1441975562161178;0.41131591796875;-0.52520751953125;-0.55950927734375;-0.491943359375;16.76700621419085;11.949304972520496;16.3158131313523;-0.87060546875;0.11279296875;0.08740234375;-9.3125;12.125;-33.625;
1441975562185179;0.4163818359375;-0.52374267578125;-0.5556640625;-0.49359130859375;16.84335666164254;11.925941952516855;16.29553105911568;-0.91064453125;0.10595703125;0.083984375;-4.0625;14.25;-32.875;
1441975562200180;0.42144775390625;-0.52197265625;-0.55267333984375;-0.4945068359375;16.91205664461881;11.902025651083852;16.280123182976865;-0.92041015625;0.0986328125;0.07763671875;-3.625;14.625;-30.375;
1441975562230181;0.4266357421875;-0.51995849609375;-0.5504150390625;-0.49462890625;16.974878621257773;11.88223965787147;16.274266463419977;-0.8935546875;0.0869140625;0.08154296875;-8.3125;15.0;-26.75;
1441975562244182;0.43157958984375;-0.5179443359375;-0.54888916015625;-0.49420166015625;17.029044254208117;11.867624933796131;16.27654763758446;-0.890625;0.076171875;0.08544921875;-13.625;15.625;-23.25;
1441975562260183;0.43634033203125;-0.51611328125;-0.5478515625;-0.49310302734375;17.07643242224349;11.868926108030735;16.29700315732157;-0.88671875;0.07568359375;0.09130859375;-16.4375;15.625;-19.0;
1441975562281184;0.44061279296875;-0.51446533203125;-0.54730224609375;-0.49163818359375;17.11509388318121;11.879972897580432;16.32771189732412;-0.90380859375;0.07470703125;0.08837890625;-18.5;15.875;-14.8125;
1441975562312186;0.4443359375;-0.51312255859375;-0.5472412109375;-0.48980712890625;17.14429335477621;11.904609466494719;16.371997617838517;-0.9306640625;0.07958984375;0.08837890625;-19.0;15.375;-10.875;
1441975562322187;0.4476318359375;-0.511962890625;-0.547607421875;-0.487548828125;17.165395126758188;11.942289185154333;16.43001729716444;-0.94482421875;0.08056640625;0.0849609375;-18.9375;14.3125;-6.0625;
1441975562341188;0.450439453125;-0.51092529296875;-0.54827880859375;-0.4853515625;17.179935791632204;11.97891996464184;16.485931621119963;-0.96435546875;0.087890625;0.0859375;-19.5625;13.375;-2.375;
1441975562364189;0.45257568359375;-0.51025390625;-0.54888916015625;-0.4832763671875;17.188880908738952;12.020987783815297;16.5437755585899;-0.98828125;0.08203125;0.08642578125;-18.125;11.75;0.8125;
1441975562380190;0.4537353515625;-0.5101318359375;-0.549560546875;-0.4815673828125;17.189117591737638;12.063284941776459;16.596589951555494;-0.9755859375;0.06298828125;0.0830078125;-14.6875;10.1875;4.1875;
1441975562401191;0.45404052734375;-0.5107421875;-0.55010986328125;-0.48004150390625;17.182117443596404;12.116916037082127;16.65530547549078;-0.9541015625;0.06201171875;0.09765625;-9.625;8.8125;7.5625;
1441975562424193;0.4537353515625;-0.5118408203125;-0.55072021484375;-0.478515625;17.16837075955993;12.177919981332712;16.718415360224835;-0.955078125;0.07275390625;0.0986328125;-4.0625;8.125;10.25;
1441975562440193;0.453125;-0.51300048828125;-0.55157470703125;-0.476806640625;17.149324943362295;12.237876740905872;16.78065754266074;-0.966796875;0.09326171875;0.095703125;-1.1875;7.375;12.375;
1441975562470195;0.45245361328125;-0.51409912109375;-0.552734375;-0.474853515625;17.126590682210775;12.29533935408375;16.84198584228087;-0.96337890625;0.111328125;0.095703125;-0.875;6.25;14.0;
1441975562484196;0.45184326171875;-0.51495361328125;-0.55426025390625;-0.4727783203125;17.101629146996004;12.342696652067453;16.895488587623287;-0.96435546875;0.11328125;0.0888671875;-3.0625;5.5625;15.4375;
1441975562508197;0.45135498046875;-0.5155029296875;-0.555908203125;-0.47076416015625;17.077577726728872;12.378143246194552;16.938485599479336;-0.978515625;0.11279296875;0.0888671875;-5.125;4.6875;16.75;
1441975562523198;0.45068359375;-0.515869140625;-0.55767822265625;-0.46881103515625;17.051821835484777;12.40299829176343;16.971074840786105;-1.00634765625;0.08935546875;0.0869140625;-6.5625;3.125;17.9375;
1441975562544199;0.44970703125;-0.516357421875;-0.55950927734375;-0.467041015625;17.023508078543077;12.422217622560343;16.996450350322732;-1.01611328125;0.076171875;0.08251953125;-6.75;1.375;19.8125;
1441975562560200;0.4483642578125;-0.51702880859375;-0.5614013671875;-0.46533203125;16.99156030179317;12.439426640562766;17.01824088848461;-1.01806640625;0.052734375;0.0751953125;-5.375;-0.4375;22.1875;
1441975562583202;0.44647216796875;-0.51812744140625;-0.563232421875;-0.4637451171875;16.954918862635694;12.458679955781491;17.038744849510902;-1.0146484375;0.0439453125;0.0771484375;-3.375;-1.625;24.75;
1441975562604203;0.4442138671875;-0.51959228515625;-0.56500244140625;-0.46209716796875;16.914458802278475;12.48311078821451;17.062324590425337;-1.013671875;0.05322265625;0.07470703125;-0.3125;-2.5;26.9375;
1441975562620204;0.441650390625;-0.5211181640625;-0.56683349609375;-0.4605712890625;16.871447857305093;12.502007564726489;17.07914231376093;-1.0078125;0.0625;0.06787109375;1.625;-3.3125;28.4375;
1441975562643205;0.4388427734375;-0.522705078125;-0.5687255859375;-0.4591064453125;16.82614980363745;12.517372141515347;17.09154980631659;-1.0048828125;0.07421875;0.07177734375;3.0625;-4.125;29.1875;
1441975562664206;0.43603515625;-0.5242919921875;-0.5706787109375;-0.4576416015625;16.780423706313776;12.531105882101139;17.102497701514814;-1.00341796875;0.09765625;0.07470703125;3.6875;-5.0;28.875;
1441975562682207;0.43328857421875;-0.525634765625;-0.5726318359375;-0.45623779296875;16.73614375714528;12.539075738805108;17.108387443297897;-0.9951171875;0.12451171875;0.0712890625;3.375;-5.5;27.5625;
1441975562703209;0.4310302734375;-0.52667236328125;-0.57440185546875;-0.4549560546875;16.698312272155658;12.544423655459774;17.113057041661605;-0.9794921875;0.14013671875;0.0732421875;2.4375;-5.875;25.75;
1441975562724210;0.42913818359375;-0.52734375;-0.5760498046875;-0.45379638671875;16.665755422711854;12.544999024462536;17.11436183878946;-0.96337890625;0.14306640625;0.06787109375;0.9375;-5.625;22.875;
1441975562740211;0.42755126953125;-0.52783203125;-0.5775146484375;-0.45294189453125;16.638633121802997;12.541810971907061;17.111895133834192;-0.9482421875;0.1484375;0.06787109375;-0.375;-5.4375;20.0625;
1441975562763212;0.42657470703125;-0.52783203125;-0.57867431640625;-0.45233154296875;16.620775357006778;12.533769190551036;17.106157866504155;-0.93798828125;0.15283203125;0.0751953125;-0.625;-5.125;16.625;
1441975562787213;0.426025390625;-0.52764892578125;-0.5794677734375;-0.4520263671875;16.61049663098325;12.524540746589949;17.099051887070118;-0.94482421875;0.15283203125;0.0712890625;-2.0;-4.625;12.625;
1441975562800214;0.42578125;-0.527099609375;-0.580078125;-0.4521484375;16.60666150290278;12.507028601681512;17.08383177352684;-0.9521484375;0.15869140625;0.05859375;-2.375;-4.625;8.5625;
1441975562823215;0.42578125;-0.5262451171875;-0.58050537109375;-0.45263671875;16.608293630476442;12.482569035590783;17.061659492119638;-0.955078125;0.15087890625;0.05810546875;-2.8125;-5.5;5.3125;
1441975562845217;0.426025390625;-0.52520751953125;-0.58062744140625;-0.4534912109375;16.615785306059866;12.453940566364007;17.034608707926655;-0.95849609375;0.14794921875;0.064453125;-2.6875;-6.25;2.1875;
1441975562860218;0.42626953125;-0.5242919921875;-0.58038330078125;-0.45465087890625;16.62647110324463;12.425888839746651;17.005842717208996;-0.9599609375;0.1455078125;0.06982421875;-2.1875;-5.6875;-0.25;
1441975562883219;0.42669677734375;-0.5234375;-0.57952880859375;-0.45623779296875;16.644083482568014;12.398447957508678;16.97504438400635;-0.95751953125;0.14990234375;0.07373046875;0.1875;-5.375;-3.125;
1441975562907220;0.427490234375;-0.522216796875;-0.5787353515625;-0.4578857421875;16.665250526747446;12.364432945272295;16.939780720496728;-0.97021484375;0.140625;0.0654296875;2.4375;-5.25;-5.5625;
1441975562920221;0.42822265625;-0.52130126953125;-0.57763671875;-0.4595947265625;16.687280849444154;12.336013382194551;16.908001157414272;-0.9638671875;0.126953125;0.06640625;0.25;-4.8125;-7.3125;
1441975562943222;0.428466796875;-0.5208740234375;-0.57659912109375;-0.46124267578125;16.70340535040949;12.313290962706105;16.87945674509285;-0.958984375;0.12109375;0.05810546875;2.875;-4.625;-7.125;
1441975562964223;0.42877197265625;-0.52044677734375;-0.575927734375;-0.4622802734375;16.71522800241059;12.296702837763066;16.860045508007516;-0.96875;0.1591796875;0.05517578125;4.875;-5.1875;-7.125;
1441975562981224;0.43145751953125;-0.51824951171875;-0.57598876953125;-0.46209716796875;16.741096034162364;12.272537765431808;16.850644343165687;-0.97705078125;0.19189453125;0.04931640625;1.75;-4.3125;-6.3125;
1441975563003226;0.435546875;-0.51416015625;-0.5767822265625;-0.4619140625;16.77754567044599;12.212799291442401;16.81725604846344;-0.9599609375;0.12646484375;0.03759765625;-15.3125;-0.1875;-8.125;
1441975563024227;0.43865966796875;-0.51092529296875;-0.57672119140625;-0.46258544921875;16.812630447646583;12.154540189519667;16.77514136740921;-0.95849609375;0.10693359375;0.09326171875;-26.75;1.4375;-14.0625;
1441975563040228;0.4404296875;-0.50897216796875;-0.57574462890625;-0.46429443359375;16.843429608215693;12.101821533596663;16.72537634036628;-0.9619140625;0.09130859375;0.10986328125;-16.1875;1.3125;-13.625;
1441975563063229;0.44146728515625;-0.508056640625;-0.5740966796875;-0.46630859375;16.87154399669625;12.06432462935667;16.682930667946476;-0.94921875;0.09814453125;0.11865234375;-3.1875;-0.125;-13.0;
1441975563084230;0.4420166015625;-0.50799560546875;-0.572021484375;-0.4683837890625;16.897091343356347;12.043090068007672;16.65148072959748;-0.95947265625;0.11767578125;0.1123046875;4.4375;0.5625;-13.125;
1441975563100231;0.4425048828125;-0.508056640625;-0.570068359375;-0.47027587890625;16.92043281508674;12.025625965604583;16.62415677181035;-0.982421875;0.13818359375;0.08544921875;9.8125;0.375;-12.0;
1441975563123233;0.44366455078125;-0.50750732421875;-0.56866455078125;-0.47149658203125;16.944507306352317;12.005609247998844;16.6014854683208;-0.97314453125;0.13427734375;0.0634765625;9.1875;-0.8125;-11.1875;
1441975563144234;0.44439697265625;-0.5069580078125;-0.56756591796875;-0.47265625;16.96260018169178;11.981580991465885;16.574636747061067;-0.97021484375;0.134765625;0.0625;2.125;0.25;-11.0;
1441975563160235;0.4454345703125;-0.50592041015625;-0.567138671875;-0.4732666015625;16.9776134281405;11.952935127561801;16.548966312588046;-0.9765625;0.1376953125;0.05859375;2.0;-1.8125;-9.0625;
1441975563183236;0.4466552734375;-0.50457763671875;-0.5672607421875;-0.4735107421875;16.989591313184565;11.920723243265169;16.523762728251437;-0.9599609375;0.12841796875;0.0703125;-3.5625;-1.3125;-7.5;
1441975563204237;0.447509765625;-0.50323486328125;-0.56732177734375;-0.4739990234375;16.999445619731738;11.881587645000785;16.48971317438472;-0.97314453125;0.1298828125;0.07177734375;-7.375;-2.0;-6.125;
1441975563220238;0.4478759765625;-0.50274658203125;-0.56658935546875;-0.47503662109375;17.011014132062087;11.85419216330902;16.459675674691383;-0.97607421875;0.1064453125;0.095703125;-5.25;-2.25;-5.0;
1441975563244239;0.44781494140625;-0.50323486328125;-0.5655517578125;-0.47589111328125;17.0194612955659;11.854516517316002;16.452968864446177;-0.970703125;0.09130859375;0.08935546875;2.1875;-1.4375;-4.0625;
1441975563272241;0.4476318359375;-0.50396728515625;-0.564697265625;-0.47625732421875;17.02407583718649;11.869700210116937;16.462008525021208;-0.96435546875;0.11669921875;0.08056640625;7.0625;0.5625;-2.5;
1441975563280242;0.44769287109375;-0.5045166015625;-0.5643310546875;-0.47613525390625;17.026218553127283;11.888696245758627;16.478893494695303;-0.96435546875;0.134765625;0.0703125;6.0;1.0625;-1.0625;
1441975563304243;0.44818115234375;-0.50433349609375;-0.5645751953125;-0.47552490234375;17.027292934533566;11.897799113944048;16.49238550674798;-0.9736328125;0.13720703125;0.05126953125;2.0625;0.5;0.875;
1441975563324244;0.44866943359375;-0.503662109375;-0.56524658203125;-0.4749755859375;17.026083989998018;11.890498959743928;16.491930990682214;-0.974609375;0.12939453125;0.05810546875;-4.625;0.0625;1.625;
1441975563340245;0.44866943359375;-0.50335693359375;-0.565673828125;-0.47479248046875;17.022946796283865;11.88393378041138;16.48800074599078;-0.97509765625;0.11474609375;0.08251953125;-6.5625;-0.75;2.25;
1441975563363246;0.44830322265625;-0.5040283203125;-0.5654296875;-0.4747314453125;17.020560900501593;11.90188449676175;16.50244234855009;-0.978515625;0.11083984375;0.0986328125;-2.625;-0.875;3.0;
1441975563387248;0.44793701171875;-0.5048828125;-0.56512451171875;-0.47454833984375;17.018006246724703;11.927286363394153;16.52398410297079;-0.974609375;0.11083984375;0.0810546875;3.875;0.8125;4.375;
1441975563401248;0.44757080078125;-0.50555419921875;-0.56512451171875;-0.47412109375;17.01282546733744;11.95104019232856;16.545989122206137;-0.9794921875;0.12451171875;0.08203125;4.0625;1.875;4.625;
1441975563423250;0.44744873046875;-0.50579833984375;-0.56549072265625;-0.47357177734375;17.007323985429583;11.965242340478001;16.561773487607034;-0.97509765625;0.12646484375;0.08251953125;2.0625;1.6875;5.3125;
1441975563445251;0.44708251953125;-0.50604248046875;-0.5660400390625;-0.4730224609375;16.998442540121555;11.97670436846105;16.57464533324152;-0.98046875;0.1220703125;0.08544921875;-1.0625;0.8125;5.625;
1441975563462252;0.44677734375;-0.50634765625;-0.5665283203125;-0.47235107421875;16.99005903680338;11.99268152857742;16.5922110172379;-0.96923828125;0.12353515625;0.0888671875;-1.3125;-0.25;6.3125;
1441975563483253;0.44635009765625;-0.50689697265625;-0.5670166015625;-0.4715576171875;16.979866239021383;12.01597279824724;16.61638902148736;-0.96240234375;0.11767578125;0.09228515625;-0.9375;0.9375;7.3125;
1441975563512255;0.4464111328125;-0.50689697265625;-0.56793212890625;-0.470458984375;16.970692015790412;12.031371073594084;16.637761278760415;-0.9775390625;0.1328125;0.07861328125;-0.4375;0.3125;7.875;
1441975563519255;0.44647216796875;-0.50640869140625;-0.5692138671875;-0.4693603515625;16.95974345587952;12.032380894537761;16.647209945489337;-0.978515625;0.125;0.07421875;-5.6875;0.25;7.9375;
1441975563542257;0.44622802734375;-0.50616455078125;-0.57037353515625;-0.4683837890625;16.947052682578285;12.035824061138198;16.65681515336708;-0.97216796875;0.1259765625;0.09716796875;-8.125;-0.375;7.5625;
1441975563564258;0.44677734375;-0.5050048828125;-0.572265625;-0.466796875;16.935584878119066;12.028741837387306;16.664674796442785;-0.97021484375;0.12158203125;0.0859375;-5.9375;-1.9375;8.75;
1441975563581259;0.44769287109375;-0.5032958984375;-0.5743408203125;-0.46527099609375;16.92701101740442;12.00866680410778;16.662524160221334;-0.96142578125;0.1318359375;0.083984375;-14.5;-1.75;7.375;
1441975563602260;0.44842529296875;-0.502197265625;-0.575439453125;-0.4644775390625;16.92490749449816;11.994713611684082;16.659284122639146;-0.95556640625;0.109375;0.12353515625;-17.3125;-0.25;6.6875;
1441975563624261;0.4482421875;-0.502197265625;-0.57562255859375;-0.46429443359375;16.921559403681027;11.995979102425272;16.661091408807206;-0.96435546875;0.0927734375;0.1259765625;-10.0625;1.25;5.3125;
1441975563648263;0.44757080078125;-0.5028076171875;-0.5755615234375;-0.46441650390625;16.91569202454642;12.004387417396952;16.665286335400506;-0.9638671875;0.11279296875;0.11328125;0.0;0.875;4.6875;
1441975563662263;0.447021484375;-0.50347900390625;-0.575439453125;-0.46429443359375;16.910455446197442;12.019735441899545;16.677132718213322;-0.96728515625;0.13720703125;0.09228515625;4.5;-0.6875;4.75;
1441975563686265;0.4468994140625;-0.50372314453125;-0.57550048828125;-0.46417236328125;16.908208608528206;12.026321394006368;16.68318712602967;-0.95849609375;0.15185546875;0.0751953125;3.625;-0.625;3.75;
1441975563701266;0.44720458984375;-0.50335693359375;-0.5758056640625;-0.4638671875;16.90833931557082;12.023233112858644;16.683790749231154;-0.955078125;0.15234375;0.076171875;0.3125;-0.5;2.125;
1441975563722267;0.4476318359375;-0.50286865234375;-0.5758056640625;-0.46392822265625;16.912942617363807;12.01345623942845;16.67647186616228;-0.958984375;0.15625;0.083984375;-3.75;-0.375;0.125;
1441975563746268;0.44879150390625;-0.5015869140625;-0.5758056640625;-0.46417236328125;16.92553328173455;11.986006616494192;16.655332132634985;-0.96728515625;0.14892578125;0.0830078125;-2.6875;-0.875;-1.9375;
1441975563761269;0.44989013671875;-0.5006103515625;-0.57550048828125;-0.46466064453125;16.939887704287546;11.96206388832312;16.635049305655315;-0.95947265625;0.11865234375;0.0869140625;-6.3125;-0.5625;-4.6875;
1441975563782270;0.450439453125;-0.5001220703125;-0.57470703125;-0.465576171875;16.95347543225581;11.941266567868324;16.61230559931263;-0.96142578125;0.1220703125;0.11572265625;-3.6875;2.0625;-6.0;
1441975563804272;0.4501953125;-0.5008544921875;-0.573974609375;-0.4659423828125;16.95650449935173;11.955027824425558;16.620089541919736;-0.97607421875;0.12158203125;0.111328125;1.875;1.375;-5.6875;
1441975563820272;0.45050048828125;-0.5010986328125;-0.573974609375;-0.4654541015625;16.957290748547475;11.971800972712488;16.638437075973584;-0.97412109375;0.16259765625;0.076171875;5.75;0.625;-1.1875;
1441975563842274;0.45220947265625;-0.500732421875;-0.57403564453125;-0.46405029296875;16.967732414091206;11.999451138600383;16.67626525612609;-0.962890625;0.16162109375;0.0703125;-1.5;1.9375;0.5;
1441975563864275;0.45440673828125;-0.49908447265625;-0.57470703125;-0.46282958984375;16.98061243848544;11.991907630168845;16.685214751694197;-0.96337890625;0.12451171875;0.0517578125;-9.75;5.75;1.0;
1441975563881276;0.45574951171875;-0.49652099609375;-0.57550048828125;-0.46319580078125;16.99149844099174;11.924676516153891;16.63044531251877;-0.978515625;0.1220703125;0.06494140625;-16.5625;3.0;-2.75;
1441975563903277;0.4561767578125;-0.4951171875;-0.57525634765625;-0.464599609375;17.002680824092337;11.865578390410985;16.571854489763545;-0.98388671875;0.078125;0.111328125;-12.5;-4.125;-4.9375;
1441975563924278;0.45526123046875;-0.4959716796875;-0.57403564453125;-0.46612548828125;17.00644471775883;11.858639189313719;16.551910789245944;-0.95849609375;0.080078125;0.138671875;-0.6875;-2.375;-5.9375;
1441975563940279;0.4547119140625;-0.49737548828125;-0.572998046875;-0.4664306640625;17.008066518525553;11.891135249975886;16.574922999906295;-0.97607421875;0.1220703125;0.11083984375;13.0;-0.5;-1.8125;
1441975563962281;0.4547119140625;-0.49810791015625;-0.5723876953125;-0.4664306640625;17.011351327969756;11.913359097964133;16.59327656800839;-0.96435546875;0.15380859375;0.06689453125;9.75;2.0;0.5;
1441975563985282;0.4549560546875;-0.49853515625;-0.57171630859375;-0.466552734375;17.01788326299085;11.927372867631407;16.604472824935453;-0.98046875;0.1533203125;0.0712890625;3.6875;2.25;-0.3125;
1441975564000283;0.4561767578125;-0.49798583984375;-0.571533203125;-0.46624755859375;17.02945196358066;11.927904502563997;16.610425194124133;-0.9677734375;0.14453125;0.05908203125;2.4375;1.5;-2.0625;
1441975564024284;0.45721435546875;-0.496826171875;-0.57183837890625;-0.46600341796875;17.037111867535174;11.90733986589694;16.597758224456577;-0.96044921875;0.1240234375;0.0654296875;-5.3125;2.5;-3.375;
1441975564052286;0.45794677734375;-0.49609375;-0.57171630859375;-0.4661865234375;17.045727088000326;11.88954937123503;16.583293793038962;-0.9697265625;0.12158203125;0.0927734375;-8.0625;0.5625;-3.0;
1441975564060286;0.45782470703125;-0.4964599609375;-0.571044921875;-0.46673583984375;17.050423727925647;11.891094167166688;16.57991682187834;-0.96435546875;0.0927734375;0.10009765625;-2.8125;1.0625;-2.0;
1441975564082287;0.457763671875;-0.49700927734375;-0.57037353515625;-0.46710205078125;17.05487271507059;11.901635319653934;16.58570625374196;-0.982421875;0.1162109375;0.09326171875;4.8125;1.1875;-0.9375;
1441975564104289;0.45806884765625;-0.49725341796875;-0.57000732421875;-0.467041015625;17.059526150043975;11.913537538160615;16.596895834095108;-0.9814453125;0.13330078125;0.0830078125;4.8125;1.6875;-0.75;
1441975564128290;0.45867919921875;-0.49688720703125;-0.56988525390625;-0.4669189453125;17.065764800827285;11.91101914234257;16.597182877451193;-0.98046875;0.13134765625;0.07666015625;0.75;2.3125;-0.875;
1441975564142291;0.4593505859375;-0.49658203125;-0.56964111328125;-0.46685791015625;17.073457281597175;11.909944813478454;16.598382133718697;-0.96875;0.1171875;0.09375;-2.6875;2.375;-1.3125;
1441975564164292;0.45977783203125;-0.49639892578125;-0.56927490234375;-0.467041015625;17.080442771268086;11.906142246933765;16.5947491207321;-0.96435546875;0.1123046875;0.0849609375;-1.8125;2.3125;-1.8125;
1441975564187293;0.4599609375;-0.49627685546875;-0.56884765625;-0.46759033203125;17.086673636733103;11.89463792864005;16.581299102622193;-0.9638671875;0.1142578125;0.09716796875;0.0;2.0625;-1.9375;
1441975564202294;0.45941162109375;-0.49658203125;-0.56817626953125;-0.4686279296875;17.089135925185943;11.881050527644783;16.56033742964417;-0.9697265625;0.1103515625;0.095703125;2.0;0.875;-2.3125;
1441975564224296;0.4580078125;-0.49737548828125;-0.5673828125;-0.4700927734375;17.08565470221105;11.867065818450444;16.533548901330075;-0.97998046875;0.11376953125;0.09033203125;7.0;-1.875;-1.625;
1441975564248297;0.456787109375;-0.49847412109375;-0.56634521484375;-0.47137451171875;17.08457258272925;11.868098935348709;16.521246587243315;-0.96044921875;0.1298828125;0.0869140625;12.4375;-4.25;-1.0;
1441975564262298;0.45635986328125;-0.4990234375;-0.565673828125;-0.471923828125;17.08646040828183;11.872746382952418;16.51958149198053;-0.9619140625;0.12939453125;0.06201171875;12.875;-3.375;-0.625;
1441975564285299;0.45654296875;-0.49908447265625;-0.56549072265625;-0.47198486328125;17.089385306506905;11.875174787591718;16.52165022146948;-0.96826171875;0.13427734375;0.05712890625;6.25;-1.625;-1.0625;
1441975564307300;0.45703125;-0.49859619140625;-0.56561279296875;-0.47186279296875;17.092981537265423;11.866581579324404;16.516563823079444;-0.97314453125;0.14013671875;0.06591796875;0.0625;-0.4375;-1.75;
1441975564322301;0.45751953125;-0.498046875;-0.565673828125;-0.47186279296875;17.097399676847232;11.85390138085301;16.50703965747741;-0.97216796875;0.12646484375;0.07275390625;-3.6875;-0.25;-1.75;
1441975564344302;0.4576416015625;-0.49786376953125;-0.56549072265625;-0.47222900390625;17.10088382789737;11.842315056828525;16.49474266954828;-0.9765625;0.11181640625;0.07861328125;-3.1875;-0.375;-1.5625;
1441975564367304;0.45684814453125;-0.49835205078125;-0.56512451171875;-0.47296142578125;17.097977846465568;11.83707271351746;16.482658058569456;-0.96923828125;0.1083984375;0.08837890625;0.8125;-0.375;-1.0625;
1441975564382305;0.4564208984375;-0.49908447265625;-0.5645751953125;-0.47320556640625;17.09800624794483;11.852842327236264;16.492817021125052;-0.96875;0.13037109375;0.08837890625;6.5;-2.1875;-0.0625;
1441975564404306;0.456787109375;-0.499267578125;-0.56451416015625;-0.47271728515625;17.100086732178063;11.871392515941258;16.513120567667713;-0.955078125;0.1240234375;0.0615234375;5.5;-0.0625;0.8125;
1441975564427307;0.45751953125;-0.49884033203125;-0.56500244140625;-0.47186279296875;17.101168606915156;11.880030428239776;16.528951523945558;-0.96484375;0.1396484375;0.06396484375;-1.8125;2.0;0.25;
1441975564442308;0.45831298828125;-0.49798583984375;-0.56561279296875;-0.47125244140625;17.103088947212054;11.870928118939224;16.528094158199472;-0.958984375;0.13525390625;0.07177734375;-7.125;1.4375;0.25;
1441975564464309;0.4588623046875;-0.49749755859375;-0.56597900390625;-0.4708251953125;17.104666215579886;11.867910192041052;16.530335713839893;-0.96142578125;0.11376953125;0.0849609375;-8.0625;0.875;0.0625;
1441975564487311;0.45928955078125;-0.49737548828125;-0.56610107421875;-0.47039794921875;17.106471732133116;11.875950698064852;16.541531778533155;-0.96044921875;0.1171875;0.09033203125;-5.25;1.3125;0.1875;
1441975564509312;0.45965576171875;-0.497314453125;-0.566162109375;-0.469970703125;17.108115382088716;11.885830733232293;16.55404651744034;-0.962890625;0.12158203125;0.0869140625;-2.875;2.25;0.5625;
1441975564524313;0.4598388671875;-0.49737548828125;-0.5662841796875;-0.46966552734375;17.107886683905424;11.894678214334691;16.564466549738906;-0.96875;0.11962890625;0.0810546875;-2.5625;2.1875;0.9375;
1441975564540314;0.46002197265625;-0.49737548828125;-0.5665283203125;-0.46917724609375;17.10639320923157;11.905247841552404;16.577670895368524;-0.9755859375;0.119140625;0.07958984375;-1.375;1.125;1.5625;
1441975564563315;0.460205078125;-0.497314453125;-0.56689453125;-0.46856689453125;17.10378116014676;11.91604224784718;16.591981986682597;-0.96728515625;0.12060546875;0.07373046875;-2.4375;0.6875;2.0625;
1441975564584316;0.4605712890625;-0.49713134765625;-0.5673828125;-0.46783447265625;17.101662898117453;11.926395340261738;16.6074242737888;-0.96142578125;0.13330078125;0.072265625;-3.625;0.8125;2.1875;
1441975564600317;0.4609375;-0.49676513671875;-0.5679931640625;-0.46710205078125;17.098950664622954;11.930851799882655;16.617852144409582;-0.97265625;0.13720703125;0.0771484375;-4.875;1.0;1.75;
1441975564631319;0.46136474609375;-0.496337890625;-0.56842041015625;-0.466552734375;17.09865922203021;11.931249306721867;16.62352019842187;-0.97607421875;0.1435546875;0.080078125;-5.9375;0.875;1.125;
1441975564644320;0.46185302734375;-0.4959716796875;-0.56866455078125;-0.46624755859375;17.100740149755154;11.929407947302224;16.625704588661048;-0.97412109375;0.134765625;0.08642578125;-5.1875;1.0;0.1875;
1441975564667321;0.46209716796875;-0.4957275390625;-0.56878662109375;-0.466064453125;17.1018071541408;11.92759103447527;16.626172417320277;-0.97802734375;0.123046875;0.080078125;-4.0625;0.9375;-0.125;
1441975564683322;0.46221923828125;-0.495849609375;-0.56866455078125;-0.46600341796875;17.103335269142327;11.933948003366677;16.632348029142122;-0.96826171875;0.12451171875;0.09033203125;-2.125;0.75;0.0;
1441975564712323;0.462158203125;-0.496337890625;-0.568603515625;-0.4656982421875;17.101606244862307;11.954148640237232;16.651666217371876;-0.95751953125;0.1181640625;0.08203125;0.1875;1.75;0.5625;
1441975564727324;0.4620361328125;-0.49676513671875;-0.5687255859375;-0.465087890625;17.09728193729785;11.97780523212575;16.67586682065055;-0.95263671875;0.13671875;0.08447265625;1.25;2.5625;1.75;
1441975564743325;0.462158203125;-0.496826171875;-0.56927490234375;-0.4642333984375;17.091816049280197;11.995040356314375;16.69732120940633;-0.94580078125;0.1455078125;0.0791015625;-0.5;2.25;2.5;
1441975564766327;0.46246337890625;-0.496826171875;-0.57012939453125;-0.4630126953125;17.08467611730678;12.01720647411165;16.726329862538304;-0.9365234375;0.15625;0.0810546875;-3.9375;1.9375;2.3125;
1441975564787328;0.4630126953125;-0.49664306640625;-0.571044921875;-0.46148681640625;17.078498556479463;12.04217371744992;16.760438020115227;-0.93798828125;0.1748046875;0.08154296875;-6.75;2.5625;2.25;
1441975564803329;0.4637451171875;-0.49639892578125;-0.57208251953125;-0.45965576171875;17.072046748053154;12.072060286207755;16.801401745887745;-0.9482421875;0.173828125;0.07861328125;-8.75;3.5;2.625;
1441975564824330;0.46466064453125;-0.4959716796875;-0.573486328125;-0.45751953125;17.063785081466357;12.101313845943718;16.84470644285132;-0.96044921875;0.18359375;0.07666015625;-11.0;4.375;2.9375;
1441975564847331;0.46563720703125;-0.49517822265625;-0.5750732421875;-0.45538330078125;17.055427692473636;12.119549008605238;16.878761643584756;-0.96923828125;0.1806640625;0.07666015625;-13.6875;4.25;3.75;
1441975564863332;0.46636962890625;-0.49456787109375;-0.57666015625;-0.4532470703125;17.044597318840207;12.140025370672777;16.91384154657408;-0.9697265625;0.158203125;0.07958984375;-15.3125;3.5;5.375;
1441975564884333;0.46685791015625;-0.4942626953125;-0.57818603515625;-0.45111083984375;17.0314033326577;12.166005627318325;16.952675526745214;-0.978515625;0.16064453125;0.08447265625;-14.3125;2.875;6.25;
1441975564907335;0.467041015625;-0.49456787109375;-0.5797119140625;-0.4486083984375;17.012812035774804;12.210570418424876;17.008528498234114;-0.96875;0.16357421875;0.08349609375;-12.0625;3.5625;7.75;
1441975564931336;0.46728515625;-0.4949951171875;-0.58148193359375;-0.44561767578125;16.990617614085977;12.26356299147372;17.074749931764224;-0.95703125;0.1865234375;0.08740234375;-10.875;5.3125;9.8125;
1441975564944337;0.46746826171875;-0.49517822265625;-0.58367919921875;-0.44232177734375;16.964156204806596;12.309338414473743;17.136417254557152;-0.93505859375;0.1845703125;0.08056640625;-12.25;6.4375;12.75;
1441975564967338;0.46746826171875;-0.4957275390625;-0.58587646484375;-0.43878173828125;16.933857886654554;12.363154100140486;17.20526554820688;-0.92578125;0.19873046875;0.091796875;-14.875;6.25;13.4375;
1441975564983339;0.4671630859375;-0.49676513671875;-0.58782958984375;-0.435302734375;16.90107202473811;12.422620416518003;17.27661609680477;-0.91064453125;0.20947265625;0.080078125;-14.0;6.375;15.3125;
1441975565004340;0.46624755859375;-0.49871826171875;-0.58966064453125;-0.431640625;16.860028799296437;12.49541209556659;17.357089979044524;-0.88232421875;0.220703125;0.0712890625;-10.75;6.8125;16.125;
1441975565027341;0.4656982421875;-0.50103759765625;-0.591552734375;-0.42694091796875;16.814566813835754;12.588086031836692;17.460653746334717;-0.873046875;0.27587890625;0.078125;-6.6875;8.5625;16.8125;
1441975565044342;0.46624755859375;-0.5020751953125;-0.59381103515625;-0.421875;16.776774352834472;12.661670592403594;17.554120325821618;-0.87890625;0.3466796875;0.03857421875;-9.75;10.8125;16.5;
1441975565064344;0.46685791015625;-0.50274658203125;-0.59613037109375;-0.4171142578125;16.74106588008162;12.719628922907575;17.632489384639836;-0.87109375;0.30615234375;0.0166015625;-19.0;10.375;15.0625;
1441975565087345;0.4666748046875;-0.50433349609375;-0.5977783203125;-0.41302490234375;16.70270854300652;12.78054470534812;17.705029150289306;-0.84326171875;0.255859375;0.0341796875;-19.0625;10.0625;16.8125;
1441975565109346;0.46539306640625;-0.5072021484375;-0.59942626953125;-0.4085693359375;16.648506486520613;12.852254866167225;17.78261869596381;-0.82373046875;0.2255859375;0.04150390625;-10.1875;9.6875;19.6875;
1441975565125347;0.464111328125;-0.510498046875;-0.60150146484375;-0.4027099609375;16.58140043710786;12.935574955406445;17.8759860553737;-0.79052734375;0.283203125;0.02587890625;-4.375;10.1875;23.8125;
1441975565147348;0.4637451171875;-0.5126953125;-0.60455322265625;-0.3958740234375;16.51342859254158;13.003067561211148;17.96500842665398;-0.77783203125;0.3505859375;0.0029296875;-8.6875;12.0625;26.5625;
1441975565163349;0.46337890625;-0.51361083984375;-0.608154296875;-0.38946533203125;16.449986724458224;13.036852087581478;0.02447070749418418;-0.7783203125;0.3310546875;-0.04541015625;-20.4375;10.125;29.0;
1441975565184350;0.46173095703125;-0.51580810546875;-0.6112060546875;-0.38372802734375;16.378384281173965;13.072033584239717;0.0744314434276475;-0.73486328125;0.22607421875;-0.0234375;-24.75;6.25;32.0625;
1441975565207352;0.45904541015625;-0.52056884765625;-0.61273193359375;-0.37799072265625;16.295079898723127;13.141429764296836;0.1438411610086176;-0.705078125;0.232421875;0.0322265625;-13.0;8.0;35.5;
1441975565226353;0.45654296875;-0.52587890625;-0.6136474609375;-0.37225341796875;16.212398479088122;13.218140021444084;0.21771299411299475;-0.7275390625;0.318359375;0.0166015625;2.5;13.25;37.375;
1441975565245354;0.45440673828125;-0.52996826171875;-0.61505126953125;-0.36663818359375;16.135541992241947;13.27252748486724;0.27496604486506576;-0.7900390625;0.36865234375;-0.02734375;4.75;14.0;35.75;
1441975565267355;0.45220947265625;-0.53326416015625;-0.61688232421875;-0.3614501953125;16.062471978995493;13.307073672887586;0.3145044161075112;-0.78857421875;0.3359375;-0.03759765625;-1.375;10.1875;35.125;
1441975565283356;0.44970703125;-0.53753662109375;-0.61773681640625;-0.356689453125;15.98944220621977;13.352892254789753;0.357511954779872;-0.734375;0.28857421875;-0.00439453125;-3.5625;8.9375;35.4375;
1441975565304357;0.4471435546875;-0.54376220703125;-0.61663818359375;-0.3524169921875;15.917363591295423;13.428882402898179;0.4176479169251491;-0.6904296875;0.28564453125;0.03125;5.75;13.4375;34.75;
1441975565327359;0.44512939453125;-0.5499267578125;-0.6148681640625;-0.34844970703125;15.852830341575809;13.508448743860761;0.48023137974533053;-0.701171875;0.33447265625;-4.8828125E-4;19.3125;19.125;32.25;
1441975565343360;0.44293212890625;-0.5552978515625;-0.61383056640625;-0.3446044921875;15.788167766408947;13.568511129569004;0.5268551188829721;-0.72998046875;0.33984375;-0.04345703125;20.1875;19.25;29.3125;
1441975565366361;0.44036865234375;-0.56024169921875;-0.6129150390625;-0.34149169921875;15.72768569517967;13.615078980910443;0.5583416927202659;-0.70751953125;0.3056640625;-0.0556640625;15.5;14.625;30.6875;
1441975565387362;0.43731689453125;-0.56549072265625;-0.6116943359375;-0.33892822265625;15.667410354297283;13.659122548197416;0.5824520976952348;-0.63671875;0.2275390625;-0.04443359375;16.5625;10.9375;32.4375;
1441975565403363;0.43377685546875;-0.57159423828125;-0.6097412109375;-0.336669921875;15.604269033845462;13.710086006136594;0.6064985132515938;-0.59814453125;0.20263671875;-0.02490234375;21.125;10.125;33.125;
1441975565427364;0.42999267578125;-0.577880859375;-0.607421875;-0.3350830078125;15.544675348994533;13.759540380191632;0.6246410758275364;-0.5654296875;0.21337890625;-0.03564453125;28.5625;10.5625;33.0625;
1441975565447365;0.4251708984375;-0.58465576171875;-0.60467529296875;-0.3343505859375;15.484038398466529;13.804947027134343;0.6304627290673961;-0.5458984375;0.1962890625;-0.03466796875;32.5625;8.875;32.3125;
1441975565463366;0.41961669921875;-0.59210205078125;-0.6016845703125;-0.333740234375;15.417219367328997;13.851045809055382;0.6317144522501147;-0.54345703125;0.2041015625;-0.03515625;39.5;5.0;33.125;
1441975565493368;0.414306640625;-0.59954833984375;-0.5985107421875;-0.33282470703125;15.350038970852678;13.900110130845869;0.6369247856883934;-0.54248046875;0.2255859375;-0.0341796875;44.8125;3.9375;35.3125;
1441975565507369;0.410400390625;-0.60504150390625;-0.59637451171875;-0.33160400390625;15.295623644511988;13.935619898979029;0.6422851979498857;-0.56005859375;0.2548828125;-0.06103515625;43.4375;5.375;34.25;
1441975565523370;0.40667724609375;-0.6097412109375;-0.59423828125;-0.331298828125;15.253542994603473;13.963472864098883;0.6400745512076584;-0.58642578125;0.240234375;-0.05908203125;30.125;5.5;29.9375;
1441975565553372;0.4024658203125;-0.6153564453125;-0.5906982421875;-0.3323974609375;15.21911707440158;14.001337540728134;0.6353635927626351;-0.61474609375;0.23046875;-0.0380859375;29.875;3.0625;26.125;
1441975565567372;0.3978271484375;-0.6217041015625;-0.58642578125;-0.33380126953125;15.18304502265469;14.046151373496365;0.6310585088120384;-0.6484375;0.25439453125;-0.03369140625;42.375;2.1875;22.625;
1441975565583373;0.39501953125;-0.62744140625;-0.581787109375;-0.33447265625;15.155753195115455;14.102118589586278;0.6461303489091696;-0.67578125;0.2939453125;-0.033203125;49.1875;3.625;21.625;
1441975565606375;0.39337158203125;-0.63226318359375;-0.5770263671875;-0.33563232421875;15.143725010740388;14.158144771105476;0.6655419611890677;-0.71337890625;0.2978515625;-0.0576171875;42.875;10.9375;16.6875;
1441975565627376;0.3922119140625;-0.63555908203125;-0.57269287109375;-0.33807373046875;15.151397968280573;14.200662828893;0.6748662824749114;-0.85302734375;0.361328125;-0.09375;38.6875;10.9375;9.5;
1441975565643377;0.390869140625;-0.6385498046875;-0.56829833984375;-0.3414306640625;15.167212167733835;14.238537892905308;0.6770443591120904;-1.0;0.39599609375;-0.07861328125;34.9375;6.6875;3.375;
1441975565666378;0.38983154296875;-0.64227294921875;-0.562744140625;-0.3448486328125;15.18420513826153;14.292401642977794;0.6903689713256929;-1.06640625;0.38232421875;-0.0673828125;37.125;4.0625;2.6875;
1441975565687379;0.388916015625;-0.64581298828125;-0.5577392578125;-0.347412109375;15.194142595801653;14.343788491092905;0.7062675380973861;-1.02880859375;0.294921875;-0.1123046875;41.0625;5.8125;4.9375;
1441975565703380;0.38861083984375;-0.64910888671875;-0.55279541015625;-0.34942626953125;15.203554652501772;14.398508239725043;0.729827913692529;-0.99853515625;0.31982421875;-0.111328125;36.9375;8.5625;4.6875;
1441975565726381;0.38836669921875;-0.65167236328125;-0.54840087890625;-0.3519287109375;15.219677028187633;14.443739279248557;0.7464693420914188;-1.076171875;0.4345703125;-0.13623046875;34.0;11.4375;-0.8125;
1441975565747383;0.38873291015625;-0.65252685546875;-0.54510498046875;-0.35498046875;15.25011565538394;14.472477145256786;0.7551575642385491;-1.1240234375;0.4287109375;-0.1962890625;28.9375;4.625;-2.125;
1441975565763384;0.38800048828125;-0.656005859375;-0.539306640625;-0.3582763671875;15.268222936743989;14.531260796200723;0.7747710943454009;-1.07373046875;0.3115234375;-0.15869140625;19.4375;0.5625;-2.125;
1441975565786385;0.38623046875;-0.66217041015625;-0.53106689453125;-0.361083984375;15.266985142642078;14.621781817508225;0.809248624377289;-1.08935546875;0.32666015625;-0.1611328125;40.25;7.5;0.8125;
1441975565807386;0.3848876953125;-0.6666259765625;-0.52520751953125;-0.3629150390625;15.263282059891928;14.686307029424073;0.8339157589916169;-1.1494140625;0.44189453125;-0.25048828125;58.0625;13.375;1.6875;
1441975565823387;0.38458251953125;-0.6685791015625;-0.521240234375;-0.3653564453125;15.279661496474295;14.725915457752485;0.848049965279317;-1.1357421875;0.4951171875;-0.24267578125;41.6875;10.625;0.0625;
1441975565846388;0.38336181640625;-0.67193603515625;-0.51593017578125;-0.367919921875;15.28734101840306;14.779301454611959;0.8647038823526687;-1.20263671875;0.4208984375;-0.15869140625;28.0;8.6875;-1.5625;
1441975565867390;0.38385009765625;-0.67425537109375;-0.51202392578125;-0.36871337890625;15.290144102098782;14.829033993122822;0.8951776307644217;-1.25732421875;0.4287109375;-0.2265625;38.0;8.3125;2.9375;
1441975565883390;0.3851318359375;-0.6763916015625;-0.5089111328125;-0.3677978515625;15.280539481071104;14.878675694780958;0.9357147128041912;-1.2509765625;0.44189453125;-0.22314453125;22.3125;15.9375;0.75;
1441975565906392;0.38702392578125;-0.6771240234375;-0.5076904296875;-0.3660888671875;15.271069850935199;14.908902006628187;0.970715033807324;-1.23876953125;0.4560546875;-0.271484375;12.6875;20.25;2.6875;
1441975565928393;0.3902587890625;-0.67626953125;-0.50732421875;-0.36480712890625;15.278521939317585;14.931702007140863;1.0083881080566985;-1.18798828125;0.44287109375;-0.3037109375;-2.4375;15.375;2.8125;
1441975565942394;0.39276123046875;-0.67657470703125;-0.5048828125;-0.36492919921875;15.291300919186686;14.97277430001;1.0484904733398441;-1.19873046875;0.37353515625;-0.29541015625;-13.5;13.1875;-1.0;
1441975565966395;0.394287109375;-0.67864990234375;-0.5008544921875;-0.36492919921875;15.290202718512605;15.030812275520919;1.0929832686586738;-1.2607421875;0.361328125;-0.294921875;2.75;14.375;-1.75;
1441975565987396;0.3958740234375;-0.680419921875;-0.49761962890625;-0.3643798828125;15.284510640068548;15.08090770815;1.13455325545994;-1.16357421875;0.3798828125;-0.3251953125;15.75;16.25;-1.5;
1441975566003397;0.397216796875;-0.6837158203125;-0.49285888671875;-0.3631591796875;15.263556099460573;15.150748146073541;1.1879386629907533;-1.1279296875;0.4052734375;-0.29931640625;11.5625;17.9375;-1.6875;
1441975566026399;0.39971923828125;-0.68426513671875;-0.4915771484375;-0.3612060546875;15.252442617484082;15.183946559458775;1.22880793491159;-1.107421875;0.38818359375;-0.40087890625;18.5;20.5625;1.4375;
1441975566047400;0.401611328125;-0.68475341796875;-0.491455078125;-0.35821533203125;15.228893907191587;15.202185831673676;1.2594423305363656;-1.12158203125;0.42236328125;-0.3740234375;-5.75;15.75;-2.0;
1441975566063401;0.40191650390625;-0.6885986328125;-0.488037109375;-0.35528564453125;15.182372999293264;15.253197707971232;1.2980912489269714;-1.06005859375;0.38330078125;-0.3330078125;-10.9375;16.9375;6.8125;
1441975566086402;0.4013671875;-0.69403076171875;-0.484619140625;-0.3499755859375;15.101058986571852;15.303907544894438;1.3358368689134035;-1.06298828125;0.3662109375;-0.3837890625;13.625;24.6875;15.1875;
1441975566115404;0.4024658203125;-0.69671630859375;-0.48480224609375;-0.343017578125;15.024197963694377;15.320976705205764;1.368590680324534;-1.0361328125;0.5361328125;-0.4326171875;16.25;32.1875;18.0;
1441975566123404;0.40557861328125;-0.7001953125;-0.4840087890625;-0.333251953125;14.922842141526209;15.36067215501983;1.432846361081459;-1.15478515625;0.6416015625;-0.365234375;-8.5;37.4375;14.5;
1441975566146405;0.41180419921875;-0.70538330078125;-0.48052978515625;-0.3194580078125;14.781745369992258;15.442818921266568;1.5474426717694492;-1.15625;0.6005859375;-0.36328125;-13.0;59.5625;18.0;
1441975566167407;0.41741943359375;-0.70416259765625;-0.484130859375;-0.3092041015625;14.709465759348456;15.437732219211915;1.6035484612971065;-1.2841796875;0.57666015625;-0.70556640625;-22.6875;78.5625;21.8125;
1441975566182408;0.43035888671875;-0.68902587890625;-0.5003662109375;-0.299560546875;14.750373010070861;15.326826842887632;1.6541500222005203;-1.5224609375;0.55126953125;-0.392578125;-50.875;59.875;22.25;
1441975566206409;0.4267578125;-0.691162109375;-0.5072021484375;-0.28802490234375;14.620322728831393;15.253466014246703;1.6180432472702564;-1.44140625;-0.0693359375;0.466796875;-150.4375;24.125;-21.5625;
1441975566234410;0.416259765625;-0.70477294921875;-0.50250244140625;-0.2784423828125;14.417489857964567;15.275239596189365;1.5811532124500687;-1.2861328125;0.7607421875;-0.4091796875;-38.9375;26.9375;60.8125;
1441975566249411;0.4097900390625;-0.70855712890625;-0.501220703125;-0.28076171875;14.396300884667195;15.264782005174103;1.5288130994141882;-1.0126953125;0.76025390625;-0.65673828125;48.25;28.125;85.25;
1441975566265412;0.39788818359375;-0.707763671875;-0.51214599609375;-0.28021240234375;14.352884479254364;15.119478762698591;1.38432545514573;-1.04443359375;0.98974609375;-0.4140625;41.75;-17.25;5.125;
1441975566287414;0.38397216796875;-0.71160888671875;-0.51885986328125;-0.27764892578125;14.25147607348179;15.017425146843454;1.2558945990473818;-0.8681640625;0.80224609375;0.146484375;-5.75;-30.8125;50.875;
1441975566309415;0.37384033203125;-0.70977783203125;-0.5322265625;-0.27069091796875;14.145636887425601;14.871161568944487;1.1453135058885493;-0.9306640625;0.806640625;-0.0693359375;15.375;-23.25;72.9375;
1441975566325416;0.36407470703125;-0.706298828125;-0.54791259765625;-0.26165771484375;14.022088080628839;14.712126605824265;1.041597353795475;-1.26025390625;0.88671875;-0.17724609375;-48.25;-18.0625;79.3125;
1441975566348417;0.35107421875;-0.70709228515625;-0.5589599609375;-0.2537841796875;13.87043286952094;14.596029503812984;0.9403656509396039;-1.16650390625;0.8046875;-0.1748046875;-71.1875;-19.6875;88.5625;
1441975566369418;0.33868408203125;-0.7060546875;-0.56793212890625;-0.2535400390625;13.796094813072774;14.487945127114575;0.8253359457421454;-0.90380859375;0.783203125;-0.25537109375;-36.5625;-28.6875;92.8125;
1441975566385419;0.3238525390625;-0.703125;-0.57965087890625;-0.254638671875;13.717675929511435;14.348557846806564;0.6815746498776043;-0.88623046875;0.5576171875;-0.27001953125;-25.3125;-58.125;72.1875;
1441975566408420;0.304931640625;-0.70538330078125;-0.58624267578125;-0.25653076171875;13.60054602507141;14.255469272204838;0.5368546680771583;-0.88037109375;0.568359375;-0.15625;-32.75;-75.4375;78.375;
1441975566429422;0.28424072265625;-0.7086181640625;-0.59112548828125;-0.2601318359375;13.480456427060687;14.175816554009735;0.38592535414014983;-0.712890625;0.44921875;-0.18798828125;8.8125;-79.875;94.875;
1441975566445423;0.26690673828125;-0.71063232421875;-0.59375;-0.2669677734375;13.413488732256697;14.113067167530629;0.24906232411609336;-0.6103515625;0.53759765625;-0.1298828125;27.5625;-87.125;87.1875;
1441975566468424;0.2523193359375;-0.71356201171875;-0.59197998046875;-0.27716064453125;13.396455822392076;14.083389253532655;0.1271711856688072;-0.68017578125;0.517578125;-0.1015625;33.8125;-85.875;62.5625;
1441975566489425;0.239990234375;-0.71795654296875;-0.58526611328125;-0.29071044921875;13.428895401479414;14.088399829556634;0.01728387610371728;-0.77734375;0.48095703125;-0.16064453125;51.625;-83.9375;41.375;
1441975566513426;0.23089599609375;-0.72137451171875;-0.57659912109375;-0.3065185546875;13.51062812769353;14.102134480643253;17.917391324922143;-0.77880859375;0.4169921875;-0.23388671875;74.0;-84.125;17.8125;
1441975566528427;0.225830078125;-0.7210693359375;-0.56939697265625;-0.32403564453125;13.64162977788721;14.093075015244251;17.819848807792575;-0.82373046875;0.43994140625;-0.2392578125;76.5625;-81.625;-7.3125;
1441975566549429;0.2257080078125;-0.7159423828125;-0.5643310546875;-0.34368896484375;13.831303339692543;14.050055146693726;17.720799614836803;-0.833984375;0.470703125;-0.2265625;54.75;-83.5625;-34.625;
1441975566565429;0.23016357421875;-0.70623779296875;-0.56048583984375;-0.36627197265625;14.083413714133476;13.97133968475195;17.61108709205956;-0.841796875;0.435546875;-0.2021484375;24.25;-87.6875;-63.9375;
1441975566588431;0.2373046875;-0.69427490234375;-0.55718994140625;-0.388916015625;14.355607788342706;13.87049621007873;17.496411806529867;-0.83349609375;0.32763671875;-0.1220703125;1.4375;-92.75;-93.0625;
1441975566609432;0.24774169921875;-0.68280029296875;-0.54998779296875;-0.412353515625;14.667050477834643;13.787580050169666;17.39460603674158;-0.81201171875;0.2236328125;-0.021484375;-10.3125;-88.875;-119.375;
1441975566625433;0.2601318359375;-0.673095703125;-0.537353515625;-0.43658447265625;15.013733166651395;13.738285996446422;17.308623950783787;-0.79736328125;0.142578125;0.0029296875;0.875;-75.0;-142.6875;
1441975566656435;0.27252197265625;-0.663818359375;-0.52105712890625;-0.46221923828125;15.384375325733329;13.69364029920692;17.21108097581898;-0.82568359375;0.05517578125;-0.04931640625;23.5;-61.125;-162.1875;
1441975566669435;0.2862548828125;-0.65301513671875;-0.5030517578125;-0.488525390625;15.781186520580338;13.626353105128853;17.09250587127289;-0.84765625;0.072265625;-0.0517578125;40.875;-60.125;-176.0625;
1441975566685436;0.30242919921875;-0.6396484375;-0.48480224609375;-0.5142822265625;16.199506499858767;13.510139169742313;16.94038759407125;-0.8212890625;0.1904296875;-0.1103515625;40.1875;-60.8125;-193.125;
1441975566708438;0.3206787109375;-0.62420654296875;-0.46441650390625;-0.540283203125;16.64823365669973;13.31457005825144;16.71334219881097;-0.822265625;0.2080078125;-0.1337890625;26.1875;-59.5;-207.0;
1441975566731439;0.33807373046875;-0.60858154296875;-0.4415283203125;-0.56610107421875;17.092895083215403;12.937647827891968;16.294752948004497;-0.8466796875;0.07568359375;-0.16943359375;22.3125;-57.9375;-224.125;
1441975566745440;0.3525390625;-0.59381103515625;-0.418212890625;-0.59014892578125;17.466855502057577;12.006385128925555;15.312777536729872;-0.9365234375;-0.05712890625;-0.162109375;33.375;-55.625;-227.0625;
1441975566768441;0.36712646484375;-0.5782470703125;-0.39532470703125;-0.612060546875;17.643196839927153;9.359216492015918;12.623374546110352;-0.947265625;-0.013671875;-0.14501953125;42.9375;-53.375;-214.375;
1441975566791442;0.3834228515625;-0.560546875;-0.37261962890625;-0.63250732421875;17.410161174789074;6.9549765999876;10.191233938940233;-0.8818359375;0.04248046875;-0.1337890625;35.625;-49.25;-211.6875;
1441975566805443;0.40069580078125;-0.54034423828125;-0.35003662109375;-0.65191650390625;17.005899351530747;6.169110958804824;9.388855496382456;-0.90234375;0.03564453125;-0.1630859375;20.9375;-49.25;-218.9375;
1441975566828444;0.41552734375;-0.51953125;-0.32708740234375;-0.67120361328125;16.57372753352165;5.89017114044374;9.085188747668692;-1.05224609375;-0.119140625;-0.1728515625;9.6875;-53.6875;-224.0;
1441975566849446;0.42498779296875;-0.5015869140625;-0.302490234375;-0.690185546875;16.17004534879605;5.779754676247521;8.919814255693307;-1.15185546875;-0.2900390625;-0.1025390625;19.125;-59.375;-217.625;
1441975566865447;0.43194580078125;-0.48565673828125;-0.278076171875;-0.70733642578125;15.800076651868345;5.723787864623512;8.799729986089089;-1.0888671875;-0.2333984375;-0.0615234375;49.125;-53.0625;-202.75;
1441975566888448;0.43853759765625;-0.46929931640625;-0.2550048828125;-0.72283935546875;15.442767868191876;5.695533920098255;8.714461115880123;-1.0576171875;-0.078125;-0.12939453125;57.6875;-45.6875;-190.375;
1441975566909449;0.4422607421875;-0.452392578125;-0.2310791015625;-0.73919677734375;15.082720958173658;5.708249461949575;8.655229084772317;-1.13720703125;-0.04931640625;-0.16259765625;50.875;-47.6875;-184.3125;
1441975566925450;0.44287109375;-0.43572998046875;-0.20611572265625;-0.75604248046875;14.72839468208333;5.747984643182241;8.605061220410786;-1.22021484375;0.02001953125;-0.13330078125;66.1875;-54.5625;-185.0625;
1441975566962452;0.4461669921875;-0.41796875;-0.183349609375;-0.76983642578125;14.381564730732263;5.7660170053003394;8.558300126175652;-1.16650390625;0.18310546875;-0.1728515625;83.25;-57.375;-184.75;
1441975566969453;0.45404052734375;-0.399169921875;-0.16412353515625;-0.779541015625;14.04699761150409;5.750558938044782;8.517993776793377;-1.06689453125;0.2646484375;-0.2197265625;57.375;-57.5;-182.0;
1441975566985453;0.46173095703125;-0.38177490234375;-0.146240234375;-0.7872314453125;13.739925671522727;5.731762681544753;8.47954491815352;-0.95068359375;0.212890625;-0.189453125;17.25;-55.375;-174.3125;
1441975567008455;0.46343994140625;-0.3680419921875;-0.1275634765625;-0.79595947265625;13.475607548958736;5.747641588140797;8.43948813939691;-0.85595703125;-9.765625E-4;-0.080078125;10.9375;-46.8125;-159.0625;
1441975567029456;0.4591064453125;-0.35784912109375;-0.1082763671875;-0.805908203125;13.254556971871184;5.797390176545459;8.396516872451524;-0.77685546875;0.021484375;-0.0126953125;44.4375;-34.375;-140.5;
1441975567045457;0.4541015625;-0.347412109375;-0.09112548828125;-0.81536865234375;13.048709193597109;5.853939132421976;8.366123767701314;-0.7705078125;0.18603515625;-0.0986328125;79.4375;-24.5625;-124.375;
1441975567069458;0.44769287109375;-0.3427734375;-0.08111572265625;-0.8218994140625;12.94991753912571;5.908029392349347;8.350026440446666;-0.69580078125;0.2265625;-0.220703125;78.0625;-32.25;-113.25;
1441975567089459;0.44189453125;-0.3428955078125;-0.07598876953125;-0.82550048828125;12.928900392988186;5.946300969532537;8.336798814811877;-0.630859375;0.22314453125;-0.123046875;64.5;-32.75;-89.0625;
1441975567106460;0.43865966796875;-0.34771728515625;-0.07659912109375;-0.82513427734375;12.986648971346185;5.955368036124234;8.327059215700414;-0.61767578125;0.29052734375;-0.13623046875;45.375;-17.75;-55.75;
1441975567128462;0.43536376953125;-0.354736328125;-0.08099365234375;-0.823486328125;13.089835736605064;5.962280425064694;8.328829498563644;-0.64111328125;0.30078125;-0.18408203125;15.8125;-3.875;-21.5;
1441975567149463;0.4290771484375;-0.36505126953125;-0.08819580078125;-0.821533203125;13.248873403483167;5.984757138979335;8.340161310552848;-0.59716796875;0.2421875;-0.14306640625;5.9375;2.3125;7.5;
1441975567166464;0.42401123046875;-0.3797607421875;-0.1005859375;-0.8160400390625;13.483512076519304;5.988122672967722;8.356826257723556;-0.474609375;0.41064453125;-0.1416015625;11.1875;13.3125;33.5625;
1441975567188465;0.42095947265625;-0.397216796875;-0.1182861328125;-0.806884765625;13.778017092997613;5.970863688149912;8.383341125268581;-0.5205078125;0.53369140625;-0.24951171875;-10.4375;22.8125;59.9375;
1441975567209466;0.4180908203125;-0.41351318359375;-0.13702392578125;-0.79718017578125;14.069778414704487;5.95711546205172;8.420307346024535;-0.63525390625;0.43408203125;-0.296875;-34.25;26.8125;89.4375;
1441975567225467;0.41412353515625;-0.43450927734375;-0.1590576171875;-0.78387451171875;14.437981549902382;5.933653573187721;8.453088587890587;-0.75146484375;0.5546875;-0.28271484375;-42.0;42.625;124.6875;
1441975567248468;0.4107666015625;-0.45684814453125;-0.185302734375;-0.76702880859375;14.853620214005282;5.900986696015355;8.497751036414718;-0.8212890625;0.86376953125;-0.3681640625;-50.4375;62.125;151.1875;
1441975567270470;0.40386962890625;-0.48004150390625;-0.2137451171875;-0.7489013671875;15.30720711204816;5.902587676073272;8.57080459014623;-1.05224609375;0.76025390625;-0.3447265625;-70.375;67.3125;175.3125;
1441975567285471;0.3980712890625;-0.50518798828125;-0.25140380859375;-0.7232666015625;15.858024606879846;5.910617160772966;8.697125752998888;-1.43359375;0.8798828125;-0.4033203125;-62.125;74.9375;217.125;
1441975567307472;0.38873291015625;-0.53289794921875;-0.29669189453125;-0.69061279296875;16.51626509093636;6.023724185279841;8.949529302124223;-1.9228515625;0.689453125;-0.4677734375;-107.5;84.4375;267.3125;
1441975567331473;0.36541748046875;-0.56524658203125;-0.33856201171875;-0.6575927734375;17.22016554247799;6.6928085877809576;9.685679899547473;-2.197265625;0.11865234375;-0.14453125;-126.9375;85.0;315.375;
1441975567345474;0.3245849609375;-0.6043701171875;-0.37139892578125;-0.625732421875;17.582974246559857;10.798539230903618;13.748628694691051;-2.28857421875;-0.21630859375;0.07568359375;-53.5625;93.6875;365.5625;
1441975567368475;0.28021240234375;-0.6422119140625;-0.40594482421875;-0.5867919921875;16.884912621635806;13.230599489330116;16.148077241470396;-2.376953125;-0.06591796875;0.07177734375;57.0;101.6875;403.75;
1441975567391477;0.245361328125;-0.66851806640625;-0.45562744140625;-0.5341796875;15.967628843861611;13.616937154546978;16.64050136628275;-2.57373046875;0.669921875;-0.037109375;47.6875;112.0625;432.0625;
1441975567405477;0.22747802734375;-0.67071533203125;-0.52264404296875;-0.47467041015625;15.09802706969799;13.518521238664897;16.840631481691673;-3.181640625;0.79052734375;-0.20849609375;-89.375;121.5625;461.125;
1441975567427479;0.19903564453125;-0.673828125;-0.5701904296875;-0.42584228515625;14.32037637581464;13.438785688091205;16.9360877469984;-3.1943359375;-0.0322265625;0.279296875;-280.9375;94.1875;434.0;
1441975567452480;0.15240478515625;-0.7052001953125;-0.572265625;-0.3900146484375;13.641994257236288;13.670190660069608;17.01933030740711;-2.69873046875;-0.8193359375;0.517578125;-160.3125;48.8125;390.0;
1441975567465481;0.10546875;-0.73583984375;-0.5631103515625;-0.36114501953125;13.055698107278292;13.897395740538137;17.03350016322788;-2.6025390625;-0.73486328125;-0.23095703125;167.8125;60.3125;338.5;
1441975567487482;0.0775146484375;-0.7469482421875;-0.57012939453125;-0.33331298828125;12.589289256321237;13.953775587133029;17.04815135449351;-2.30810546875;0.189453125;0.02685546875;217.3125;39.375;291.125;
1441975567510483;0.05908203125;-0.74468994140625;-0.59210205078125;-0.3023681640625;12.135052221965633;13.890452828228788;17.07827447409544;-1.96875;0.0908203125;0.349609375;47.5;46.25;229.125;
1441975567532485;0.0452880859375;-0.7354736328125;-0.6212158203125;-0.266845703125;11.66631114412091;13.775629991933876;17.137868197235925;-1.90576171875;-0.3359375;0.26708984375;-80.1875;58.0625;221.125;
