1441975931513303;0.17041015625;-0.6112060546875;-0.7724609375;-0.02728271484375;10.725383309673648;12.91145936540003;0.5009716906229126;-2.34228515625;-0.904296875;-0.61083984375;-411.0;40.0;171.5;
1441975931534304;0.16119384765625;-0.6070556640625;-0.778076171875;-0.012451171875;10.542305149380285;12.86769219156724;0.5269594142246988;-1.78076171875;-1.0390625;-0.36328125;-223.625;19.0;138.875;
1441975931550305;0.15826416015625;-0.60467529296875;-0.78057861328125;-0.0086669921875;10.492424947489514;12.845974144009118;0.5303314300367018;-1.2490234375;-0.48876953125;-0.06884765625;-50.5;0.3125;117.3125;
1441975931573307;0.1541748046875;-0.60321044921875;-0.78253173828125;-0.0076904296875;10.45106098968616;12.828733942119095;0.5175769697124213;-0.81689453125;-0.09228515625;0.16064453125;-10.75;-11.5625;79.375;
1441975931594308;0.14825439453125;-0.59814453125;-0.78753662109375;-0.0078125;10.405480849527498;12.78223730476035;0.4897920612720508;-0.58154296875;0.1171875;0.228515625;-1.1875;-21.6875;53.25;
1441975931610309;0.142333984375;-0.58837890625;-0.79595947265625;-0.0079345703125;10.364505435474875;12.702173630874174;0.45845606161178276;-0.328125;0.2265625;0.265625;-26.0;-32.5;33.5;
1441975931633310;0.13848876953125;-0.57525634765625;-0.80615234375;-0.00921630859375;10.352527253102004;12.60185589514479;0.42724626037224617;-0.2041015625;0.19287109375;0.2177734375;-62.375;-34.75;21.625;
1441975931654311;0.1380615234375;-0.56048583984375;-0.8165283203125;-0.0133056640625;10.390739386060318;12.49477674221845;0.39382401860647104;-0.3056640625;0.31494140625;0.18017578125;-88.0;-33.9375;11.5;
1441975931670312;0.13824462890625;-0.54833984375;-0.8245849609375;-0.019775390625;10.445658297562906;12.407160730842389;0.35289818446271476;-0.40576171875;0.32470703125;0.18505859375;-95.0;-30.625;-8.25;
1441975931700314;0.13690185546875;-0.5439453125;-0.8275146484375;-0.0267333984375;10.481094886634686;12.372222660212278;0.3107950991283702;-0.4208984375;0.2646484375;0.25439453125;-68.5;-33.1875;-17.9375;
1441975931714315;0.1337890625;-0.54437255859375;-0.8275146484375;-0.03277587890625;10.4897153408339;12.369359497798534;0.2713791905270172;-0.4052734375;0.37353515625;0.2763671875;-17.125;-36.75;-13.4375;
1441975931730316;0.1307373046875;-0.546630859375;-0.8262939453125;-0.03851318359375;10.49587224140262;12.37955656393407;0.23532905195090922;-0.37060546875;0.533203125;0.298828125;11.9375;-37.625;-5.0;
1441975931753317;0.12896728515625;-0.54559326171875;-0.82696533203125;-0.04388427734375;10.513903568965405;12.368403143545263;0.20238987660303306;-0.34228515625;0.74658203125;0.220703125;13.9375;-35.8125;-8.4375;
1441975931774318;0.12872314453125;-0.53924560546875;-0.83087158203125;-0.0487060546875;10.545097716870345;12.32176601532871;0.17215125061975228;-0.3212890625;0.7392578125;0.21728515625;-8.375;-30.375;-14.125;
1441975931797320;0.12957763671875;-0.53106689453125;-0.835693359375;-0.052978515625;10.583340472540934;12.263853210622798;0.1462140750265636;-0.30908203125;0.77734375;0.29443359375;-41.6875;-23.75;-20.875;
1441975931813320;0.13055419921875;-0.52490234375;-0.8392333984375;-0.05670166015625;10.617846695413315;12.22017482442352;0.12496596173366552;-0.31298828125;0.68359375;0.388671875;-46.1875;-16.0625;-21.5625;
1441975931834322;0.13153076171875;-0.5206298828125;-0.84149169921875;-0.05999755859375;10.648826888191682;12.19008333852827;0.10752228820368279;-0.33203125;0.669921875;0.4208984375;-31.875;-12.75;-17.375;
1441975931850323;0.13232421875;-0.51715087890625;-0.84326171875;-0.06317138671875;10.676792789279355;12.16534693267905;0.0907389637931703;-0.3642578125;0.72900390625;0.42138671875;-21.3125;-10.6875;-13.625;
1441975931873324;0.13409423828125;-0.51214599609375;-0.8458251953125;-0.06658935546875;10.715810116164734;12.130660040745733;0.07407211776846194;-0.34619140625;0.8115234375;0.412109375;-19.75;-10.25;-15.5625;
1441975931894325;0.13671875;-0.504638671875;-0.84954833984375;-0.070556640625;10.76673733407801;12.079525568522484;0.05443303599700149;-0.35498046875;0.83984375;0.41162109375;-31.3125;-8.0625;-20.8125;
1441975931910326;0.13946533203125;-0.496826171875;-0.85333251953125;-0.07476806640625;10.819773535746133;12.026177439101772;0.03309840457333129;-0.3779296875;0.76123046875;0.47607421875;-41.75;-6.25;-25.3125;
1441975931940328;0.14263916015625;-0.490234375;-0.856201171875;-0.07940673828125;10.878946524922728;11.981353086295105;0.011731175421462195;-0.37353515625;0.69921875;0.541015625;-38.0625;-5.625;-26.625;
1441975931954328;0.1470947265625;-0.48345947265625;-0.8587646484375;-0.0849609375;10.955843572614466;11.935888679948759;17.98876950261553;-0.40478515625;0.6904296875;0.55126953125;-29.75;-3.6875;-28.25;
1441975931970329;0.15362548828125;-0.47576904296875;-0.86126708984375;-0.091552734375;11.059126316060476;11.885247276395777;17.964741891226627;-0.44482421875;0.6865234375;0.54248046875;-30.875;-1.625;-34.9375;
1441975931994331;0.16253662109375;-0.46697998046875;-0.863525390625;-0.0994873046875;11.193798919492025;11.828394903584922;17.938178246415983;-0.5146484375;0.583984375;0.49365234375;-35.5;2.3125;-41.875;
1441975932014332;0.1732177734375;-0.458251953125;-0.86505126953125;-0.1082763671875;11.350977851259781;11.772614384046022;17.910718937377446;-0.5615234375;0.4619140625;0.47314453125;-38.1875;7.8125;-51.25;
1441975932038333;0.1861572265625;-0.44891357421875;-0.865966796875;-0.118408203125;11.538385123182675;11.713101672638453;17.879677424325994;-0.580078125;0.46826171875;0.453125;-38.375;14.4375;-62.0625;
1441975932053334;0.20166015625;-0.43896484375;-0.8660888671875;-0.1290283203125;11.755085610931323;11.650929364711804;17.84983788401725;-0.60791015625;0.4033203125;0.416015625;-40.4375;21.0625;-73.5625;
1441975932074335;0.22021484375;-0.42877197265625;-0.864990234375;-0.1396484375;12.004613242195227;11.589852950794924;17.825339704263406;-0.65625;0.39013671875;0.40380859375;-43.3125;31.3125;-83.5;
1441975932097337;0.24163818359375;-0.420654296875;-0.8614501953125;-0.150390625;12.287545879712281;11.546440758203746;17.809478525254598;-0.69189453125;0.28466796875;0.3505859375;-43.375;45.5625;-88.8125;
1441975932119338;0.265380859375;-0.41497802734375;-0.85516357421875;-0.16180419921875;12.60228904545824;11.523431631812024;17.799789973499163;-0.7744140625;0.248046875;0.25341796875;-32.8125;58.8125;-93.0;
1441975932134339;0.28692626953125;-0.412109375;-0.84735107421875;-0.1728515625;12.895394091270278;11.519971737697636;17.791899638819395;-0.8662109375;0.23974609375;0.18994140625;-17.875;70.0625;-98.8125;
1441975932157340;0.311279296875;-0.4091796875;-0.83734130859375;-0.18603515625;13.233691469964219;11.518941034188684;17.77962334857375;-0.97412109375;0.318359375;0.09326171875;-0.6875;81.25;-110.5;
1441975932173341;0.337646484375;-0.4068603515625;-0.8248291015625;-0.20037841796875;13.605680228872952;11.527484872923745;17.769377192487802;-0.98779296875;0.2490234375;-0.00830078125;4.8125;92.5625;-129.25;
1441975932194342;0.365234375;-0.40765380859375;-0.8087158203125;-0.21551513671875;14.00332772308888;11.569272482523298;17.77319845609713;-1.0634765625;0.19580078125;0.02978515625;14.25;105.0;-140.875;
1441975932210343;0.393310546875;-0.40740966796875;-0.79058837890625;-0.23321533203125;14.427654436309268;11.604723383935303;17.762876634706178;-1.1787109375;0.43359375;-0.00732421875;35.9375;119.0;-148.5625;
1441975932233344;0.419921875;-0.40625;-0.771240234375;-0.2528076171875;14.854442637827072;11.627457964312377;17.73192800782726;-1.22607421875;0.41552734375;-0.05908203125;40.375;118.0625;-166.6875;
1441975932257346;0.4443359375;-0.40570068359375;-0.75006103515625;-0.274658203125;15.279371732479698;11.643414527796905;17.676720621194498;-1.34814453125;0.35693359375;-0.06298828125;45.6875;108.8125;-174.875;
1441975932277347;0.466796875;-0.40496826171875;-0.727294921875;-0.2987060546875;15.705148514255566;11.635110181560526;17.584039860308316;-1.328125;0.4365234375;0.04052734375;62.3125;101.3125;-184.0;
1441975932293348;0.487548828125;-0.40283203125;-0.70416259765625;-0.32281494140625;16.12050114944655;11.580597174912828;17.446824963525977;-1.2783203125;0.43603515625;-0.03466796875;73.5;91.8125;-193.375;
1441975932314349;0.5062255859375;-0.40020751953125;-0.680419921875;-0.34735107421875;16.52091866075442;11.454476337599676;17.233480611501033;-1.376953125;0.34765625;-0.02880859375;72.3125;83.6875;-194.0;
1441975932345351;0.5235595703125;-0.398193359375;-0.65521240234375;-0.37164306640625;16.910169822481894;11.22748689444931;16.912698181352546;-1.35302734375;0.3408203125;0.05810546875;77.1875;77.25;-194.875;
1441975932353351;0.53973388671875;-0.3955078125;-0.6292724609375;-0.39532470703125;17.27399718900434;10.709775563286671;16.30194134870582;-1.30615234375;0.4130859375;0.11181640625;85.3125;80.0625;-194.25;
1441975932374353;0.55377197265625;-0.3924560546875;-0.603759765625;-0.4180908203125;17.544684354493363;9.392573085481843;14.89245874473984;-1.35693359375;0.31787109375;0.06982421875;84.9375;77.4375;-193.375;
1441975932397354;0.5654296875;-0.39044189453125;-0.57794189453125;-0.44036865234375;17.582868632214947;7.003628054274038;12.403291994169113;-1.48779296875;0.24609375;0.08154296875;85.0;70.625;-185.0;
1441975932413355;0.57373046875;-0.390625;-0.5511474609375;-0.463134765625;17.384335982479783;5.494934128789219;10.775157295968325;-1.416015625;0.2900390625;0.18115234375;93.625;69.25;-177.6875;
1441975932435356;0.57818603515625;-0.39263916015625;-0.52435302734375;-0.4864501953125;17.122762091887274;4.935865806244106;10.079219182121289;-1.36181640625;0.294921875;0.14208984375;112.875;65.5;-168.75;
1441975932456357;0.5799560546875;-0.39447021484375;-0.498779296875;-0.50921630859375;16.859224566242286;4.73382332620721;9.738439104986817;-1.4453125;0.33154296875;0.13525390625;130.875;57.3125;-157.5;
1441975932473358;0.58050537109375;-0.3958740234375;-0.474853515625;-0.52996826171875;16.613379849196665;4.651271284021374;9.52529743877321;-1.3193359375;0.41015625;0.103515625;132.9375;45.625;-149.1875;
1441975932495359;0.58111572265625;-0.39593505859375;-0.45318603515625;-0.54791259765625;16.385038032813448;4.614615633590805;9.376427536113528;-1.18115234375;0.44677734375;0.115234375;124.875;40.1875;-138.5;
1441975932517361;0.581787109375;-0.39501953125;-0.43499755859375;-0.56243896484375;16.18837139342988;4.601761377957597;9.273883876822808;-1.0361328125;0.48193359375;0.109375;106.5;35.0;-128.5;
1441975932534362;0.57781982421875;-0.39752197265625;-0.4232177734375;-0.57366943359375;16.09223154971493;4.643002219629769;9.229702611607891;-0.9423828125;0.38427734375;0.12451171875;84.5;28.625;-110.875;
1441975932555363;0.57257080078125;-0.40142822265625;-0.414306640625;-0.58258056640625;16.041378591023026;4.688722170780143;9.197061645356529;-0.8671875;0.349609375;0.15087890625;79.1875;21.6875;-91.375;
1441975932576364;0.56866455078125;-0.405517578125;-0.40875244140625;-0.5875244140625;16.027218001962236;4.707581225787279;9.16214877585326;-0.78271484375;0.4033203125;0.138671875;72.6875;17.8125;-70.6875;
1441975932593365;0.5670166015625;-0.40924072265625;-0.40692138671875;-0.5877685546875;16.047569244223837;4.6893210486446275;9.122255473483822;-0.74462890625;0.43212890625;0.125;47.875;18.5625;-53.75;
1441975932615366;0.56787109375;-0.41204833984375;-0.40887451171875;-0.5836181640625;16.09592200421712;4.636391461997179;9.081430616405616;-0.71240234375;0.4384765625;0.1083984375;15.6875;20.0;-36.125;
1441975932645368;0.56988525390625;-0.41412353515625;-0.4136962890625;-0.5767822265625;16.165011294955224;4.5687480365108515;9.04749467636692;-0.66845703125;0.427734375;0.09228515625;-16.8125;20.0625;-19.9375;
1441975932653368;0.57061767578125;-0.41693115234375;-0.42034912109375;-0.56915283203125;16.26020198701393;4.51142188412223;9.025572455379061;-0.6708984375;0.330078125;0.09375;-37.9375;17.8125;-2.6875;
1441975932675370;0.56866455078125;-0.4217529296875;-0.42852783203125;-0.5614013671875;16.391722076166744;4.474693080370306;9.015307666341016;-0.6826171875;0.255859375;0.095703125;-38.6875;13.3125;16.4375;
1441975932696371;0.56414794921875;-0.42852783203125;-0.43804931640625;-0.55340576171875;16.5582239983948;4.456809609182763;9.01532301352628;-0.68603515625;0.25390625;0.076171875;-28.25;7.875;35.3125;
1441975932713372;0.55767822265625;-0.4366455078125;-0.448974609375;-0.54486083984375;16.754765529921563;4.457319139465602;9.02978368940506;-0.7138671875;0.2734375;0.048828125;-18.6875;2.375;52.3125;
1441975932737373;0.5498046875;-0.44525146484375;-0.4613037109375;-0.535400390625;16.97499585252309;4.482622540599671;9.070228233949445;-0.7568359375;0.27978515625;0.01806640625;-14.1875;-3.4375;67.5625;
1441975932756374;0.54083251953125;-0.4539794921875;-0.4747314453125;-0.525390625;17.210903360225753;4.558599587205514;9.162539223280401;-0.80810546875;0.2724609375;-4.8828125E-4;-14.125;-9.3125;81.25;
1441975932773375;0.53131103515625;-0.46197509765625;-0.4874267578125;-0.5164794921875;17.432782019020785;4.750259260454993;9.365808700175107;-0.87060546875;0.21728515625;-0.005859375;-15.375;-14.3125;94.4375;
1441975932795377;0.519287109375;-0.4716796875;-0.500244140625;-0.507568359375;17.67075429059243;5.294722686078334;9.910180411132652;-0.93017578125;0.16162109375;-0.01318359375;-10.0;-18.4375;107.5625;
1441975932817378;0.5047607421875;-0.48345947265625;-0.51263427734375;-0.498779296875;17.86043397381441;8.05967014596851;12.660393451156356;-0.96044921875;0.13720703125;-0.00634765625;1.5625;-20.75;121.0;
1441975932833379;0.48779296875;-0.4971923828125;-0.52423095703125;-0.489990234375;17.699009483442598;11.77343916658246;16.344628854385647;-1.0146484375;0.1142578125;-0.02490234375;16.3125;-21.3125;133.5;
1441975932855380;0.468994140625;-0.512451171875;-0.53485107421875;-0.48101806640625;17.40844345028829;12.510860326163273;17.040625009258846;-1.056640625;0.10888671875;-0.0185546875;31.125;-20.75;144.375;
1441975932876381;0.4490966796875;-0.52880859375;-0.544677734375;-0.4713134765625;17.095321432169115;12.810534088545507;17.292293789356997;-1.09375;0.1259765625;-0.025390625;43.1875;-18.625;152.75;
1441975932894382;0.4288330078125;-0.5455322265625;-0.55377197265625;-0.4603271484375;16.772323845038443;12.998148986838697;17.43114663287433;-1.09765625;0.169921875;-0.02490234375;50.0;-15.125;159.125;
1441975932922384;0.40899658203125;-0.5618896484375;-0.5626220703125;-0.44775390625;16.444493394208653;13.135496406198776;17.525546346418874;-1.10302734375;0.22265625;-0.02978515625;50.75;-9.6875;163.4375;
1441975932937385;0.38983154296875;-0.57745361328125;-0.5714111328125;-0.43365478515625;16.114688991422014;13.241256087046095;17.596429591863117;-1.126953125;0.25048828125;-0.0263671875;45.375;-3.3125;166.4375;
1441975932952386;0.3712158203125;-0.592529296875;-0.57977294921875;-0.41839599609375;15.784813999973366;13.330489904920384;17.655505580226155;-1.1611328125;0.25341796875;-0.01513671875;37.8125;2.25;168.5625;
1441975932975387;0.3533935546875;-0.60687255859375;-0.5875244140625;-0.40216064453125;15.459333482767658;13.408269935982904;17.70820701817218;-1.16162109375;0.2587890625;-0.0146484375;33.875;7.5625;169.375;
1441975932997388;0.3369140625;-0.6201171875;-0.59478759765625;-0.385009765625;15.142996367359224;13.476348849134695;17.75924415912809;-1.14404296875;0.2783203125;-0.0146484375;29.3125;13.4375;167.8125;
1441975933012389;0.3221435546875;-0.6317138671875;-0.6019287109375;-0.3671875;14.8401828161631;13.531133804733676;17.80828989517347;-1.12353515625;0.2998046875;-0.0205078125;22.3125;19.1875;163.5;
1441975933042391;0.30963134765625;-0.6412353515625;-0.60931396484375;-0.348876953125;14.556038511142571;13.571307007411635;17.857815231551555;-1.08251953125;0.31787109375;-0.03125;12.0;24.5625;156.375;
1441975933057392;0.29962158203125;-0.648193359375;-0.61724853515625;-0.33038330078125;14.295145746805938;13.594056199040402;17.90759481751691;-1.0400390625;0.341796875;-0.05029296875;-1.75;29.0;146.8125;
1441975933072392;0.29217529296875;-0.6524658203125;-0.62579345703125;-0.31201171875;14.060604720823259;13.599816264505296;17.958286844234163;-1.00244140625;0.3583984375;-0.0712890625;-18.1875;32.1875;135.0;
1441975933095394;0.28704833984375;-0.6541748046875;-0.63494873046875;-0.29425048828125;13.854198033552025;13.589135405281418;0.008184445151917229;-0.96630859375;0.36328125;-0.0908203125;-35.0;34.4375;122.125;
1441975933117395;0.28643798828125;-0.6534423828125;-0.642333984375;-0.28009033203125;13.721998625844885;13.575884982704535;0.06123808618223924;-0.96435546875;0.33837890625;-0.11279296875;-49.75;34.875;108.75;
1441975933132396;0.28680419921875;-0.65216064453125;-0.64886474609375;-0.26739501953125;13.61283639052611;13.562187680767764;0.11194983849053271;-0.96044921875;0.28857421875;-0.1103515625;-57.3125;33.125;96.1875;
1441975933155397;0.28790283203125;-0.65087890625;-0.6541748046875;-0.256103515625;13.523622563486875;13.552877228849773;0.16161173293861975;-0.91357421875;0.26513671875;-0.10693359375;-55.3125;31.6875;84.625;
1441975933185399;0.2899169921875;-0.6497802734375;-0.658203125;-0.2462158203125;13.455043428788091;13.549895586293989;0.21179924526975405;-0.86181640625;0.26171875;-0.1083984375;-49.875;31.25;73.25;
1441975933192399;0.29290771484375;-0.64874267578125;-0.660888671875;-0.2379150390625;13.4092808089341;13.552990092779233;0.2619090515554;-0.81005859375;0.2744140625;-0.109375;-43.3125;31.5625;60.5625;
1441975933215401;0.297119140625;-0.64752197265625;-0.66253662109375;-0.23138427734375;13.389327538544538;13.559913990769148;0.3113950276755996;-0.77587890625;0.2939453125;-0.1103515625;-37.1875;31.6875;46.9375;
1441975933237402;0.30267333984375;-0.64581298828125;-0.663330078125;-0.22674560546875;13.39747763264636;13.568729214238815;0.35968437597391506;-0.75146484375;0.31689453125;-0.11181640625;-32.625;31.125;31.9375;
1441975933252403;0.30963134765625;-0.64337158203125;-0.66339111328125;-0.22412109375;13.435629487799588;13.578052481368097;0.40621052132319985;-0.734375;0.33447265625;-0.130859375;-30.75;29.3125;15.75;
1441975933275404;0.31781005859375;-0.64019775390625;-0.66265869140625;-0.22381591796875;13.505011723986957;13.587783001294817;0.44905180752521784;-0.72705078125;0.35498046875;-0.13134765625;-29.0;27.375;-0.8125;
1441975933297405;0.3270263671875;-0.6365966796875;-0.660888671875;-0.22601318359375;13.60522694984636;13.600512464891983;0.487889850382291;-0.72998046875;0.35888671875;-0.1279296875;-26.1875;24.5;-17.1875;
1441975933312406;0.33685302734375;-0.63299560546875;-0.65777587890625;-0.2308349609375;13.733288773233813;13.619220614426096;0.5218043581219515;-0.734375;0.3466796875;-0.12744140625;-20.75;20.4375;-32.75;
1441975933335407;0.34674072265625;-0.629638671875;-0.65313720703125;-0.23834228515625;13.885313430001474;13.64494204416113;0.5488599498970237;-0.74365234375;0.3369140625;-0.125;-11.0625;15.75;-47.0;
1441975933365409;0.356689453125;-0.6263427734375;-0.64727783203125;-0.24810791015625;14.057983636808732;13.676076862292453;0.5705060352154878;-0.75830078125;0.3466796875;-0.1123046875;1.125;10.3125;-60.1875;
1441975933372410;0.3668212890625;-0.6224365234375;-0.6407470703125;-0.2598876953125;14.2517595602533;13.706772512216638;0.5859201560523223;-0.78369140625;0.37939453125;-0.11767578125;10.375;4.875;-72.8125;
1441975933395411;0.377197265625;-0.61761474609375;-0.63372802734375;-0.2733154296875;14.465237716339312;13.735034982632024;0.5960567653443548;-0.8125;0.404296875;-0.11474609375;14.875;-0.75;-85.1875;
1441975933417412;0.38702392578125;-0.61181640625;-0.62713623046875;-0.2874755859375;14.68411203524887;13.75258416782528;0.5961293097982594;-0.8505859375;0.41845703125;-0.10400390625;16.875;-5.375;-96.6875;
1441975933432413;0.3968505859375;-0.6053466796875;-0.61993408203125;-0.302978515625;14.91837007761524;13.7677976479719;0.5902575598985281;-0.89013671875;0.39990234375;-0.08837890625;17.1875;-9.8125;-106.4375;
1441975933455414;0.40618896484375;-0.59857177734375;-0.61212158203125;-0.319580078125;15.161434682361069;13.780347328443186;0.5764316259220362;-0.93115234375;0.3818359375;-0.0634765625;19.875;-13.875;-113.6875;
1441975933477416;0.41497802734375;-0.59136962890625;-0.60382080078125;-0.33685302734375;15.410017803350954;13.788116232650363;0.5544663249229768;-0.97119140625;0.36279296875;-0.0439453125;24.3125;-18.4375;-118.0;
1441975933494417;0.42327880859375;-0.58392333984375;-0.5953369140625;-0.35430908203125;15.658936686183695;13.79011039684567;0.5253374380617932;-1.00048828125;0.3466796875;-0.01318359375;27.5625;-21.5625;-120.75;
1441975933515418;0.43115234375;-0.5762939453125;-0.58673095703125;-0.3712158203125;15.902590029139024;13.788212208611636;0.493279824200831;-1.0322265625;0.33642578125;0.0224609375;28.8125;-23.5;-121.0;
1441975933537419;0.43853759765625;-0.56884765625;-0.5782470703125;-0.38714599609375;16.134716658395842;13.783924737989455;0.4604253999772827;-1.03759765625;0.306640625;0.06103515625;28.4375;-22.875;-118.625;
1441975933554420;0.44573974609375;-0.56134033203125;-0.57025146484375;-0.40130615234375;16.3513519786955;13.778580072321445;0.43301397855109025;-1.0390625;0.3046875;0.0859375;27.25;-20.75;-113.5;
1441975933575421;0.45245361328125;-0.5531005859375;-0.56439208984375;-0.4134521484375;16.545981488851872;13.74163640258529;0.38688999550756603;-1.041015625;0.31884765625;0.10595703125;21.3125;-16.625;-107.3125;
1441975933597422;0.459228515625;-0.544677734375;-0.560302734375;-0.42254638671875;16.71277417719044;13.694059083620902;0.3448720923764351;-1.04150390625;0.32470703125;0.10791015625;10.3125;-12.3125;-99.5625;
1441975933614423;0.46710205078125;-0.53558349609375;-0.5576171875;-0.4290771484375;16.865630315146994;13.645550874750104;0.31847205108951243;-1.046875;0.3564453125;0.09521484375;-4.9375;-8.5625;-90.6875;
1441975933634425;0.4754638671875;-0.52618408203125;-0.556396484375;-0.43304443359375;16.99893728301425;13.596111749458295;0.30502524037384837;-1.0615234375;0.326171875;0.0751953125;-21.25;-4.375;-83.875;
1441975933659426;0.48284912109375;-0.51806640625;-0.55560302734375;-0.4356689453125;17.10845048089825;13.5560840314568;0.29958481901930856;-1.044921875;0.30859375;0.0546875;-35.4375;-1.0;-75.25;
1441975933674427;0.48876953125;-0.51239013671875;-0.556640625;-0.4344482421875;17.161829661225866;13.555919857184977;0.3391749253131543;-1.01708984375;0.32861328125;0.05078125;-34.0;1.3125;-66.4375;
1441975933695428;0.4971923828125;-0.50372314453125;-0.55810546875;-0.43328857421875;17.244972032461625;13.537420960180768;0.37719495194047986;-0.9619140625;0.61865234375;-0.02001953125;-39.375;4.0;-60.125;
1441975933717429;0.50518798828125;-0.495849609375;-0.56011962890625;-0.43035888671875;17.306969458565575;13.550785403525138;0.45032373849455487;-0.994140625;0.27880859375;0.02197265625;-56.0;6.125;-52.0625;
1441975933734430;0.511962890625;-0.48944091796875;-0.5618896484375;-0.42742919921875;17.354595640034148;13.582649305323615;0.5335335970546846;-0.9609375;0.3046875;-0.0078125;-59.1875;8.0625;-44.3125;
1441975933755431;0.5169677734375;-0.4844970703125;-0.56378173828125;-0.42449951171875;17.38308622450531;13.60514308062033;0.5984917412210407;-0.95166015625;0.267578125;-0.00732421875;-50.9375;8.8125;-35.25;
1441975933777433;0.52032470703125;-0.4810791015625;-0.5654296875;-0.422119140625;17.398235134601276;13.616971694110992;0.6413920284562382;-0.95556640625;0.27685546875;-0.02001953125;-42.1875;5.4375;-27.0;
1441975933794434;0.521484375;-0.4794921875;-0.5667724609375;-0.42071533203125;17.398515112705756;13.599151475992224;0.6393916368106609;-0.9560546875;0.25927734375;-0.03125;-31.0625;2.125;-18.5;
1441975933830436;0.52056884765625;-0.47955322265625;-0.56787109375;-0.420166015625;17.3845034004302;13.552003897903525;0.5942441125028833;-0.9521484375;0.240234375;-0.0302734375;-16.0;-2.0;-9.9375;
1441975933845437;0.517822265625;-0.48150634765625;-0.56866455078125;-0.4202880859375;17.354856295629986;13.4991539169131;0.529854203624027;-0.94140625;0.21923828125;-0.025390625;-2.4375;-6.1875;-1.3125;
1441975933854437;0.513427734375;-0.4852294921875;-0.5692138671875;-0.42071533203125;17.30852007413938;13.45359724317496;0.46136804164862466;-0.9306640625;0.21240234375;-0.03271484375;10.8125;-9.1875;7.5;
1441975933876438;0.5078125;-0.489990234375;-0.5699462890625;-0.42108154296875;17.24768105786935;13.408435345751734;0.387520602507538;-0.9306640625;0.21728515625;-0.03564453125;22.1875;-11.125;15.5;
1441975933906440;0.5013427734375;-0.49554443359375;-0.57080078125;-0.4210205078125;17.173810241104224;13.377094602228029;0.3244140366421881;-0.9306640625;0.228515625;-0.0361328125;27.6875;-12.4375;22.8125;
1441975933921441;0.49432373046875;-0.50164794921875;-0.572021484375;-0.4205322265625;17.088924000372632;13.354316135107148;0.2689762705890167;-0.9296875;0.232421875;-0.0341796875;30.75;-13.0;29.75;
1441975933935442;0.487060546875;-0.5081787109375;-0.57330322265625;-0.41949462890625;16.996426588459755;13.349054934568288;0.23090606993233226;-0.94091796875;0.22802734375;-0.025390625;31.5;-12.6875;36.4375;
1441975933957443;0.47955322265625;-0.51507568359375;-0.57464599609375;-0.4178466796875;16.896352534606276;13.357194035930151;0.20644512042176438;-0.95458984375;0.22119140625;-0.0341796875;31.6875;-11.6875;42.3125;
1441975933980444;0.47186279296875;-0.5223388671875;-0.57598876953125;-0.4156494140625;16.789790829764417;13.376505307212879;0.19316186547496028;-0.96337890625;0.21484375;-0.0322265625;31.9375;-10.0;47.625;
1441975933995445;0.4642333984375;-0.5299072265625;-0.57720947265625;-0.4129638671875;16.679558357601213;13.407234419584945;0.19162026899584675;-0.96337890625;0.21435546875;-0.02978515625;31.6875;-7.75;52.5;
1441975934017446;0.45660400390625;-0.537841796875;-0.578369140625;-0.40966796875;16.56379889887112;13.447132895615079;0.19974717582350152;-0.96826171875;0.20751953125;-0.02978515625;31.5625;-5.0;56.4375;
1441975934040448;0.44921875;-0.54583740234375;-0.5794677734375;-0.40570068359375;16.4450878560723;13.493161223093823;0.21626952382700076;-0.9697265625;0.21533203125;-0.033203125;31.3125;-2.0625;59.9375;
1441975934062449;0.44232177734375;-0.55352783203125;-0.5806884765625;-0.4010009765625;16.325410720606406;13.540175645708896;0.23850955201713578;-0.96728515625;0.2333984375;-0.0302734375;29.375;1.25;62.0;
1441975934079450;0.43621826171875;-0.5606689453125;-0.58203125;-0.39581298828125;16.209437078935608;13.585804101563577;0.2649610223747605;-0.96484375;0.244140625;-0.03466796875;25.25;4.625;62.6875;
1441975934100451;0.43072509765625;-0.5672607421875;-0.5836181640625;-0.3900146484375;16.09456289377902;13.628044558946993;0.29383906939333343;-0.9658203125;0.240234375;-0.03515625;19.6875;7.5;62.5625;
1441975934115452;0.4261474609375;-0.57318115234375;-0.5853271484375;-0.3837890625;15.985015457961543;13.668383046234311;0.3269891709540188;-0.95849609375;0.2587890625;-0.03076171875;14.3125;10.125;61.6875;
1441975934137453;0.4224853515625;-0.5782470703125;-0.5872802734375;-0.377197265625;15.881592479497922;13.703807276406838;0.3621409076094125;-0.94970703125;0.26708984375;-0.04052734375;8.5625;12.625;59.625;
1441975934160455;0.4197998046875;-0.58233642578125;-0.5894775390625;-0.37042236328125;15.786598990806775;13.73330200932901;0.39830301739165114;-0.94189453125;0.2802734375;-0.04150390625;1.875;14.6875;56.4375;
1441975934175456;0.41802978515625;-0.58551025390625;-0.591796875;-0.36370849609375;15.701618865859128;13.757580715172312;0.43478284512501986;-0.93212890625;0.27734375;-0.0478515625;-4.8125;15.8125;52.75;
1441975934197457;0.41705322265625;-0.5880126953125;-0.593994140625;-0.35711669921875;15.626024712346087;13.780311874387957;0.47331042732895756;-0.92724609375;0.275390625;-0.0498046875;-10.0625;16.5625;48.625;
1441975934220458;0.41680908203125;-0.58984375;-0.595947265625;-0.35113525390625;15.563504803163895;13.800484107849787;0.5108856905514878;-0.9140625;0.27783203125;-0.06591796875;-13.5625;16.9375;44.0625;
1441975934235459;0.4171142578125;-0.591064453125;-0.59759521484375;-0.3458251953125;15.513343802384268;13.818288587210263;0.5466339756717652;-0.91552734375;0.2685546875;-0.0693359375;-15.375;16.8125;38.6875;
1441975934265461;0.4178466796875;-0.5919189453125;-0.59881591796875;-0.34136962890625;15.475368630208363;13.835574791331744;0.580405118116687;-0.91748046875;0.26904296875;-0.06982421875;-15.6875;16.0;33.125;
1441975934280462;0.4190673828125;-0.59228515625;-0.59967041015625;-0.33770751953125;15.449924444651641;13.851990901543942;0.6127355282841079;-0.919921875;0.27099609375;-0.0751953125;-14.75;14.8125;27.25;
1441975934295462;0.42071533203125;-0.59210205078125;-0.6002197265625;-0.3349609375;15.437731979012833;13.866154314906888;0.6420435019006216;-0.91015625;0.271484375;-0.07861328125;-14.125;13.625;20.9375;
1441975934317464;0.42279052734375;-0.5914306640625;-0.60040283203125;-0.33319091796875;15.439173786635138;13.879175034143636;0.6688808373124099;-0.904296875;0.2734375;-0.0751953125;-13.375;12.125;14.375;
1441975934340465;0.42523193359375;-0.59033203125;-0.600341796875;-0.33221435546875;15.45180187796488;13.890965201848873;0.6936948837878373;-0.89892578125;0.27099609375;-0.07373046875;-12.5625;10.375;7.875;
1441975934355466;0.42803955078125;-0.5887451171875;-0.59991455078125;-0.3321533203125;15.47728972841587;13.902003093172608;0.7164280652784806;-0.89599609375;0.27099609375;-0.0703125;-11.375;8.9375;1.625;
1441975934377467;0.43121337890625;-0.586669921875;-0.599365234375;-0.33282470703125;15.513490047619872;13.910924219231829;0.7369515962794121;-0.8984375;0.2783203125;-0.06640625;-10.4375;7.375;-4.875;
1441975934400468;0.43475341796875;-0.5841064453125;-0.5985107421875;-0.33416748046875;15.560513064020826;13.919774036182583;0.7569873437874349;-0.8974609375;0.28271484375;-0.060546875;-10.3125;6.0;-11.0;
1441975934416469;0.43865966796875;-0.5810546875;-0.5975341796875;-0.33612060546875;15.61734023891639;13.927207650200259;0.7758791199013633;-0.9072265625;0.28466796875;-0.0556640625;-9.75;5.0625;-16.8125;
1441975934437471;0.44287109375;-0.57763671875;-0.5963134765625;-0.33856201171875;15.68239264363352;13.935399862722996;0.7952934798623096;-0.90283203125;0.2900390625;-0.0498046875;-9.75;4.125;-22.5;
1441975934453471;0.4473876953125;-0.57373046875;-0.5950927734375;-0.3414306640625;15.75514035194835;13.94145659609444;0.8135676756377713;-0.90673828125;0.29052734375;-0.05322265625;-10.0;3.125;-27.5;
1441975934476473;0.4521484375;-0.56939697265625;-0.59393310546875;-0.34454345703125;15.833314815276557;13.945448974681355;0.8311430427245232;-0.91552734375;0.30322265625;-0.04736328125;-10.8125;2.1875;-32.3125;
1441975934497474;0.457275390625;-0.5643310546875;-0.59283447265625;-0.34783935546875;15.918877277350871;13.94628530220285;0.848387338505444;-0.916015625;0.30712890625;-0.0498046875;-12.5625;1.0625;-36.4375;
1441975934513475;0.4625244140625;-0.5589599609375;-0.59185791015625;-0.351318359375;16.00789355534766;13.944374225062251;0.8638763055359047;-0.91748046875;0.296875;-0.04296875;-14.9375;0.0;-39.875;
1441975934536476;0.46771240234375;-0.55340576171875;-0.59075927734375;-0.35498046875;16.099461742455627;13.94163124378343;0.877993741657626;-0.923828125;0.2890625;-0.04052734375;-16.25;-0.8125;-42.25;
1441975934557477;0.47283935546875;-0.54779052734375;-0.58966064453125;-0.3587646484375;16.19201859236653;13.937748214004682;0.8905729714740966;-0.93212890625;0.28173828125;-0.0419921875;-16.1875;-1.6875;-43.6875;
1441975934581479;0.47760009765625;-0.54229736328125;-0.5885009765625;-0.3626708984375;16.28308881229961;13.931772853683958;0.8991205017757069;-0.94091796875;0.2724609375;-0.03466796875;-15.5625;-2.75;-44.3125;
1441975934596480;0.4820556640625;-0.53704833984375;-0.58721923828125;-0.36669921875;16.37245656232352;13.925781463996385;0.9053432037858861;-0.94287109375;0.26318359375;-0.03173828125;-14.1875;-3.375;-44.0625;
1441975934617481;0.4859619140625;-0.5321044921875;-0.5860595703125;-0.37060546875;16.455842078026077;13.915436124829862;0.9054860088471381;-0.94873046875;0.25341796875;-0.02978515625;-11.9375;-4.125;-42.875;
1441975934633482;0.48944091796875;-0.52764892578125;-0.58477783203125;-0.37432861328125;16.533112872490907;13.907241237986353;0.9053607101790584;-0.95068359375;0.2548828125;-0.0166015625;-9.75;-4.625;-40.9375;
1441975934656483;0.492431640625;-0.52349853515625;-0.58367919921875;-0.37786865234375;16.604038174899873;13.89399864510484;0.8989921058988343;-0.95751953125;0.25048828125;-0.025390625;-8.3125;-4.9375;-38.4375;
1441975934677484;0.49493408203125;-0.51995849609375;-0.58258056640625;-0.38116455078125;16.66690390091524;13.881690518473489;0.891124253744777;-0.9619140625;0.2431640625;-0.01416015625;-6.625;-5.0625;-35.4375;
1441975934693485;0.4969482421875;-0.51715087890625;-0.58154296875;-0.38409423828125;16.719828565496062;13.871828170617508;0.8834341122832373;-0.95947265625;0.2373046875;-0.01806640625;-4.4375;-5.3125;-31.75;
1441975934724487;0.498291015625;-0.51495361328125;-0.58050537109375;-0.38677978515625;16.76377570898677;13.860698106981266;0.8715746609356725;-0.953125;0.23486328125;-0.0224609375;-2.125;-5.125;-27.6875;
1441975934737488;0.4991455078125;-0.513427734375;-0.57958984375;-0.38909912109375;16.797940085723546;13.85067762293032;0.858914712652721;-0.958984375;0.2353515625;-0.0166015625;0.5;-4.6875;-23.375;
1441975934760489;0.4993896484375;-0.5125732421875;-0.578857421875;-0.39105224609375;16.821475859297255;13.83911594128935;0.8426452352651125;-0.95947265625;0.24169921875;-0.01953125;2.5625;-4.375;-19.125;
1441975934776490;0.4991455078125;-0.51239013671875;-0.57818603515625;-0.39251708984375;16.834570321204353;13.831452745058215;0.8285866873612593;-0.9521484375;0.24462890625;-0.01416015625;4.4375;-4.0;-14.75;
1441975934799491;0.49859619140625;-0.51263427734375;-0.57769775390625;-0.3935546875;16.839657855339855;13.825036042548096;0.8154556083868532;-0.95068359375;0.2548828125;-0.02197265625;6.3125;-3.6875;-10.5;
1441975934820492;0.497802734375;-0.51318359375;-0.57757568359375;-0.39410400390625;16.836660981944835;13.816770061350178;0.8013659995219873;-0.94873046875;0.2568359375;-0.02978515625;6.3125;-3.5625;-6.4375;
1441975934836493;0.49676513671875;-0.51409912109375;-0.57757568359375;-0.3941650390625;16.826145513734847;13.811997026132993;0.7908280911972171;-0.943359375;0.25634765625;-0.0322265625;5.5625;-3.25;-2.5625;
1441975934857495;0.49560546875;-0.51513671875;-0.577880859375;-0.3939208984375;16.81085814031424;13.804604550596872;0.7787205555450813;-0.9443359375;0.259765625;-0.03369140625;5.25;-2.4375;0.9375;
1441975934873495;0.494140625;-0.51666259765625;-0.578125;-0.39337158203125;16.789032861791977;13.8029556732849;0.7708217207695209;-0.9462890625;0.24755859375;-0.0283203125;4.625;-2.125;4.375;
1441975934896497;0.49237060546875;-0.5185546875;-0.5784912109375;-0.392578125;16.761151525394872;13.80175196233452;0.7625030471320687;-0.9375;0.24560546875;-0.03759765625;5.6875;-1.75;7.875;
1441975934917498;0.4903564453125;-0.52069091796875;-0.57891845703125;-0.3916015625;16.72895280401587;13.800913148198344;0.7538719745528061;-0.9296875;0.24560546875;-0.03369140625;6.875;-1.25;11.0625;
1441975934941499;0.48828125;-0.523193359375;-0.5792236328125;-0.390380859375;16.692924882524196;13.807795754598791;0.7520936339151645;-0.9375;0.2470703125;-0.0341796875;7.5625;-0.75;13.625;
1441975934956500;0.4862060546875;-0.5257568359375;-0.57958984375;-0.38897705078125;16.654967941957757;13.815786576154776;0.7519572301038575;-0.9423828125;0.25;-0.0478515625;8.0625;-0.25;15.75;
1441975934986502;0.4840087890625;-0.52838134765625;-0.580078125;-0.387451171875;16.61464998732852;13.821812685499621;0.750038632013609;-0.947265625;0.2470703125;-0.0517578125;7.8125;0.0625;17.375;
1441975935000503;0.48199462890625;-0.53094482421875;-0.58050537109375;-0.3858642578125;16.575451530841928;13.830671940962887;0.751649549362683;-0.955078125;0.25146484375;-0.0498046875;7.5;0.5;18.625;
1441975935016504;0.4798583984375;-0.53369140625;-0.58087158203125;-0.3841552734375;16.53384464166554;13.841505828036594;0.7545514014151508;-0.947265625;0.23828125;-0.048828125;7.0;1.0625;19.5625;
1441975935045505;0.477783203125;-0.5364990234375;-0.58123779296875;-0.38226318359375;16.49084160069675;13.854578640243027;0.7602249759691666;-0.93701171875;0.24267578125;-0.0419921875;7.5625;2.0;20.5625;
1441975935060506;0.47576904296875;-0.5391845703125;-0.5816650390625;-0.38031005859375;16.448203411624867;13.866184492592017;0.7653167411506638;-0.9287109375;0.24365234375;-0.04296875;7.3125;3.0625;21.3125;
1441975935076507;0.47406005859375;-0.541748046875;-0.5821533203125;-0.3780517578125;16.405404704146264;13.880648072078301;0.7755614843393408;-0.93310546875;0.24755859375;-0.041015625;6.5625;3.875;21.5625;
1441975935097508;0.4727783203125;-0.54400634765625;-0.58270263671875;-0.37554931640625;16.364604575904387;13.89685566467502;0.7905539230322678;-0.927734375;0.25048828125;-0.04248046875;4.5;4.9375;21.3125;
1441975935120510;0.4718017578125;-0.54595947265625;-0.58343505859375;-0.372802734375;16.324709442102805;13.911770431885671;0.8072618287613542;-0.92822265625;0.26123046875;-0.048828125;1.5;5.9375;20.625;
1441975935136510;0.4713134765625;-0.5474853515625;-0.58416748046875;-0.3699951171875;16.289401219165384;13.927469991303225;0.8275786107424211;-0.9228515625;0.26123046875;-0.05224609375;-1.5;6.8125;19.6875;
1441975935157512;0.47113037109375;-0.5487060546875;-0.5849609375;-0.3671875;16.257233471518028;13.942076270052546;0.8487349069834047;-0.93310546875;0.25537109375;-0.0546875;-4.125;7.5625;18.4375;
1441975935181513;0.47113037109375;-0.54974365234375;-0.585693359375;-0.364501953125;16.228175976592905;13.956395745426;0.8701265641087266;-0.92626953125;0.2548828125;-0.0537109375;-5.6875;7.9375;17.125;
1441975935196514;0.471435546875;-0.550537109375;-0.5863037109375;-0.36187744140625;16.20294581851734;13.972278768585138;0.8941463388312585;-0.92822265625;0.2626953125;-0.05517578125;-6.5625;8.25;15.4375;
1441975935217515;0.4720458984375;-0.551025390625;-0.58685302734375;-0.35955810546875;16.18356711105941;13.987286433658586;0.9179497598520377;-0.92431640625;0.26220703125;-0.060546875;-7.375;8.375;13.1875;
1441975935239516;0.472900390625;-0.55126953125;-0.587158203125;-0.35748291015625;16.1694627337971;14.004075015319668;0.9435380610410006;-0.92578125;0.26171875;-0.05859375;-7.9375;8.4375;10.875;
1441975935255517;0.473876953125;-0.55133056640625;-0.58734130859375;-0.35577392578125;16.16019948334688;14.020010719874842;0.9677061301809426;-0.9287109375;0.25439453125;-0.0654296875;-8.125;8.25;8.8125;
1441975935277519;0.47491455078125;-0.5513916015625;-0.5872802734375;-0.35430908203125;16.153782387970868;14.038188366684842;0.9928681930699604;-0.9248046875;0.25146484375;-0.05859375;-7.125;8.0;6.75;
1441975935293519;0.47613525390625;-0.55133056640625;-0.58709716796875;-0.3531494140625;16.15165338239837;14.057145749907365;1.018401494644437;-0.919921875;0.2490234375;-0.06298828125;-6.1875;7.9375;4.75;
1441975935315521;0.47760009765625;-0.551025390625;-0.58685302734375;-0.35211181640625;16.153238535525073;14.076764327011734;1.0454642907779104;-0.92041015625;0.25634765625;-0.06494140625;-5.625;7.9375;2.625;
1441975935337522;0.47930908203125;-0.5504150390625;-0.5865478515625;-0.3511962890625;16.15889968564726;14.096727303135413;1.0739299233452098;-0.92138671875;0.26171875;-0.06396484375;-6.1875;7.9375;0.3125;
1441975935360523;0.48126220703125;-0.54949951171875;-0.58612060546875;-0.3507080078125;16.171205639918888;14.116641980836254;1.10228622764791;-0.9326171875;0.25732421875;-0.06884765625;-7.4375;7.75;-1.875;
1441975935382525;0.48321533203125;-0.54852294921875;-0.5855712890625;-0.3504638671875;16.186034600414033;14.136922378017635;1.1301078392462658;-0.94482421875;0.248046875;-0.0703125;-7.4375;7.3125;-3.875;
1441975935399526;0.4852294921875;-0.5474853515625;-0.5848388671875;-0.35052490234375;16.20431627937171;14.158821486900806;1.1584561180435295;-0.9423828125;0.24609375;-0.06396484375;-6.3125;7.0625;-5.625;
1441975935420527;0.48724365234375;-0.54644775390625;-0.5838623046875;-0.35089111328125;16.225528658814937;14.183131200896927;1.1876096232067908;-0.951171875;0.23779296875;-0.06494140625;-5.1875;6.875;-6.875;
1441975935435528;0.4891357421875;-0.54559326171875;-0.582763671875;-0.3515625;16.24762385114701;14.208466493204751;1.2156088782774999;-0.94921875;0.2314453125;-0.06298828125;-3.5;6.6875;-7.9375;
1441975935459529;0.490966796875;-0.5447998046875;-0.58148193359375;-0.35223388671875;16.269357031986072;14.236726810352454;1.245697623367654;-0.94580078125;0.2294921875;-0.05810546875;-1.5;6.75;-8.8125;
1441975935479530;0.49285888671875;-0.54400634765625;-0.5802001953125;-0.3529052734375;16.291170712386865;14.266399943420103;1.2773586558119487;-0.939453125;0.2373046875;-0.06103515625;-0.4375;6.9375;-9.75;
1441975935495531;0.49493408203125;-0.54296875;-0.5791015625;-0.35345458984375;16.31373634457422;14.295117042922438;1.3101751432788737;-0.939453125;0.24609375;-0.0625;-0.625;7.0;-10.9375;
1441975935518532;0.497314453125;-0.54150390625;-0.578125;-0.35400390625;16.3398958898195;14.323413797477901;1.3450323152447061;-0.93359375;0.25732421875;-0.06787109375;-2.5;7.0;-12.5;
1441975935539534;0.49981689453125;-0.53985595703125;-0.5771484375;-0.3546142578125;16.368053721818427;14.35262469457429;1.3815025345111165;-0.9375;0.2509765625;-0.06787109375;-4.8125;6.8125;-14.125;
1441975935555534;0.50250244140625;-0.5379638671875;-0.57611083984375;-0.35528564453125;16.39897213584954;14.384161984331636;1.4211893331848933;-0.9326171875;0.251953125;-0.07080078125;-5.875;6.375;-15.875;
1441975935578536;0.5052490234375;-0.5361328125;-0.574951171875;-0.35614013671875;16.431206425863163;14.419434300089291;1.4636766683639688;-0.9287109375;0.2421875;-0.0751953125;-6.375;6.25;-17.5;
1441975935599537;0.5079345703125;-0.53424072265625;-0.57379150390625;-0.3570556640625;16.463840370665043;14.454887817257902;1.506180358602964;-0.93359375;0.24609375;-0.07373046875;-5.625;6.5;-18.8125;
1441975935615538;0.51092529296875;-0.53192138671875;-0.57281494140625;-0.3577880859375;16.498348144238438;14.490934918104577;1.5524656799329741;-0.93505859375;0.26513671875;-0.078125;-5.3125;6.125;-20.5625;
1441975935639539;0.51422119140625;-0.52911376953125;-0.572021484375;-0.35845947265625;16.536138079482093;14.527062557284687;1.6018229556359016;-0.9345703125;0.26513671875;-0.08642578125;-8.5;5.375;-22.5;
1441975935660540;0.517578125;-0.5263671875;-0.57098388671875;-0.35931396484375;16.57529226273117;14.57019705013314;1.6569310294409627;-0.92138671875;0.25;-0.0869140625;-11.5;5.3125;-23.8125;
1441975935675541;0.5205078125;-0.5244140625;-0.56939697265625;-0.36041259765625;16.60995975377549;14.623579947162787;1.7164778034503383;-0.91943359375;0.22705078125;-0.06982421875;-9.8125;6.6875;-23.9375;
1441975935699543;0.5233154296875;-0.5228271484375;-0.5677490234375;-0.36126708984375;16.639139905630266;14.68201194622369;1.7802120022477754;-0.9189453125;0.2333984375;-0.0849609375;-4.3125;7.25;-23.125;
1441975935720544;0.52630615234375;-0.5208740234375;-0.5665283203125;-0.361572265625;16.66567743822018;14.737492808649147;1.8454610268950866;-0.9150390625;0.25537109375;-0.10302734375;-3.3125;7.1875;-23.0625;
1441975935735545;0.52947998046875;-0.51873779296875;-0.56549072265625;-0.36163330078125;16.69114672720378;14.794484747683164;1.9145100285386776;-0.8994140625;0.2529296875;-0.10205078125;-7.9375;7.5;-22.5625;
1441975935759546;0.53277587890625;-0.5167236328125;-0.5645751953125;-0.36114501953125;16.710603707957162;14.855381244640673;1.9894392830622438;-0.8994140625;0.24267578125;-0.09814453125;-9.9375;8.375;-21.9375;
1441975935779547;0.53643798828125;-0.51434326171875;-0.56396484375;-0.36004638671875;16.72740456428622;14.91778503512333;2.0706891448481524;-0.88525390625;0.25634765625;-0.1083984375;-11.9375;9.4375;-21.625;
1441975935795548;0.540283203125;-0.511962890625;-0.5633544921875;-0.3587646484375;16.742194168343175;14.98539135186741;2.1581836763579667;-0.86767578125;0.2529296875;-0.119140625;-16.6875;10.375;-21.1875;
1441975935818550;0.5438232421875;-0.51043701171875;-0.56201171875;-0.357666015625;16.75095055605041;15.067156282348233;2.2538925198879443;-0.86865234375;0.22216796875;-0.111328125;-17.5;12.0;-19.375;
1441975935839551;0.54705810546875;-0.50970458984375;-0.56011962890625;-0.356689453125;16.753194646882243;15.158253226340062;2.353847064855629;-0.8779296875;0.20849609375;-0.1328125;-11.75;13.375;-17.5625;
1441975935855552;0.55023193359375;-0.50933837890625;-0.5582275390625;-0.3553466796875;16.748102963842683;15.249237784443299;2.453536174172576;-0.8720703125;0.21337890625;-0.146484375;-6.75;14.8125;-16.0625;
1441975935878553;0.55377197265625;-0.5091552734375;-0.556396484375;-0.35302734375;16.73222411822593;15.34353459700548;2.5601602233413896;-0.8740234375;0.22705078125;-0.16357421875;-6.375;15.9375;-14.5;
1441975935900554;0.5574951171875;-0.50885009765625;-0.5546875;-0.35015869140625;16.711243469223056;15.434738078947786;2.6666208022867464;-0.88330078125;0.24462890625;-0.20556640625;-10.0625;17.4375;-13.1875;
1441975935915555;0.56146240234375;-0.5087890625;-0.552978515625;-0.34661865234375;16.681275986968245;15.525166050552068;2.7743017630370583;-0.88525390625;0.22412109375;-0.21630859375;-13.0625;18.75;-10.8125;
1441975935938556;0.56549072265625;-0.508544921875;-0.5516357421875;-0.34259033203125;16.647525144395832;15.603801325511757;2.8734347927173145;-0.89501953125;0.228515625;-0.26953125;-15.4375;19.0625;-8.625;
1441975935960558;0.56964111328125;-0.5081787109375;-0.5504150390625;-0.338134765625;16.60999441521025;15.676271703602383;2.9688053689380376;-0.8876953125;0.21875;-0.27880859375;-18.875;19.25;-6.75;
1441975935976559;0.57366943359375;-0.50836181640625;-0.54888916015625;-0.33355712890625;16.56572987404175;15.746918679321402;3.059928914736994;-0.87890625;0.1904296875;-0.296875;-21.5625;19.1875;-3.6875;
1441975935998560;0.5775146484375;-0.50860595703125;-0.54718017578125;-0.3292236328125;16.521757970180893;15.814104370279502;3.1457162565674883;-0.8994140625;0.20654296875;-0.33837890625;-19.375;19.3125;-2.5625;
1441975936020561;0.580810546875;-0.5093994140625;-0.545166015625;-0.3255615234375;16.47819769449026;15.87657712643033;3.2207217272791486;-0.89111328125;0.18115234375;-0.34130859375;-17.875;19.25;-1.375;
1441975936035562;0.58319091796875;-0.51129150390625;-0.54248046875;-0.3228759765625;16.433240749377205;15.936612269203284;3.282619892108961;-0.87060546875;0.14453125;-0.3310546875;-12.25;18.5;1.8125;
1441975936064564;0.5845947265625;-0.5147705078125;-0.53887939453125;-0.32080078125;16.37987489143133;15.99506167669;3.331100397455385;-0.8310546875;0.10693359375;-0.31298828125;-1.875;18.25;5.75;
1441975936079564;0.58544921875;-0.51953125;-0.5345458984375;-0.31884765625;16.316401968870608;16.052489363591356;3.370798837189819;-0.8017578125;0.10888671875;-0.3173828125;9.375;19.5;10.0625;
1441975936095565;0.586181640625;-0.524658203125;-0.5299072265625;-0.31683349609375;16.248627220586027;16.10830677564033;3.406806080936791;-0.77490234375;0.1396484375;-0.33349609375;17.4375;21.375;11.8125;
1441975936119567;0.58734130859375;-0.5296630859375;-0.52520751953125;-0.31427001953125;16.175955139501507;16.16367703462924;3.4454334242603997;-0.76318359375;0.14306640625;-0.33984375;19.3125;23.25;12.8125;
1441975936140568;0.5889892578125;-0.53411865234375;-0.52056884765625;-0.3111572265625;16.101555877578413;16.218017968076172;3.48795551378356;-0.76123046875;0.15087890625;-0.365234375;16.5625;25.0625;12.5625;
1441975936155569;0.5909423828125;-0.53851318359375;-0.51568603515625;-0.30816650390625;16.026818734968778;16.275611549745705;3.5336568701874445;-0.75341796875;0.14453125;-0.36865234375;11.875;27.6875;11.4375;
1441975936179570;0.5931396484375;-0.54266357421875;-0.51068115234375;-0.30499267578125;15.950788326295957;16.332781151075274;3.580609971674346;-0.75830078125;0.13671875;-0.376953125;12.0625;29.0625;10.25;
1441975936199571;0.59564208984375;-0.5465087890625;-0.50543212890625;-0.30194091796875;15.875743977422454;16.393166317094536;3.631506007261829;-0.75244140625;0.14013671875;-0.37890625;10.75;31.0;8.6875;
1441975936215572;0.598388671875;-0.5501708984375;-0.5;-0.298828125;15.799489988887318;16.45400899716466;3.683787643082719;-0.75537109375;0.134765625;-0.39111328125;10.4375;32.125;6.4375;
1441975936238574;0.6016845703125;-0.55322265625;-0.4947509765625;-0.29534912109375;15.72311065179476;16.513007320782396;3.7392468024017607;-0.75341796875;0.12744140625;-0.38818359375;9.875;34.3125;5.1875;
1441975936260575;0.60516357421875;-0.55560302734375;-0.4898681640625;-0.29180908203125;15.650906111299802;16.567186038848632;3.79366508983538;-0.74365234375;0.11962890625;-0.39306640625;5.1875;35.625;3.4375;
1441975936275576;0.60888671875;-0.557373046875;-0.4853515625;-0.2882080078125;15.582411375447515;16.61742079323831;3.847887600316913;-0.751953125;0.10546875;-0.3935546875;1.5625;35.1875;2.125;
1441975936298577;0.61273193359375;-0.55853271484375;-0.4810791015625;-0.28497314453125;15.520812264464245;16.66688154935459;3.903075966172491;-0.7841796875;0.09326171875;-0.4033203125;-2.375;34.5;1.125;
1441975936321578;0.61627197265625;-0.5594482421875;-0.4769287109375;-0.2825927734375;15.46813577002895;16.716089703146057;3.955552969700851;-0.82080078125;0.0654296875;-0.4189453125;-4.625;32.6875;0.3125;
1441975936335579;0.619140625;-0.56036376953125;-0.4730224609375;-0.281005859375;15.42389354989123;16.761069700179753;4.000112109569623;-0.8427734375;0.041015625;-0.427734375;-2.9375;29.0;0.3125;
1441975936358580;0.6214599609375;-0.5611572265625;-0.46942138671875;-0.28021240234375;15.389026089399424;16.803148863047358;4.0389380788979095;-0.86083984375;0.025390625;-0.4306640625;0.0625;24.9375;1.3125;
1441975936381582;0.62310791015625;-0.56256103515625;-0.46551513671875;-0.2802734375;15.356986836023609;16.846055083811414;4.071277360237919;-0.84423828125;0.0;-0.40478515625;2.25;21.1875;2.1875;
1441975936395583;0.62353515625;-0.564697265625;-0.4615478515625;-0.2816162109375;15.333256654646014;16.886600349563807;4.091345581733142;-0.82763671875;-9.765625E-4;-0.4072265625;8.875;18.625;3.5625;
1441975936418584;0.6226806640625;-0.56744384765625;-0.45782470703125;-0.2841796875;15.320092397795456;16.92215023777531;4.097733103752688;-0.8212890625;0.01318359375;-0.369140625;18.625;14.8125;5.3125;
1441975936441585;0.62091064453125;-0.570556640625;-0.45428466796875;-0.28741455078125;15.313469946670775;16.953253865476473;4.094380019079658;-0.83642578125;0.06201171875;-0.3330078125;27.75;11.125;5.625;
1441975936455586;0.61846923828125;-0.57379150390625;-0.45098876953125;-0.29144287109375;15.315572789012238;16.982467613664312;4.085042990836145;-0.83740234375;0.09375;-0.30322265625;33.4375;8.1875;6.125;
1441975936478587;0.614990234375;-0.5775146484375;-0.44757080078125;-0.296630859375;15.326285561313007;17.012011493652327;4.067673800747676;-0.84423828125;0.10693359375;-0.28271484375;37.5;4.75;6.125;
1441975936501589;0.61090087890625;-0.58062744140625;-0.44482421875;-0.302978515625;15.355070087495859;17.04070418520531;4.047885712668883;-0.8759765625;0.1748046875;-0.2939453125;47.125;0.25;3.9375;
1441975936522590;0.6064453125;-0.582763671875;-0.4423828125;-0.31134033203125;15.408132476573435;17.079893143263305;4.035203464384518;-0.95263671875;0.2333984375;-0.28662109375;50.5;-6.625;-1.25;
1441975936538591;0.60113525390625;-0.5849609375;-0.4388427734375;-0.322265625;15.477625401328966;17.14037681556093;4.030389624689662;-1.02734375;0.21630859375;-0.27978515625;53.9375;-14.4375;-7.0625;
1441975936561592;0.5947265625;-0.58770751953125;-0.43438720703125;-0.33502197265625;15.556680232127388;17.213850619372128;4.025829815069338;-1.08544921875;0.18603515625;-0.26025390625;67.9375;-19.25;-10.625;
1441975936584593;0.58746337890625;-0.59136962890625;-0.4288330078125;-0.3482666015625;15.631087859532872;17.294044947388002;4.0184931913324204;-1.0810546875;0.17236328125;-0.20654296875;81.0625;-21.3125;-11.75;
1441975936606595;0.58013916015625;-0.595458984375;-0.4228515625;-0.36065673828125;15.694498933278926;17.372320463673795;4.009384344456745;-1.025390625;0.1728515625;-0.14990234375;90.4375;-17.9375;-10.5;
1441975936621595;0.57305908203125;-0.59954833984375;-0.41668701171875;-0.37225341796875;15.750142135804163;17.450133604399717;4.002546602408892;-0.94921875;0.181640625;-0.09521484375;91.0625;-12.625;-9.625;
1441975936642597;0.56591796875;-0.60394287109375;-0.41058349609375;-0.3826904296875;15.7959915198409;17.518360284111445;3.9887899105470037;-0.88525390625;0.150390625;-0.06201171875;87.75;-8.125;-7.9375;
1441975936658598;0.5592041015625;-0.60821533203125;-0.40509033203125;-0.3916015625;15.833114668271001;17.573337982034968;3.969725463065093;-0.8232421875;0.14404296875;-0.06103515625;84.3125;-6.0625;-4.5625;
1441975936681599;0.552734375;-0.61279296875;-0.39984130859375;-0.39892578125;15.857361217223932;17.614273692083735;3.941813566361665;-0.794921875;0.11474609375;-0.08935546875;75.3125;-4.9375;-0.375;
1441975936702600;0.54718017578125;-0.617431640625;-0.39556884765625;-0.4036865234375;15.864333623462338;17.63168125042757;3.9031607160290864;-0.78564453125;0.1162109375;-0.1416015625;69.25;-2.625;3.75;
1441975936718601;0.54327392578125;-0.6209716796875;-0.393310546875;-0.40570068359375;15.861825801265532;17.62446797486748;3.861739350842328;-0.79443359375;0.162109375;-0.21337890625;56.875;0.875;5.6875;
1441975936748603;0.54119873046875;-0.622802734375;-0.39276123046875;-0.40618896484375;15.859859432759293;17.609654697754635;3.832486915329368;-0.80615234375;0.17236328125;-0.25;34.9375;3.1875;6.3125;
1441975936762603;0.53973388671875;-0.62396240234375;-0.392333984375;-0.40679931640625;15.8609631712532;17.602263544151057;3.8144146803380057;-0.84326171875;0.12158203125;-0.26025390625;14.625;4.0;5.5;
1441975936778604;0.5374755859375;-0.6259765625;-0.3912353515625;-0.40777587890625;15.859238094108193;17.594711617004176;3.788326425592092;-0.88916015625;0.05810546875;-0.25439453125;9.9375;4.625;6.1875;
1441975936801606;0.53497314453125;-0.62786865234375;-0.390380859375;-0.408935546875;15.861702190236366;17.58466416510582;3.759574581069125;-0.9091796875;0.0771484375;-0.27197265625;17.625;4.8125;7.25;
1441975936822607;0.53216552734375;-0.6290283203125;-0.390380859375;-0.4107666015625;15.878975844206323;17.57137069644797;3.7294388889020906;-0.95263671875;0.13232421875;-0.32568359375;19.1875;0.0625;5.3125;
1441975936838608;0.52947998046875;-0.62890625;-0.39141845703125;-0.41339111328125;15.9145979898047;17.559130862443695;3.7052792215478387;-1.015625;0.13330078125;-0.35205078125;16.5625;-7.8125;4.5625;
1441975936861609;0.52618408203125;-0.62945556640625;-0.39178466796875;-0.41650390625;15.948686143684581;17.549292116460013;3.676418382704808;-1.03662109375;0.06787109375;-0.3212890625;10.75;-14.1875;5.3125;
1441975936882610;0.522216796875;-0.63189697265625;-0.39013671875;-0.4193115234375;15.961354138887984;17.544890731590367;3.640392053741075;-1.0078125;0.01123046875;-0.2861328125;16.3125;-12.9375;10.75;
1441975936898611;0.51837158203125;-0.63494873046875;-0.38824462890625;-0.4212646484375;15.96210961286082;17.534924436216077;3.599086914270018;-0.9716796875;0.02197265625;-0.32080078125;28.6875;-5.9375;13.625;
1441975936928613;0.5146484375;-0.63836669921875;-0.3865966796875;-0.422119140625;15.952760181275213;17.513638754204745;3.549565903238369;-0.9912109375;0.041015625;-0.33837890625;28.1875;-0.8125;15.0625;
1441975936942614;0.51141357421875;-0.64154052734375;-0.38531494140625;-0.42242431640625;15.940480034170784;17.48975507403943;3.502233658564984;-0.99267578125;0.0732421875;-0.3564453125;25.5625;2.25;17.0;
1441975936958615;0.5089111328125;-0.64434814453125;-0.384521484375;-0.42193603515625;15.923850096337812;17.46288964728896;3.458832025197983;-0.99267578125;0.0859375;-0.3525390625;21.0625;4.1875;16.1875;
1441975936981616;0.50714111328125;-0.64642333984375;-0.38421630859375;-0.421142578125;15.908974440893974;17.437958976158978;3.4239570032164766;-0.98291015625;0.0859375;-0.357421875;14.1875;6.0;15.5625;
1441975937003617;0.50567626953125;-0.64837646484375;-0.3839111328125;-0.42022705078125;15.892752710172367;17.415630123149484;3.3932890012780734;-0.96435546875;0.06494140625;-0.3447265625;7.3125;5.875;14.0625;
1441975937018618;0.50433349609375;-0.64990234375;-0.38336181640625;-0.41986083984375;15.881921938651757;17.402620770985504;3.371227990185174;-0.93017578125;0.05615234375;-0.35498046875;5.875;5.3125;13.1875;
1441975937041619;0.5025634765625;-0.6517333984375;-0.38214111328125;-0.42034912109375;15.874295336526545;17.398213154456116;3.3512282997430276;-0.91650390625;0.02685546875;-0.3515625;6.4375;3.5625;11.875;
1441975937062621;0.5;-0.654052734375;-0.38031005859375;-0.4215087890625;15.868621631403316;17.396782674253704;3.3266970288428617;-0.91455078125;0.017578125;-0.35400390625;12.6875;1.9375;11.5;
1441975937078622;0.496826171875;-0.6566162109375;-0.3780517578125;-0.42327880859375;15.866214671578378;17.39822539374008;3.299494701000765;-0.9287109375;0.0419921875;-0.35986328125;20.5;0.5;11.5625;
1441975937101623;0.49365234375;-0.6585693359375;-0.37628173828125;-0.42547607421875;15.87318972935845;17.399010343578322;3.273674901046755;-0.98046875;0.06689453125;-0.392578125;26.375;-2.125;10.8125;
1441975937122624;0.4901123046875;-0.6605224609375;-0.374755859375;-0.42791748046875;15.884246147016437;17.395393458799955;3.2424387943524637;-1.021484375;0.06396484375;-0.39404296875;24.3125;-5.6875;9.625;
1441975937138625;0.487060546875;-0.662109375;-0.37353515625;-0.429931640625;15.89399924953146;17.39082230115836;3.2148513927164877;-1.03076171875;0.08935546875;-0.38623046875;25.75;-7.5625;9.1875;
1441975937160626;0.484375;-0.66375732421875;-0.3720703125;-0.4317626953125;15.899823009686227;17.390679586410315;3.192404541644943;-1.0546875;0.09375;-0.4072265625;21.3125;-7.75;8.25;
1441975937182628;0.4820556640625;-0.66522216796875;-0.37060546875;-0.433349609375;15.903777872667197;17.392720955607682;3.1744187483647233;-1.107421875;0.068359375;-0.431640625;20.0;-5.5;8.4375;
1441975937198628;0.4801025390625;-0.66619873046875;-0.3687744140625;-0.43560791015625;15.91376001914368;17.407944779830487;3.1691576247283506;-1.12060546875;0.06689453125;-0.44677734375;18.1875;-5.0;7.4375;
1441975937220630;0.47723388671875;-0.667724609375;-0.3660888671875;-0.438720703125;15.926223024583319;17.428744040444595;3.160176697260922;-1.13525390625;0.02197265625;-0.435546875;18.4375;-6.375;5.125;
1441975937242631;0.47344970703125;-0.670166015625;-0.363037109375;-0.4415283203125;15.931477840118058;17.440860824721394;3.1367990415095;-1.1669921875;0.03076171875;-0.44873046875;27.625;-7.75;5.5625;
1441975937258632;0.4698486328125;-0.672607421875;-0.36041259765625;-0.44378662109375;15.933583788671655;17.44609086206811;3.1099056551142708;-1.1904296875;0.1005859375;-0.49462890625;34.0625;-7.875;6.5625;
1441975937280633;0.46722412109375;-0.67413330078125;-0.35791015625;-0.44622802734375;15.940788260267126;17.462664424076696;3.099789756626337;-1.24169921875;0.11865234375;-0.51513671875;30.9375;-6.5;7.125;
1441975937304635;0.46453857421875;-0.67626953125;-0.354248046875;-0.44879150390625;15.940535807906375;17.49099719425517;3.0956007664920384;-1.2841796875;0.03857421875;-0.5390625;24.4375;-8.5625;6.1875;
1441975937318635;0.46240234375;-0.67803955078125;-0.35089111328125;-0.45098876953125;15.939317256704792;17.519498638736223;3.096200851342077;-1.29638671875;0.0302734375;-0.552734375;30.5;-5.125;5.125;
1441975937340637;0.45880126953125;-0.68182373046875;-0.3463134765625;-0.4525146484375;15.919091676064925;17.538223497415824;3.074806978048595;-1.2744140625;0.00634765625;-0.5048828125;26.125;-1.625;4.875;
1441975937363638;0.4564208984375;-0.68353271484375;-0.34246826171875;-0.4552001953125;15.92089166286389;17.57350988570566;3.0787052503822574;-1.1953125;0.16064453125;-0.52294921875;40.1875;3.9375;3.1875;
1441975937378639;0.45538330078125;-0.68218994140625;-0.3416748046875;-0.45892333984375;15.959133575151755;17.602776245760726;3.0961740373704507;-1.16650390625;0.1162109375;-0.537109375;32.8125;-7.375;-5.0625;
1441975937400640;0.45721435546875;-0.67913818359375;-0.34259033203125;-0.4609375;15.992701481363218;17.633127224496416;3.138233309044697;-1.22802734375;0.146484375;-0.44189453125;14.875;-17.1875;-14.1875;
1441975937423641;0.46087646484375;-0.67657470703125;-0.343994140625;-0.46002197265625;15.99594380091851;17.65268355925416;3.183070677973048;-1.10888671875;0.20556640625;-0.46826171875;-5.5;-19.375;-27.125;
1441975937445643;0.4652099609375;-0.6739501953125;-0.3431396484375;-0.46014404296875;15.994973771629416;17.712178284272266;3.26019567512291;-1.0576171875;0.1953125;-0.43310546875;-19.125;-2.875;-25.3125;
1441975937461643;0.46923828125;-0.6702880859375;-0.34423828125;-0.46051025390625;16.011389878779724;17.752940073011015;3.325998108441628;-1.02978515625;0.12744140625;-0.37890625;-10.8125;2.75;-32.375;
1441975937483645;0.4810791015625;-0.6593017578125;-0.34814453125;-0.46124267578125;16.05796661535232;17.868342486583256;3.51855516165736;-1.083984375;0.224609375;-0.32958984375;-16.625;-2.125;-36.0;
1441975937504646;0.49639892578125;-0.6448974609375;-0.3487548828125;-0.46490478515625;16.10509521663429;0.10353590201421413;3.8325918548195093;-1.06298828125;-0.22998046875;-0.43603515625;-71.875;-22.8125;-49.6875;
1441975937520647;0.5076904296875;-0.63323974609375;-0.3551025390625;-0.4638671875;16.144714381115143;0.19166507129524815;4.009906714345412;-1.14892578125;-0.17919921875;-0.4951171875;-65.25;-29.5625;-92.0625;
1441975937543648;0.50848388671875;-0.63018798828125;-0.35809326171875;-0.4649658203125;16.182167184257032;0.19777500639112877;4.03317376126338;-1.09130859375;-0.5087890625;-0.0224609375;-91.1875;0.6875;-23.875;
1441975937564649;0.50665283203125;-0.63238525390625;-0.3590087890625;-0.46319580078125;16.172793933520282;0.1398047541696669;3.9711696213622747;-1.05322265625;0.14794921875;0.07421875;-12.75;9.0;-17.875;
1441975937580650;0.50567626953125;-0.63128662109375;-0.36053466796875;-0.464599609375;16.20178501077717;0.1361967044106249;3.9685534026225144;-1.11083984375;0.04296875;-0.19970703125;2.0625;17.1875;15.0;
1441975937603652;0.50640869140625;-0.6285400390625;-0.36517333984375;-0.4638671875;16.235202516080832;0.10170024696214715;3.9601776391963566;-1.3056640625;0.03662109375;-0.228515625;-0.1875;-1.6875;-2.375;
1441975937626653;0.50885009765625;-0.6256103515625;-0.37176513671875;-0.4598388671875;16.250182011323314;0.026849203305269322;3.932060253826691;-1.27587890625;-0.009765625;-0.30908203125;-26.625;-10.0625;2.875;
1441975937640654;0.510986328125;-0.6231689453125;-0.37744140625;-0.45623779296875;16.261192639719443;17.960151159661493;3.905829665747515;-1.32763671875;-0.048828125;-0.32958984375;-49.0;-1.25;11.5;
1441975937663655;0.51312255859375;-0.62005615234375;-0.3812255859375;-0.4549560546875;16.28136576975408;17.94312688022663;3.9189771958407698;-1.41015625;-0.0927734375;-0.33203125;-43.75;2.125;14.375;
1441975937684656;0.51422119140625;-0.6182861328125;-0.383056640625;-0.45452880859375;16.293661370127037;17.939265485099252;3.930099307630933;-1.498046875;-0.1767578125;-0.314453125;-33.375;0.0625;8.5;
1441975937700657;0.51434326171875;-0.617919921875;-0.38568115234375;-0.45269775390625;16.2969756350406;17.892814002597582;3.8980530651297705;-1.44287109375;-0.087890625;-0.31298828125;-16.3125;2.875;3.1875;
1441975937723658;0.51568603515625;-0.61614990234375;-0.38946533203125;-0.4503173828125;16.305200271756316;17.847672398884928;3.8799258078047907;-1.3330078125;0.05517578125;-0.2578125;-15.125;8.3125;6.5625;
1441975937752660;0.51629638671875;-0.6143798828125;-0.39288330078125;-0.4490966796875;16.322661182200207;17.81101391300211;3.863769407376595;-1.30322265625;0.02001953125;-0.20849609375;-27.5;8.25;4.9375;
1441975937760661;0.515625;-0.61279296875;-0.39654541015625;-0.44879150390625;16.352134555220744;17.76560151822072;3.8326957629852334;-1.2919921875;0.0166015625;-0.185546875;-21.1875;4.75;4.75;
1441975937783662;0.514892578125;-0.610595703125;-0.40093994140625;-0.44879150390625;16.39122519424936;17.715621323953254;3.799938879518659;-1.26904296875;0.09130859375;-0.1943359375;-14.1875;-3.0;3.6875;
1441975937806663;0.51385498046875;-0.606689453125;-0.406982421875;-0.44976806640625;16.45698558853148;17.65904151493608;3.7666716475514677;-1.21875;0.0986328125;-0.25830078125;-17.125;-14.375;2.75;
1441975937820664;0.51171875;-0.60235595703125;-0.41424560546875;-0.45135498046875;16.53974608349032;17.57674529185303;3.7075329221345887;-1.220703125;0.04638671875;-0.22216796875;-24.3125;-25.875;4.75;
1441975937843665;0.5084228515625;-0.59820556640625;-0.42242431640625;-0.45306396484375;16.629771515161828;17.456203220919583;3.608533339745644;-1.2021484375;0.04052734375;-0.1953125;-24.9375;-35.3125;10.3125;
1441975937864667;0.50579833984375;-0.59393310546875;-0.4310302734375;-0.45355224609375;16.708561331592332;17.311599431611945;3.492415866181554;-1.15283203125;0.08837890625;-0.15966796875;-23.875;-40.5;13.75;
1441975937880667;0.5048828125;-0.58953857421875;-0.43878173828125;-0.45281982421875;16.76715026925741;17.182393299419772;3.3979004641476696;-1.05126953125;0.08935546875;-0.1767578125;-30.625;-40.1875;15.375;
1441975937903669;0.50537109375;-0.5858154296875;-0.4447021484375;-0.45135498046875;16.80257642016292;17.089729763167803;3.3387736961116667;-0.986328125;0.02978515625;-0.23974609375;-37.875;-35.9375;14.375;
1441975937925670;0.5059814453125;-0.58343505859375;-0.44952392578125;-0.44903564453125;16.816767560873924;17.00015337629289;3.2784410791992253;-0.888671875;-0.0625;-0.29443359375;-37.0625;-28.4375;14.875;
1441975937948671;0.5040283203125;-0.58349609375;-0.45428466796875;-0.44635009765625;16.8158495371226;16.849829735721322;3.1437706093166606;-0.8134765625;-0.02978515625;-0.322265625;-32.4375;-22.0;15.625;
1441975937963672;0.5013427734375;-0.5830078125;-0.46112060546875;-0.44293212890625;16.817060192606043;16.642482996482723;2.9596375759473976;-0.71826171875;0.03125;-0.3291015625;-20.125;-22.75;27.75;
1441975937986674;0.49822998046875;-0.58319091796875;-0.46710205078125;-0.43994140625;16.8100919794675;16.44623498826305;2.779735620278579;-0.6416015625;0.09814453125;-0.29052734375;-27.75;-28.25;31.375;
1441975938000674;0.49554443359375;-0.583251953125;-0.4730224609375;-0.43658447265625;16.795491249475155;16.260351945734406;2.6126516777065887;-0.63818359375;0.1103515625;-0.3115234375;-21.0;-28.4375;31.3125;
1441975938023676;0.49212646484375;-0.58404541015625;-0.47894287109375;-0.43292236328125;16.768518169748603;16.065414397836044;2.4331573265059205;-0.6044921875;0.109375;-0.30517578125;-23.6875;-26.375;30.5;
1441975938044677;0.48809814453125;-0.5849609375;-0.4835205078125;-0.43109130859375;16.75022189158235;15.899233180907762;2.27117206975444;-0.54443359375;0.1044921875;-0.30419921875;-20.875;-26.4375;36.5;
1441975938060678;0.4815673828125;-0.58782958984375;-0.48712158203125;-0.430419921875;16.721086144557034;15.720399965834021;2.077515748706255;-0.6259765625;0.03857421875;-0.29638671875;-10.5625;-28.8125;36.1875;
1441975938083679;0.47412109375;-0.59130859375;-0.4903564453125;-0.43023681640625;16.6853582619749;15.544509766535453;1.879917072472501;-0.64599609375;0.0654296875;-0.294921875;7.8125;-31.75;43.0625;
1441975938104680;0.4658203125;-0.595947265625;-0.49285888671875;-0.43011474609375;16.63535160710572;15.384201226907846;1.6897542919274644;-0.59423828125;0.1015625;-0.28271484375;14.375;-33.75;43.3125;
1441975938121681;0.4571533203125;-0.601318359375;-0.49493408203125;-0.4295654296875;16.57138416669142;15.243483661235793;1.5159298549290758;-0.57177734375;0.13525390625;-0.2490234375;22.875;-29.25;45.375;
1441975938143682;0.44866943359375;-0.60711669921875;-0.49615478515625;-0.428955078125;16.50177264974292;15.135665455402458;1.371925868716538;-0.5009765625;0.1591796875;-0.2099609375;26.6875;-24.1875;46.8125;
1441975938164684;0.4400634765625;-0.613037109375;-0.4962158203125;-0.42938232421875;16.439101936034408;15.053475017140526;1.2464268053636296;-0.4287109375;0.1494140625;-0.1708984375;30.1875;-18.3125;45.6875;
1441975938180685;0.43011474609375;-0.62017822265625;-0.4942626953125;-0.43145751953125;16.379561984801445;14.995573284774363;1.127088491180402;-0.416015625;0.11474609375;-0.138671875;37.75;-17.0;42.75;
1441975938203686;0.41937255859375;-0.6279296875;-0.49188232421875;-0.43353271484375;16.312790893913284;14.944940126435322;1.0095162307960808;-0.474609375;0.15380859375;-0.130859375;56.1875;-17.125;40.0;
1441975938226687;0.40924072265625;-0.6357421875;-0.489501953125;-0.4345703125;16.238153146782043;14.91146701202756;0.9134889937840717;-0.52197265625;0.22705078125;-0.1298828125;62.25;-16.25;39.5625;
1441975938240688;0.40045166015625;-0.64410400390625;-0.48638916015625;-0.433837890625;16.151451393394662;14.916252838406887;0.8607230911244781;-0.546875;0.27197265625;-0.11962890625;58.4375;-9.8125;38.4375;
1441975938263689;0.3934326171875;-0.65264892578125;-0.4832763671875;-0.4310302734375;16.053032252089356;14.947960402775662;0.8452862687902238;-0.6318359375;0.32958984375;-0.14599609375;55.8125;3.3125;36.1875;
1441975938286691;0.38885498046875;-0.6595458984375;-0.481201171875;-0.427001953125;15.96196356941087;14.982762021205485;0.8513716331364478;-0.80126953125;0.4482421875;-0.20654296875;47.0625;14.875;32.3125;
1441975938300691;0.3853759765625;-0.66461181640625;-0.48016357421875;-0.4234619140625;15.8886515905625;15.002022065781677;0.8521724382269787;-0.96875;0.443359375;-0.26513671875;28.75;18.3125;30.0625;
1441975938323693;0.3807373046875;-0.6702880859375;-0.478515625;-0.42047119140625;15.813014661877165;15.01975593002946;0.8427068280538288;-1.03759765625;0.326171875;-0.24462890625;17.1875;15.5625;32.75;
1441975938346694;0.37506103515625;-0.67730712890625;-0.4755859375;-0.41766357421875;15.72918390715688;15.049643637865225;0.8338903192436691;-0.98583984375;0.29736328125;-0.2333984375;25.0625;13.8125;37.375;
1441975938360695;0.36865234375;-0.68572998046875;-0.47235107421875;-0.41339111328125;15.621848652201534;15.086642575046644;0.8288194334021537;-0.9248046875;0.30908203125;-0.24658203125;36.6875;15.375;39.25;
1441975938383696;0.363037109375;-0.69354248046875;-0.4700927734375;-0.40771484375;15.507267462959772;15.117914811741885;0.8287603746748152;-0.81005859375;0.3857421875;-0.3076171875;40.1875;18.3125;41.1875;
1441975938406698;0.35772705078125;-0.700927734375;-0.46881103515625;-0.4012451171875;15.387763240937087;15.139740538145281;0.8264256945700892;-0.77001953125;0.400390625;-0.35546875;28.75;20.0625;42.25;
1441975938427699;0.35205078125;-0.7083740234375;-0.4678955078125;-0.3941650390625;15.260500801242797;15.156197604065712;0.8199755733775755;-0.75830078125;0.39697265625;-0.359375;21.1875;21.3125;45.5625;
1441975938443700;0.34625244140625;-0.7158203125;-0.46734619140625;-0.38641357421875;15.126225875724085;15.169180546077474;0.8124179461313835;-0.74755859375;0.423828125;-0.3896484375;19.3125;21.0;48.625;
1441975938466701;0.3409423828125;-0.72296142578125;-0.4681396484375;-0.3768310546875;14.977148113442682;15.174085946426459;0.8081583820965901;-0.75244140625;0.4482421875;-0.423828125;15.9375;21.75;51.75;
1441975938487702;0.3365478515625;-0.72918701171875;-0.4703369140625;-0.3658447265625;14.822129283756459;15.170019716284436;0.8085202593652252;-0.76513671875;0.50048828125;-0.45849609375;5.0625;26.1875;55.3125;
1441975938503703;0.3321533203125;-0.73468017578125;-0.47344970703125;-0.354736328125;14.668775877882627;15.155911478257806;0.8041344072865266;-0.78369140625;0.4814453125;-0.462890625;-8.9375;31.125;60.25;
1441975938533705;0.32647705078125;-0.740966796875;-0.474853515625;-0.34490966796875;14.519860027063094;15.15182984485048;0.7944043626454032;-0.8154296875;0.41943359375;-0.4169921875;-14.75;32.625;66.8125;
1441975938547706;0.3187255859375;-0.7493896484375;-0.47418212890625;-0.33477783203125;14.350888324473607;15.16333968595125;0.781333096822846;-0.83349609375;0.3642578125;-0.40380859375;-1.8125;31.0;72.625;
1441975938563707;0.3099365234375;-0.75823974609375;-0.47357177734375;-0.3238525390625;14.168011033964836;15.172566653731707;0.7632757741176052;-0.84033203125;0.431640625;-0.439453125;16.875;33.875;79.875;
1441975938586708;0.30084228515625;-0.766845703125;-0.472412109375;-0.3135986328125;13.992022023994606;15.183799353770931;0.7428604256996818;-0.837890625;0.47509765625;-0.45556640625;18.375;36.0625;86.6875;
1441975938607709;0.2908935546875;-0.77630615234375;-0.46990966796875;-0.3033447265625;13.809790846972719;15.204845930105833;0.7219863757642184;-0.84912109375;0.4033203125;-0.4482421875;20.4375;35.0;90.875;
1441975938623710;0.28021240234375;-0.78521728515625;-0.4678955078125;-0.29339599609375;13.629547062422754;15.218410332940442;0.6928625214148639;-0.79931640625;0.44921875;-0.48291015625;30.0;35.1875;90.625;
1441975938646711;0.26898193359375;-0.79290771484375;-0.46661376953125;-0.28509521484375;13.46751551753115;15.221323041853514;0.6521643226873249;-0.69091796875;0.52880859375;-0.51708984375;28.75;26.625;86.375;
1441975938667712;0.25872802734375;-0.7994384765625;-0.46563720703125;-0.27789306640625;13.325178007020392;15.222246310127659;0.6138159282849575;-0.5771484375;0.56298828125;-0.5087890625;27.0625;13.5;78.9375;
1441975938683713;0.25054931640625;-0.80377197265625;-0.46728515625;-0.26995849609375;13.191965001694095;15.206886944989925;0.5833280719993931;-0.568359375;0.623046875;-0.52587890625;23.3125;8.4375;68.375;
1441975938706715;0.24676513671875;-0.8043212890625;-0.47314453125;-0.261474609375;13.085074362624836;15.16625189560511;0.5700236137300327;-0.541015625;0.66552734375;-0.5068359375;2.9375;10.9375;59.5;
1441975938727716;0.24542236328125;-0.8035888671875;-0.47857666015625;-0.255126953125;13.015582316965245;15.130162244571151;0.5667755144667854;-0.587890625;0.5322265625;-0.4150390625;-34.8125;19.5625;51.6875;
1441975938743717;0.2432861328125;-0.80419921875;-0.48089599609375;-0.250732421875;12.958594846795265;15.114851487280323;0.5617063314419366;-0.75927734375;0.396484375;-0.359375;-38.625;22.5625;46.875;
1441975938773719;0.23931884765625;-0.806640625;-0.48052978515625;-0.2474365234375;12.898643340038799;15.116865661172156;0.5498542714077552;-0.87255859375;0.34228515625;-0.3720703125;-19.375;20.4375;50.5;
1441975938787719;0.23516845703125;-0.8089599609375;-0.47991943359375;-0.24505615234375;12.847298577924994;15.119157193976063;0.5346154673966312;-0.91064453125;0.470703125;-0.39501953125;5.3125;17.375;51.625;
1441975938802720;0.2303466796875;-0.8125;-0.47833251953125;-0.24102783203125;12.773180417792117;15.130715536087024;0.5234792186385577;-0.7705078125;0.505859375;-0.3076171875;12.125;13.125;41.75;
1441975938826722;0.22540283203125;-0.816650390625;-0.47698974609375;-0.23431396484375;12.67015814058868;15.143907184074374;0.5195126200780895;-0.59814453125;0.54931640625;-0.29931640625;20.8125;17.4375;40.25;
1441975938847723;0.220703125;-0.82012939453125;-0.47686767578125;-0.22662353515625;12.560297862585418;15.148716223142609;0.5167206003219617;-0.43798828125;0.59814453125;-0.29150390625;20.1875;26.125;40.6875;
1441975938862724;0.21697998046875;-0.8221435546875;-0.47894287109375;-0.218505859375;12.454503794506914;15.138411658002994;0.5156307432257483;-0.41796875;0.64111328125;-0.3056640625;11.625;28.6875;40.9375;
1441975938886725;0.21453857421875;-0.822998046875;-0.48199462890625;-0.210693359375;12.361285403454112;15.121544001895233;0.5188747085532471;-0.416015625;0.66796875;-0.32958984375;-4.875;27.875;38.5625;
1441975938907726;0.2127685546875;-0.82342529296875;-0.48504638671875;-0.20367431640625;12.280610325961783;15.104507528410497;0.5237395605861059;-0.47216796875;0.654296875;-0.353515625;-15.8125;28.25;35.6875;
1441975938931728;0.2113037109375;-0.8236083984375;-0.4879150390625;-0.19769287109375;12.212538205159548;15.088048852810399;0.5277401415551395;-0.50830078125;0.65380859375;-0.37255859375;-17.75;26.8125;32.625;
1441975938947728;0.209716796875;-0.82403564453125;-0.48968505859375;-0.19305419921875;12.156846201453991;15.077932157029547;0.5293681045760563;-0.53662109375;0.63134765625;-0.38037109375;-18.0;23.5625;30.25;
1441975938974730;0.20758056640625;-0.8250732421875;-0.490478515625;-0.18896484375;12.102348269713278;15.07401988627253;0.5283541345901959;-0.5302734375;0.60498046875;-0.38525390625;-11.5625;18.25;28.125;
1441975938982730;0.20501708984375;-0.82611083984375;-0.4912109375;-0.18524169921875;12.049253042180306;15.069590229395802;0.5239923702935375;-0.50634765625;0.61962890625;-0.41259765625;-5.1875;14.5;26.875;
1441975939006732;0.20208740234375;-0.82733154296875;-0.4918212890625;-0.18145751953125;11.993168492650652;15.065836766921294;0.518101208402354;-0.4775390625;0.63330078125;-0.3984375;-3.0625;11.125;26.875;
1441975939034733;0.199462890625;-0.82843017578125;-0.49249267578125;-0.17742919921875;11.936611516040621;15.062070104205276;0.5145746537239637;-0.42822265625;0.658203125;-0.40966796875;-1.1875;9.6875;25.5625;
1441975939042734;0.19696044921875;-0.82928466796875;-0.4935302734375;-0.17327880859375;11.880019324481783;15.055843331876604;0.5114596869343192;-0.4150390625;0.6796875;-0.404296875;-1.625;11.3125;24.125;
1441975939056735;0.19464111328125;-0.83001708984375;-0.49462890625;-0.16925048828125;11.825889621746631;15.049250951937877;0.5089459405414988;-0.39501953125;0.69580078125;-0.39599609375;-3.5;11.1875;22.8125;
1441975939080736;0.19256591796875;-0.83062744140625;-0.49566650390625;-0.16534423828125;11.774606394216509;15.04305343011456;0.5075629992612067;-0.37158203125;0.69873046875;-0.40234375;-4.4375;10.4375;20.8125;
1441975939102737;0.19091796875;-0.83123779296875;-0.4964599609375;-0.16192626953125;11.730451117168302;15.0387874399133;0.5075337074278011;-0.36474609375;0.708984375;-0.4208984375;-5.5;10.125;18.75;
1441975939116738;0.189208984375;-0.83203125;-0.49676513671875;-0.1588134765625;11.688667065678898;15.037580535815527;0.5071142416180404;-0.3671875;0.70556640625;-0.43017578125;-4.75;8.9375;16.0625;
1441975939139739;0.18768310546875;-0.832763671875;-0.4970703125;-0.15576171875;11.648616129245248;15.03646840565611;0.5075103268498535;-0.369140625;0.71728515625;-0.44775390625;-2.125;8.1875;15.0;
1441975939162741;0.186279296875;-0.833251953125;-0.4976806640625;-0.15283203125;11.61094510564922;15.033132317037639;0.5076975088527509;-0.36962890625;0.73828125;-0.46484375;-2.6875;7.5625;14.0;
1441975939178742;0.1849365234375;-0.83380126953125;-0.4981689453125;-0.15008544921875;11.575273546511047;15.030698849399307;0.5078957854381552;-0.37255859375;0.72607421875;-0.46923828125;-5.5625;7.375;13.625;
1441975939199743;0.18341064453125;-0.834716796875;-0.49798583984375;-0.1473388671875;11.537909972426277;15.032714601769689;0.5081881246588706;-0.37841796875;0.70849609375;-0.4580078125;-4.625;7.5;14.5;
1441975939222744;0.181884765625;-0.835693359375;-0.49761962890625;-0.144775390625;11.502243410103524;15.03585417893298;0.5082062410866713;-0.37841796875;0.71240234375;-0.45947265625;0.0625;8.125;14.875;
1441975939236745;0.18048095703125;-0.836669921875;-0.49725341796875;-0.14227294921875;11.467823478767297;15.039148512661624;0.5086824415930334;-0.376953125;0.72998046875;-0.45263671875;1.9375;7.8125;14.4375;
1441975939259746;0.1790771484375;-0.83770751953125;-0.496826171875;-0.1395263671875;11.430871501127736;15.042980247675823;0.5099454735206224;-0.3837890625;0.72998046875;-0.455078125;2.0;8.3125;14.125;
1441975939282748;0.177734375;-0.83868408203125;-0.49652099609375;-0.1363525390625;11.39016750730495;15.046112945783022;0.5125685241938266;-0.3720703125;0.74365234375;-0.4521484375;2.6875;9.625;14.1875;
1441975939304749;0.17669677734375;-0.8394775390625;-0.49652099609375;-0.1328125;11.347863674450151;15.047521577003064;0.5174109722953575;-0.34130859375;0.7587890625;-0.4443359375;2.75;11.125;13.25;
1441975939319750;0.1759033203125;-0.84002685546875;-0.496826171875;-0.1290283203125;11.304993340286202;15.046910648608371;0.5237942290282238;-0.32470703125;0.7802734375;-0.443359375;0.8125;12.8125;11.875;
1441975939350752;0.17523193359375;-0.84033203125;-0.49749755859375;-0.125244140625;11.263302777937803;15.043755610241947;0.5302985051769225;-0.306640625;0.77978515625;-0.44580078125;-1.875;14.0625;11.0;
1441975939356752;0.1748046875;-0.84063720703125;-0.498046875;-0.1217041015625;11.225353379460374;15.041505788108454;0.5375604660461586;-0.29345703125;0.7744140625;-0.435546875;-4.1875;13.9375;10.0;
1441975939379753;0.17425537109375;-0.8409423828125;-0.49853515625;-0.118408203125;11.189173754817169;15.039356696521144;0.5435464633219032;-0.30322265625;0.76171875;-0.44091796875;-4.25;13.8125;9.5;
1441975939400754;0.173583984375;-0.8414306640625;-0.49859619140625;-0.1153564453125;11.154365450023386;15.039788534557491;0.5487419338081576;-0.29931640625;0.75;-0.43798828125;-3.9375;12.5;9.875;
1441975939415755;0.17279052734375;-0.842041015625;-0.49853515625;-0.11273193359375;11.12283039931863;15.041005333487952;0.5522102815880457;-0.30078125;0.73095703125;-0.43359375;-1.25;11.8125;10.3125;
1441975939437757;0.171875;-0.84259033203125;-0.49822998046875;-0.1109619140625;11.099222473688764;15.043123579152246;0.5528711392901036;-0.2978515625;0.72265625;-0.4208984375;0.5;10.0;10.3125;
1441975939468758;0.17095947265625;-0.84332275390625;-0.49755859375;-0.110107421875;11.084237556461314;15.047656703274875;0.5513610764754615;-0.31005859375;0.6962890625;-0.40380859375;2.375;7.0;9.75;
1441975939474759;0.170166015625;-0.8438720703125;-0.49676513671875;-0.1104736328125;11.082385867274759;15.052412920599663;0.54713657475595;-0.30859375;0.67041015625;-0.39794921875;5.1875;3.0625;7.6875;
1441975939496760;0.1693115234375;-0.84429931640625;-0.49603271484375;-0.112060546875;11.092544050063943;15.056364559187926;0.5390170301759813;-0.3251953125;0.65283203125;-0.37939453125;7.0;-1.3125;5.0;
1441975939527762;0.16851806640625;-0.84442138671875;-0.49530029296875;-0.1153564453125;11.120621836722801;15.059394328201224;0.5263131588076143;-0.3349609375;0.6328125;-0.369140625;7.6875;-6.9375;2.3125;
1441975939533762;0.16778564453125;-0.844970703125;-0.49346923828125;-0.12017822265625;11.16328738101982;15.06935243493312;0.5109834005092913;-0.35205078125;0.607421875;-0.34326171875;8.9375;-14.5;-1.5;
1441975939555763;0.1673583984375;-0.84552001953125;-0.49102783203125;-0.126708984375;11.22467607513431;15.082656922031498;0.4932133522550539;-0.3671875;0.58251953125;-0.341796875;16.375;-19.6875;-5.625;
1441975939579765;0.16717529296875;-0.845458984375;-0.489013671875;-0.1346435546875;11.30272342186479;15.091875913105184;0.47214839806093045;-0.3857421875;0.56884765625;-0.33056640625;20.8125;-25.75;-11.4375;
1441975939593765;0.16748046875;-0.844970703125;-0.48712158203125;-0.1441650390625;11.400134224915686;15.099287734366323;0.44891467312688915;-0.39990234375;0.5517578125;-0.30908203125;19.3125;-31.9375;-16.0625;
1441975939616767;0.1683349609375;-0.844482421875;-0.48419189453125;-0.15533447265625;11.517235852252439;15.112314030681263;0.4253469637755504;-0.40869140625;0.5107421875;-0.29150390625;18.25;-38.4375;-22.4375;
1441975939639768;0.1697998046875;-0.84375;-0.4805908203125;-0.1683349609375;11.65674623492761;15.128238343926938;0.40081783649265407;-0.41064453125;0.4541015625;-0.28857421875;22.375;-44.0;-29.75;
1441975939661769;0.17181396484375;-0.84259033203125;-0.4765625;-0.18310546875;11.818176673843663;15.144997815049344;0.37483216833355304;-0.435546875;0.4404296875;-0.2919921875;26.25;-50.75;-37.9375;
1441975939677770;0.1746826171875;-0.84063720703125;-0.47222900390625;-0.1995849609375;12.003492610802514;15.161205137678456;0.3489430980686503;-0.44970703125;0.4130859375;-0.2890625;27.4375;-57.5625;-45.8125;
1441975939699771;0.1787109375;-0.8377685546875;-0.46771240234375;-0.21807861328125;12.217537306186346;15.176051035014288;0.3236808886400885;-0.48095703125;0.38916015625;-0.28759765625;27.0625;-63.6875;-54.75;
1441975939722773;0.18408203125;-0.83355712890625;-0.4632568359375;-0.23834228515625;12.459915120727594;15.1871702689597;0.3000217420640287;-0.54052734375;0.37158203125;-0.279296875;26.125;-69.5625;-64.6875;
1441975939736774;0.1904296875;-0.8282470703125;-0.4583740234375;-0.26025390625;12.727399308979289;15.197388758359743;0.27710485634464216;-0.60302734375;0.314453125;-0.251953125;22.0625;-74.625;-73.625;
1441975939758775;0.1976318359375;-0.82196044921875;-0.4530029296875;-0.28314208984375;13.01267849807385;15.207694146243753;0.25646081966245576;-0.6767578125;0.25439453125;-0.20361328125;21.9375;-77.5;-80.125;
1441975939781776;0.20574951171875;-0.81500244140625;-0.44635009765625;-0.3070068359375;13.316216216594679;15.22458990977303;0.24105882974366188;-0.724609375;0.20263671875;-0.16015625;22.3125;-78.75;-86.5625;
1441975939797777;0.2125244140625;-0.80828857421875;-0.43951416015625;-0.32916259765625;13.596529854131285;15.24135415709836;0.2236831330993025;-0.7744140625;0.16552734375;-0.1533203125;25.4375;-80.3125;-94.125;
1441975939818778;0.2197265625;-0.80023193359375;-0.4324951171875;-0.35272216796875;13.89810886887412;15.25372858216843;0.20339592180738988;-0.8046875;0.1806640625;-0.14306640625;28.625;-86.1875;-102.5;
1441975939841780;0.22723388671875;-0.79132080078125;-0.42431640625;-0.37713623046875;14.215100936500688;15.27043184055574;0.18490536466482366;-0.87255859375;0.15234375;-0.1142578125;27.3125;-93.4375;-109.625;
1441975939856780;0.23577880859375;-0.78082275390625;-0.41595458984375;-0.40216064453125;14.550306449834;15.285123064795226;0.17026341055369404;-0.9794921875;0.15869140625;-0.14404296875;30.5625;-97.25;-116.5;
1441975939887782;0.245849609375;-0.7684326171875;-0.4078369140625;-0.42755126953125;14.904469583704735;15.296163073647188;0.16212352844472455;-1.0830078125;0.16455078125;-0.14208984375;26.1875;-100.3125;-125.1875;
1441975939901783;0.25701904296875;-0.75439453125;-0.39923095703125;-0.453369140625;15.276918905747841;15.30974546065509;0.16153249581946635;-1.1787109375;0.12255859375;-0.12744140625;17.6875;-102.875;-134.3125;
1441975939915784;0.26849365234375;-0.739013671875;-0.38922119140625;-0.47998046875;15.668389884952969;15.333093936205287;0.16802583972615465;-1.3154296875;0.07666015625;-0.109375;13.5;-105.5625;-143.375;
1441975939938785;0.27862548828125;-0.72271728515625;-0.37689208984375;-0.508056640625;16.078169610406295;15.368138650997256;0.17214191914072896;-1.4287109375;0.009765625;-0.09765625;17.25;-109.875;-151.375;
1441975939961786;0.28802490234375;-0.70489501953125;-0.363037109375;-0.53704833984375;16.506135433923717;15.412744612263834;0.1792251998295021;-1.4658203125;0.009765625;-0.09814453125;30.375;-118.625;-158.25;
1441975939976787;0.29779052734375;-0.684814453125;-0.34912109375;-0.566162109375;16.951042509102745;15.46307136638706;0.197534180463576;-1.50537109375;0.0498046875;-0.1240234375;37.625;-127.625;-165.875;
1441975939998789;0.30841064453125;-0.66229248046875;-0.33502197265625;-0.59503173828125;17.413649863255944;15.56565342474495;0.2757520419470873;-1.54541015625;0.05224609375;-0.13134765625;32.1875;-135.3125;-173.4375;
1441975940022790;0.318603515625;-0.637939453125;-0.31982421875;-0.6239013671875;17.88582128811835;16.40965762540814;1.093368301780826;-1.60595703125;9.765625E-4;-0.126953125;24.875;-141.625;-181.3125;
1441975940036791;0.32806396484375;-0.61212158203125;-0.3033447265625;-0.6524658203125;17.616552472398116;6.098545025814661;8.751841412023369;-1.6845703125;-0.03564453125;-0.11181640625;27.125;-147.625;-188.4375;
1441975940067793;0.337158203125;-0.5845947265625;-0.285888671875;-0.68035888671875;17.118983252562543;6.2807140249619735;8.902947229860633;-1.79443359375;-0.04541015625;-0.09423828125;31.1875;-152.375;-194.125;
1441975940083793;0.34564208984375;-0.55548095703125;-0.26751708984375;-0.70745849609375;16.612040019909156;6.344881929391881;8.934546860042701;-1.80517578125;-0.05322265625;-0.0859375;32.125;-156.3125;-200.5625;
1441975940096794;0.35302734375;-0.52471923828125;-0.2486572265625;-0.73370361328125;16.098589711486216;6.395402857561203;8.950770023111032;-1.74462890625;-0.05810546875;-0.087890625;33.375;-161.0625;-205.75;
1441975940118795;0.35968017578125;-0.4931640625;-0.2296142578125;-0.75811767578125;15.590733220862237;6.431766549319929;8.953588002333943;-1.6875;-0.04248046875;-0.0849609375;35.4375;-166.9375;-208.3125;
1441975940141797;0.3656005859375;-0.46185302734375;-0.2108154296875;-0.78021240234375;15.101034470364214;6.458807146339533;8.948307825119931;-1.66552734375;-0.04443359375;-0.0712890625;34.25;-166.875;-207.375;
1441975940155798;0.369873046875;-0.43084716796875;-0.1917724609375;-0.800537109375;14.626567766297901;6.4879545489040265;8.939770343207273;-1.630859375;-0.0751953125;-0.06103515625;32.5625;-161.625;-201.75;
1441975940180799;0.37213134765625;-0.39996337890625;-0.17230224609375;-0.8197021484375;14.16189597830386;6.524341414066278;8.92984154869767;-1.55078125;-0.0791015625;-0.03759765625;37.125;-157.4375;-196.5625;
1441975940202800;0.37200927734375;-0.36968994140625;-0.15264892578125;-0.83770751953125;13.71276967744642;6.570037976186128;8.918708265074448;-1.4345703125;-0.0615234375;-0.0341796875;44.9375;-155.6875;-192.4375;
1441975940215801;0.37109375;-0.340087890625;-0.13372802734375;-0.85369873046875;13.28341917061986;6.613684025463725;8.90590969598237;-1.2578125;-0.015625;-0.037109375;54.625;-152.0625;-185.5;
1441975940238802;0.3697509765625;-0.3125;-0.11614990234375;-0.8673095703125;12.88957883851532;6.652545150043195;8.89096116294575;-1.0791015625;0.0390625;-0.05078125;52.8125;-146.375;-176.875;
1441975940261804;0.367919921875;-0.2869873046875;-0.1002197265625;-0.8787841796875;12.531889488156212;6.689068183551958;8.876962977080968;-0.939453125;0.05712890625;-0.04638671875;48.5;-134.1875;-162.625;
1441975940276805;0.3656005859375;-0.264404296875;-0.0860595703125;-0.8883056640625;12.21836674887565;6.723430577212674;8.863077517505975;-0.8203125;0.05859375;-0.03564453125;44.6875;-123.0625;-146.5625;
1441975940298806;0.364013671875;-0.24517822265625;-0.07391357421875;-0.89556884765625;11.953119799502648;6.7479837105810425;8.848138994622484;-0.7080078125;0.0908203125;-0.068359375;42.0;-108.6875;-129.0;
1441975940321807;0.3626708984375;-0.23431396484375;-0.0654296875;-0.899658203125;11.797052944395205;6.762235801474205;8.830503360983327;-0.59765625;0.14501953125;-0.1064453125;31.75;-91.4375;-111.0;
1441975940335808;0.3602294921875;-0.22833251953125;-0.05938720703125;-0.902587890625;11.706005588919707;6.779872241731622;8.815559030285712;-0.46923828125;0.130859375;-0.11572265625;21.9375;-68.0625;-90.375;
1441975940359809;0.35748291015625;-0.22723388671875;-0.0560302734375;-0.9041748046875;11.680353525763344;6.7959605824536125;8.803621812634628;-0.37109375;0.19970703125;-0.162109375;22.5625;-44.5625;-63.8125;
1441975940381811;0.3553466796875;-0.2310791015625;-0.056396484375;-0.90399169921875;11.724811874575671;6.805405956983875;8.79921313921523;-0.31103515625;0.30322265625;-0.22900390625;17.9375;-22.375;-39.3125;
1441975940396811;0.3551025390625;-0.24151611328125;-0.06121826171875;-0.90106201171875;11.859904716585447;6.798136056909326;8.800156620377596;-0.26025390625;0.4111328125;-0.291015625;5.5;-1.875;-11.0;
1441975940420813;0.3570556640625;-0.26025390625;-0.0711669921875;-0.894287109375;12.10834854785314;6.7689594234929285;8.803955954714764;-0.318359375;0.45751953125;-0.36376953125;-12.4375;22.6875;19.25;
1441975940449814;0.35955810546875;-0.2877197265625;-0.08551025390625;-0.883544921875;12.474341210559354;6.72469098028153;8.805317901885179;-0.47802734375;0.49072265625;-0.4208984375;-34.125;51.3125;52.4375;
1441975940456815;0.36114501953125;-0.3150634765625;-0.1005859375;-0.8719482421875;12.846429887937267;6.683519164279513;8.809053080913259;-0.61865234375;0.49609375;-0.49755859375;-44.625;84.375;86.5;
1441975940478816;0.36248779296875;-0.34503173828125;-0.11810302734375;-0.85772705078125;13.264454823733686;6.636703333831701;8.81473852052565;-0.8603515625;0.59814453125;-0.6044921875;-43.1875;112.8125;121.125;
1441975940501817;0.3609619140625;-0.3818359375;-0.138916015625;-0.83941650390625;13.78438280979519;6.592722948868457;8.818729068977955;-1.0625;0.8115234375;-0.765625;-50.375;140.0;155.375;
1441975940515818;0.35491943359375;-0.427001953125;-0.16265869140625;-0.815673828125;14.429033142271454;6.5534165075502075;8.814603675078283;-1.30810546875;0.87158203125;-0.86669921875;-47.0625;173.0625;194.4375;
1441975940538819;0.3494873046875;-0.47821044921875;-0.19342041015625;-0.78216552734375;15.203777025715684;6.475880264278772;8.806279304657552;-1.58935546875;1.07958984375;-0.95703125;-36.1875;215.625;240.0625;
1441975940561821;0.3399658203125;-0.5352783203125;-0.2298583984375;-0.73834228515625;16.119939473866683;6.371406572745469;8.78180462104763;-1.92919921875;1.12451171875;-0.99609375;-70.3125;254.125;292.75;
1441975940576822;0.32110595703125;-0.5970458984375;-0.26690673828125;-0.68505859375;17.161771936349783;6.18685573989748;8.6506208586054;-2.42578125;0.77392578125;-0.88671875;-82.0625;293.125;353.75;
1441975940607823;0.3001708984375;-0.65618896484375;-0.30743408203125;-0.620361328125;17.703763228325005;16.15433692749549;0.6996611418119235;-2.765625;0.98095703125;-0.9306640625;-56.5625;329.125;406.6875;
1441975940621824;0.279052734375;-0.7059326171875;-0.3525390625;-0.54730224609375;16.579810343682563;15.419856541687;0.09452632421589874;-3.2392578125;1.18505859375;-1.0439453125;-85.3125;348.6875;440.3125;
1441975940635825;0.25201416015625;-0.74969482421875;-0.39312744140625;-0.46905517578125;15.433474275833166;15.270556512854602;0.059993568145659884;-3.7607421875;1.05078125;-1.18896484375;-133.3125;338.25;456.3125;
1441975940658826;0.22320556640625;-0.7823486328125;-0.42822265625;-0.39349365234375;14.37824633832486;15.160672362750235;0.05936088213559758;-3.97265625;1.04541015625;-1.2451171875;-116.625;335.8125;467.0;
1441975940681828;0.20208740234375;-0.79852294921875;-0.468505859375;-0.319580078125;13.440030816471252;14.99803856316197;0.09340221603519068;-3.89404296875;1.3232421875;-1.23681640625;-109.5625;298.375;437.25;
1441975940695828;0.1890869140625;-0.793212890625;-0.520263671875;-0.25396728515625;12.6839957032927;14.716527026050471;0.12786355829931223;-3.95166015625;1.6806640625;-1.158203125;-188.875;265.3125;389.0625;
1441975940718830;0.180419921875;-0.77166748046875;-0.57794189453125;-0.19512939453125;12.06395999825232;14.365146827823299;0.176233842040769;-4.212890625;1.4833984375;-0.9287109375;-304.375;196.25;325.4375;
1441975940741831;0.16802978515625;-0.74737548828125;-0.626708984375;-0.14337158203125;11.514204349358046;14.052359655664;0.22634490079813205;-4.16064453125;0.20751953125;-0.62646484375;-378.875;148.1875;276.1875;
1441975940755832;0.15667724609375;-0.7176513671875;-0.671142578125;-0.10064697265625;11.077610656252666;13.74234293625206;0.2754836182128937;-3.6904296875;-0.2041015625;-0.3974609375;-336.5625;110.5625;256.25;
