1441975897740372;-0.15106201171875;0.7213134765625;0.67144775390625;0.0770263671875;10.830141944287773;13.76090658455524;0.34633905616552796;-2.58984375;-0.61669921875;-0.16845703125;-320.0625;76.25;175.625;
1441975897762373;-0.142578125;0.71392822265625;0.68316650390625;0.05609130859375;10.595791564197258;13.679389287854793;0.37938851775820964;-1.91259765625;-0.80517578125;0.01806640625;-227.25;53.75;157.9375;
1441975897779374;-0.1343994140625;0.71624755859375;0.68365478515625;0.0389404296875;10.386020744786482;13.68358615424107;0.41241635264425064;-1.357421875;-0.583984375;-0.04296875;-92.1875;42.1875;139.375;
1441975897800375;-0.133544921875;0.71685791015625;0.68365478515625;0.02886962890625;10.294421344380744;13.686807904559434;0.448637278452098;-0.87548828125;-0.109375;-0.13427734375;-6.8125;38.8125;117.875;
1441975897822376;-0.1346435546875;0.71258544921875;0.6881103515625;0.02313232421875;10.26080482420757;13.652367137991304;0.4720154431289535;-0.583984375;0.1630859375;-0.07958984375;-9.375;39.25;80.3125;
1441975897840377;-0.13494873046875;0.70526123046875;0.69561767578125;0.02008056640625;10.247965487852596;13.591914485187223;0.4788113257720067;-0.3896484375;0.06494140625;-0.00732421875;-40.0625;25.3125;40.5625;
1441975897860378;-0.135498046875;0.6947021484375;0.70611572265625;0.0191650390625;10.259136816189978;13.50588312997055;0.4753810308052839;-0.18603515625;0.1953125;0.0439453125;-58.3125;8.0;15.5;
1441975897882380;-0.1378173828125;0.68206787109375;0.71783447265625;0.02044677734375;10.304825483037066;13.407360432721957;0.4686629891169163;-0.1484375;0.3671875;0.0791015625;-79.875;-2.0;-0.875;
1441975897899381;-0.14093017578125;0.6708984375;0.72760009765625;0.0233154296875;10.367340173839963;13.323031421330517;0.4595065642360634;-0.3056640625;0.33203125;0.14794921875;-88.0;-4.5625;-7.5625;
1441975897920382;-0.14398193359375;0.6619873046875;0.7349853515625;0.027099609375;10.433282958547846;13.257284532439588;0.4477345452563008;-0.42822265625;0.38037109375;0.1748046875;-71.8125;-5.9375;-9.1875;
1441975897942383;-0.146484375;0.65338134765625;0.74200439453125;0.03204345703125;10.50265791620835;13.193192438482972;0.42835282436797434;-0.4404296875;0.5634765625;0.14404296875;-56.625;-9.1875;-13.75;
1441975897959384;-0.1484375;0.6456298828125;0.74810791015625;0.037353515625;10.568485165323056;13.135407318880908;0.40541208503883996;-0.40625;0.6630859375;0.13818359375;-54.875;-15.4375;-20.875;
1441975897981385;-0.14923095703125;0.6390380859375;0.7532958984375;0.04266357421875;10.622328437530909;13.084881716062348;0.37841313110839647;-0.37109375;0.66455078125;0.15576171875;-46.875;-18.5;-23.125;
1441975898002387;-0.14947509765625;0.6341552734375;0.75701904296875;0.048095703125;10.669900114402362;13.046743867129573;0.35013720898746675;-0.328125;0.70166015625;0.22998046875;-34.6875;-20.6875;-22.3125;
1441975898019388;-0.14959716796875;0.62939453125;0.7606201171875;0.0538330078125;10.717853283737803;13.009042190557203;0.31977863772957066;-0.34375;0.8251953125;0.2431640625;-22.8125;-21.8125;-21.3125;
1441975898047389;-0.149169921875;0.62457275390625;0.7642822265625;0.0592041015625;10.757643648630937;12.970212701324293;0.2884944436432475;-0.35498046875;0.8671875;0.2451171875;-22.625;-23.6875;-23.0;
1441975898062390;-0.148193359375;0.62005615234375;0.76776123046875;0.06402587890625;10.787596109832124;12.93303056987429;0.2576037058438668;-0.36181640625;0.9052734375;0.24658203125;-24.3125;-25.3125;-20.0625;
1441975898079391;-0.14697265625;0.61578369140625;0.77105712890625;0.06793212890625;10.807923857472927;12.897782667283899;0.2300401061304166;-0.3701171875;0.9072265625;0.2431640625;-23.875;-25.75;-15.6875;
1441975898100392;-0.1453857421875;0.61175537109375;0.77423095703125;0.0711669921875;10.819399443166343;12.86411333795469;0.2042951306206225;-0.36962890625;0.90966796875;0.24755859375;-23.3125;-23.3125;-11.0;
1441975898124394;-0.1436767578125;0.60809326171875;0.77716064453125;0.07440185546875;10.829000699422078;12.83289000400456;0.17842449279260691;-0.37939453125;0.9365234375;0.26220703125;-22.375;-22.5;-6.625;
1441975898139394;-0.1417236328125;0.60516357421875;0.77947998046875;0.07763671875;10.83566426317621;12.807110933790216;0.1525099301848116;-0.38525390625;0.9345703125;0.265625;-20.4375;-23.0625;-5.875;
1441975898160396;-0.14007568359375;0.601806640625;0.78204345703125;0.08062744140625;10.843152680389057;12.778769029856816;0.12836027149441165;-0.37744140625;0.97412109375;0.2470703125;-17.125;-23.625;-6.375;
1441975898182397;-0.138671875;0.5989990234375;0.7841796875;0.08355712890625;10.851812998219184;12.754740688334767;0.10601700607068229;-0.365234375;0.9521484375;0.259765625;-19.625;-21.75;-6.5;
1441975898199398;-0.1378173828125;0.59661865234375;0.78582763671875;0.0863037109375;10.86391910271604;12.73495976739577;0.08712091072141383;-0.3896484375;0.88720703125;0.25390625;-16.0;-20.1875;-4.4375;
1441975898220399;-0.1375732421875;0.59356689453125;0.787841796875;0.08905029296875;10.881585054488903;12.711007244010197;0.06963417440938513;-0.4189453125;0.890625;0.2529296875;-13.1875;-17.5;-3.75;
1441975898242400;-0.1385498046875;0.5889892578125;0.790771484375;0.09197998046875;10.911776179807301;12.677038535685952;0.05379243877510793;-0.4306640625;0.9150390625;0.251953125;-18.75;-15.6875;-5.8125;
1441975898258401;-0.14093017578125;0.58392333984375;0.793701171875;0.0955810546875;10.959455475778363;12.640932769165536;0.03910768816280982;-0.45849609375;0.859375;0.27880859375;-27.5625;-12.5;-9.625;
1441975898280402;-0.14471435546875;0.5797119140625;0.7955322265625;0.099853515625;11.024738188017935;12.612977685638516;0.027216693380159095;-0.47802734375;0.73193359375;0.30029296875;-26.3125;-8.4375;-13.625;
1441975898302404;-0.15057373046875;0.57659912109375;0.79608154296875;0.1051025390625;11.11595808484548;12.595184078767272;0.019357455038113126;-0.5029296875;0.62109375;0.30517578125;-17.4375;-3.625;-18.0625;
1441975898326405;-0.158935546875;0.574951171875;0.79473876953125;0.11187744140625;11.241358207959195;12.591402846968867;0.015289688691160794;-0.55859375;0.50390625;0.28369140625;-7.625;2.625;-23.75;
1441975898347406;-0.17010498046875;0.57513427734375;0.791015625;0.1204833984375;11.406202167243501;12.60540975535227;0.01586984189248587;-0.62548828125;0.3896484375;0.2646484375;6.0625;10.3125;-33.125;
1441975898362407;-0.18408203125;0.5748291015625;0.78643798828125;0.13104248046875;11.611694886886587;12.62049290649036;0.017605596414809226;-0.7109375;0.4052734375;0.208984375;18.625;17.875;-46.375;
1441975898378408;-0.20068359375;0.5738525390625;0.7808837890625;0.143310546875;11.855147480826249;12.636527467042594;0.02122704723779084;-0.751953125;0.36572265625;0.1962890625;19.0625;24.375;-63.9375;
1441975898402409;-0.22015380859375;0.572509765625;0.77410888671875;0.15625;12.131954540798484;12.658124839314409;0.0341136387173481;-0.79345703125;0.37109375;0.1611328125;17.0;30.25;-81.0;
1441975898422411;-0.23931884765625;0.57037353515625;0.7677001953125;0.167236328125;12.393576377397373;12.678201052466848;0.05604037307136539;-0.830078125;0.419921875;0.08544921875;13.0;39.9375;-96.875;
1441975898445412;-0.26141357421875;0.5667724609375;0.760498046875;0.178955078125;12.690517869901555;12.698445359346263;0.08648109893610958;-0.88037109375;0.4326171875;0.00146484375;6.1875;51.8125;-112.125;
1441975898461413;-0.2860107421875;0.56121826171875;0.75262451171875;0.191650390625;13.021596508944869;12.7158470597479;0.12214902102432788;-0.91357421875;0.435546875;-0.06982421875;0.0;61.125;-127.9375;
1441975898482414;-0.312744140625;0.55340576171875;0.743896484375;0.20623779296875;13.39139147945346;12.7277292905416;0.1564055301684347;-0.96728515625;0.46630859375;-0.04736328125;-7.0;67.875;-144.5;
1441975898498415;-0.34149169921875;0.5411376953125;0.73553466796875;0.22235107421875;13.799436217638934;12.715283126220402;0.18205425034257333;-0.94873046875;0.62841796875;-0.1298828125;-14.875;69.625;-167.5625;
1441975898521416;-0.37127685546875;0.5250244140625;0.7274169921875;0.2393798828125;14.233134160061223;12.677971562291443;0.1951869329629244;-0.9462890625;0.60791015625;-0.166015625;-34.875;67.0;-188.9375;
1441975898542417;-0.4000244140625;0.5096435546875;0.71673583984375;0.25787353515625;14.675144864047182;12.649129598319774;0.19916781730184444;-0.984375;0.4228515625;-0.1455078125;-50.125;63.4375;-202.125;
1441975898558418;-0.42681884765625;0.4971923828125;0.7022705078125;0.2781982421875;15.118280889033036;12.648245986870613;0.20035231119997238;-1.02392578125;0.33349609375;-0.1103515625;-34.25;61.5625;-206.4375;
1441975898581420;-0.45184326171875;0.4864501953125;0.68524169921875;0.29931640625;15.557467519460467;12.668387377597206;0.2038006098731342;-0.98779296875;0.3505859375;-0.0224609375;-3.25;62.4375;-209.1875;
1441975898602421;-0.4757080078125;0.47454833984375;0.6680908203125;0.31951904296875;15.987606681976226;12.681649056221566;0.2046681487383269;-0.99169921875;0.46533203125;-0.03515625;15.8125;62.5;-210.375;
1441975898618422;-0.49749755859375;0.4622802734375;0.651123046875;0.33868408203125;16.397022613799802;12.685340226462912;0.196429098660442;-1.0927734375;0.41552734375;-0.03076171875;11.5;59.4375;-206.875;
1441975898641423;-0.51513671875;0.45257568359375;0.6329345703125;0.35931396484375;16.780212587242858;12.681803958462456;0.15509665503033448;-1.15283203125;0.30712890625;-0.0029296875;11.0625;53.25;-197.125;
1441975898662424;-0.529052734375;0.44573974609375;0.6129150390625;0.3817138671875;17.144258721780442;12.664349785244216;0.07169452159026037;-1.1748046875;0.298828125;0.146484375;36.6875;45.5;-187.625;
1441975898678425;-0.54046630859375;0.4400634765625;0.59259033203125;0.40374755859375;17.485055346132977;12.577078841897738;17.909496029362696;-1.1171875;0.3642578125;0.095703125;64.6875;38.375;-182.375;
1441975898701427;-0.54986572265625;0.435302734375;0.57177734375;0.42572021484375;17.8062091265759;12.056622375616277;17.305478107092743;-1.234375;0.36083984375;0.06689453125;73.5625;33.3125;-172.75;
1441975898722428;-0.55621337890625;0.432373046875;0.550048828125;0.44842529296875;17.860663292319696;5.375912665557383;10.523256505832725;-1.3115234375;0.34130859375;0.05224609375;82.5625;30.6875;-166.4375;
1441975898738429;-0.55615234375;0.43389892578125;0.52618408203125;0.474853515625;17.58869262323759;4.691148153398679;9.689395475838642;-1.28076171875;0.24755859375;0.1005859375;100.625;27.25;-157.625;
1441975898761430;-0.5494384765625;0.43914794921875;0.50128173828125;0.50384521484375;17.34609100858845;4.762267631981629;9.571555266672307;-1.2822265625;0.19189453125;0.091796875;148.1875;15.6875;-144.4375;
1441975898782431;-0.539794921875;0.4443359375;0.477294921875;0.53228759765625;17.12485703078918;4.921947879103816;9.538224893146724;-1.23779296875;0.37841796875;0.05908203125;188.5625;2.4375;-130.75;
1441975898798432;-0.53057861328125;0.447509765625;0.45611572265625;0.55682373046875;16.926632732339453;5.062276780126463;9.511517922066336;-1.103515625;0.5234375;0.02392578125;192.3125;-8.5;-122.25;
1441975898821433;-0.5263671875;0.44635009765625;0.4404296875;0.57415771484375;16.749528931575593;5.13156884533106;9.47675307543326;-0.978515625;0.63671875;0.01220703125;166.3125;-12.5;-112.5625;
1441975898844435;-0.52471923828125;0.444580078125;0.4351806640625;0.5810546875;16.67444914083688;5.181401056100455;9.49178184927307;-0.849609375;0.7158203125;0.05322265625;102.6875;-10.875;-103.5625;
1441975898858436;-0.52691650390625;0.44036865234375;0.4337158203125;0.58331298828125;16.61386908249843;5.185763539522345;9.503773952985938;-0.78515625;0.595703125;0.11083984375;31.375;-6.875;-88.1875;
1441975898881437;-0.53082275390625;0.43621826171875;0.43487548828125;0.58203125;16.58199608256147;5.158587837187416;9.506856923334746;-0.7451171875;0.41943359375;0.162109375;-11.8125;-1.875;-69.375;
1441975898902438;-0.535400390625;0.4327392578125;0.43890380859375;0.57745361328125;16.58704747752426;5.117020491451966;9.513415132793536;-0.74755859375;0.36669921875;0.15478515625;-34.0;2.8125;-52.625;
1441975898918439;-0.53936767578125;0.43017578125;0.444580078125;0.57122802734375;16.619592458974147;5.080125923734101;9.529750337483339;-0.74609375;0.3818359375;0.10986328125;-51.0;3.375;-35.75;
1441975898941440;-0.5423583984375;0.42950439453125;0.4521484375;0.5628662109375;16.692474466557016;5.043139471571371;9.549299737937716;-0.75927734375;0.3095703125;0.1015625;-55.5625;3.5625;-16.75;
1441975898963442;-0.544677734375;0.42974853515625;0.461669921875;0.5526123046875;16.796254993569868;5.013283183669625;9.582387162765103;-0.7900390625;0.3330078125;0.05029296875;-58.0625;3.375;1.8125;
1441975898978442;-0.5458984375;0.4307861328125;0.47265625;0.54119873046875;16.924759418672433;5.005073687351388;9.639096028852183;-0.8154296875;0.3212890625;0.02392578125;-63.1875;1.4375;18.375;
1441975899001444;-0.54522705078125;0.43310546875;0.484130859375;0.52978515625;17.072249519664346;5.039927038381289;9.731011775244287;-0.8447265625;0.28369140625;0.00830078125;-64.5;-1.3125;34.6875;
1441975899024445;-0.54168701171875;0.4375;0.49560546875;0.5191650390625;17.239639157500314;5.162475171368555;9.894029592410803;-0.859375;0.21826171875;0.00244140625;-56.375;-4.5;50.8125;
1441975899038446;-0.53472900390625;0.44464111328125;0.50665283203125;0.509521484375;17.426918892887024;5.454871010429077;10.205134331668141;-0.8759765625;0.16162109375;-0.0087890625;-38.8125;-8.5;67.625;
1441975899061447;-0.52459716796875;0.4544677734375;0.51715087890625;0.500732421875;17.620215640562364;6.168750832248807;10.916915766560805;-0.88134765625;0.14892578125;-0.03076171875;-16.6875;-12.9375;83.5;
1441975899082448;-0.51226806640625;0.46514892578125;0.52685546875;0.4935302734375;17.741401549551988;7.994816991823622;12.72540193524442;-0.9072265625;0.14990234375;-0.04638671875;4.25;-15.9375;98.375;
1441975899098449;-0.4979248046875;0.47735595703125;0.5361328125;0.48651123046875;17.68159035976253;10.475648492482717;15.176855367727839;-0.93994140625;0.15576171875;-0.06787109375;20.125;-18.25;110.1875;
1441975899121451;-0.4820556640625;0.49078369140625;0.5447998046875;0.4794921875;17.483242873860142;11.678951712826693;16.34122971369686;-0.98095703125;0.154296875;-0.08544921875;31.875;-19.4375;119.25;
1441975899142452;-0.46490478515625;0.50531005859375;0.55279541015625;0.47210693359375;17.238128284475543;12.226937739534323;16.842607333872003;-1.00537109375;0.150390625;-0.08154296875;41.5;-19.4375;126.3125;
1441975899158453;-0.44671630859375;0.5211181640625;0.5596923828125;0.4642333984375;16.97364972945817;12.556003513310474;17.11657504375215;-1.033203125;0.1240234375;-0.07470703125;49.5;-17.3125;133.25;
1441975899181454;-0.42791748046875;0.538330078125;0.56524658203125;0.45556640625;16.697956934787374;12.80485440068007;17.30274250326325;-1.03759765625;0.11181640625;-0.03662109375;58.0;-12.25;139.3125;
1441975899203455;-0.409423828125;0.5562744140625;0.5697021484375;0.44537353515625;16.415657837245284;13.016592150621655;17.451447998767986;-1.0322265625;0.1328125;-0.017578125;66.4375;-3.8125;144.5;
1441975899218456;-0.39208984375;0.57379150390625;0.57366943359375;0.43341064453125;16.1319163565755;13.195564281455368;17.575229822086364;-1.0322265625;0.18603515625;-0.00732421875;67.375;6.375;147.3125;
1441975899241457;-0.37646484375;0.58990478515625;0.57794189453125;0.41973876953125;15.85041838095176;13.339757248163888;17.678661453115314;-1.03857421875;0.23291015625;-0.01171875;60.375;16.0;147.5625;
1441975899262459;-0.3629150390625;0.60394287109375;0.58294677734375;0.404541015625;15.575797121682207;13.450972058769644;17.76744500248015;-1.0478515625;0.27734375;-0.009765625;47.0625;23.5625;145.25;
1441975899279460;-0.35162353515625;0.61553955078125;0.5888671875;0.38812255859375;15.312433218172725;13.532477259881643;17.846371476939304;-1.048828125;0.314453125;-0.01416015625;29.3125;29.0625;140.9375;
1441975899301461;-0.34259033203125;0.62469482421875;0.595458984375;0.37115478515625;15.066463892928507;13.589395294382363;17.918200863329826;-1.03271484375;0.333984375;-0.025390625;10.125;33.25;134.4375;
1441975899324462;-0.33551025390625;0.63177490234375;0.6024169921875;0.35394287109375;14.838105122287265;13.628605991133576;17.98629114874085;-1.03076171875;0.33642578125;-0.03662109375;-6.6875;36.1875;126.125;
1441975899338463;-0.33026123046875;0.63720703125;0.60931396484375;0.33697509765625;14.630237127881703;13.656491804325137;0.052893760668005566;-1.013671875;0.3271484375;-0.046875;-19.75;38.625;117.0625;
1441975899361464;-0.3282470703125;0.64044189453125;0.6151123046875;0.322021484375;14.471727791467178;13.677929845150398;0.12049836920893962;-0.97802734375;0.3251953125;-0.060546875;-28.5625;40.5;106.6875;
1441975899384466;-0.32806396484375;0.64215087890625;0.62054443359375;0.30792236328125;14.339081381371585;13.692765799381704;0.1883453980846576;-0.93017578125;0.33642578125;-0.0634765625;-36.0625;41.75;95.125;
1441975899406467;-0.3294677734375;0.64239501953125;0.62579345703125;0.295166015625;14.233668727572667;13.699337270331275;0.2529142462128476;-0.90380859375;0.3359375;-0.08544921875;-42.6875;41.75;82.625;
1441975899421468;-0.33221435546875;0.64154052734375;0.63037109375;0.283935546875;14.155501877722665;13.70270072851032;0.3152996461508773;-0.88232421875;0.32666015625;-0.08447265625;-47.25;40.625;69.6875;
1441975899444469;-0.33599853515625;0.639892578125;0.63421630859375;0.2744140625;14.102926904220395;13.70437254831539;0.37430241234795086;-0.86474609375;0.31591796875;-0.09521484375;-48.875;38.4375;56.5625;
1441975899458470;-0.3408203125;0.63763427734375;0.63726806640625;0.26666259765625;14.0758699668538;13.7063169233042;0.4308075262785311;-0.8388671875;0.31494140625;-0.10107421875;-47.8125;36.1875;43.25;
1441975899482471;-0.3465576171875;0.6348876953125;0.63934326171875;0.26080322265625;14.074423287503315;13.710291733447974;0.48477716228067846;-0.81298828125;0.31640625;-0.09814453125;-45.0625;33.75;29.875;
1441975899504472;-0.3531494140625;0.6317138671875;0.640380859375;0.25689697265625;14.098482964423154;13.717276365374786;0.5363398764367145;-0.7958984375;0.3134765625;-0.0986328125;-41.0;31.3125;16.3125;
1441975899518473;-0.36053466796875;0.6280517578125;0.640625;0.25518798828125;14.149118281909942;13.725294213386507;0.5833666848390149;-0.79248046875;0.3203125;-0.10400390625;-36.4375;28.5625;3.0;
1441975899541475;-0.368408203125;0.62408447265625;0.63970947265625;0.25579833984375;14.225407556349534;13.736841622368;0.6254034530443396;-0.80322265625;0.30712890625;-0.09619140625;-31.8125;25.0625;-9.625;
1441975899564476;-0.376220703125;0.62042236328125;0.6375732421875;0.2587890625;14.321648922853093;13.753888224529675;0.6605462356679365;-0.81982421875;0.28955078125;-0.09130859375;-24.375;20.625;-20.875;
1441975899585477;-0.3836669921875;0.6170654296875;0.63427734375;0.26385498046875;14.433281120089866;13.775806040911835;0.6885425458116351;-0.833984375;0.28564453125;-0.08935546875;-13.75;15.375;-31.0625;
1441975899601478;-0.39105224609375;0.61376953125;0.63006591796875;0.270751953125;14.560859312622178;13.801568198869763;0.7115644035534484;-0.841796875;0.31005859375;-0.08203125;-2.5;9.9375;-40.6875;
1441975899624479;-0.3985595703125;0.60968017578125;0.62567138671875;0.27923583984375;14.705850657621136;13.822691374056232;0.7272648599858254;-0.85791015625;0.341796875;-0.0888671875;4.625;4.9375;-50.75;
1441975899645481;-0.40631103515625;0.60479736328125;0.62091064453125;0.2889404296875;14.866757107614553;13.841601477261532;0.7391001844059176;-0.87158203125;0.35595703125;-0.0703125;6.8125;0.5625;-60.875;
1441975899661481;-0.41412353515625;0.599365234375;0.6158447265625;0.2999267578125;15.041679206504556;13.857914394519124;0.7454090319357343;-0.88427734375;0.34814453125;-0.05810546875;8.3125;-2.8125;-69.5625;
1441975899684483;-0.42156982421875;0.59344482421875;0.6104736328125;0.31207275390625;15.226889352525964;13.86938526279053;0.7430055241607398;-0.90380859375;0.3369140625;-0.0400390625;10.9375;-6.25;-76.75;
1441975899705484;-0.4285888671875;0.58721923828125;0.6048583984375;0.32489013671875;15.417183515260275;13.876626274159573;0.7334987580370738;-0.93017578125;0.33984375;-0.02392578125;14.25;-10.375;-82.4375;
1441975899721485;-0.4354248046875;0.580322265625;0.5994873046875;0.33795166015625;15.611174582598881;13.87440820160122;0.7161548932074973;-0.94921875;0.3466796875;-0.0146484375;16.625;-13.8125;-87.25;
1441975899744486;-0.44232177734375;0.5726318359375;0.5943603515625;0.35089111328125;15.808081609664496;13.862961940992957;0.6933536742922259;-0.978515625;0.36279296875;-4.8828125E-4;14.8125;-16.375;-90.875;
1441975899765487;-0.44940185546875;0.56390380859375;0.58990478515625;0.36334228515625;16.005681211774444;13.836277448470101;0.6624146714526993;-0.994140625;0.36669921875;0.0;10.8125;-18.0;-94.5;
1441975899787489;-0.45654296875;0.55438232421875;0.586181640625;0.37493896484375;16.198802410498114;13.793130823027392;0.6222501223570449;-1.01025390625;0.35498046875;0.015625;3.6875;-19.125;-96.125;
1441975899804490;-0.463623046875;0.54437255859375;0.5831298828125;0.385498046875;16.383717828879174;13.733254734695501;0.571663875688188;-1.00634765625;0.33447265625;0.0263671875;-3.8125;-19.625;-95.4375;
1441975899825491;-0.47088623046875;0.533935546875;0.58038330078125;0.395263671875;16.564480844893883;13.658892435523844;0.5116006851955688;-1.0078125;0.31201171875;0.03857421875;-10.25;-19.0;-92.0;
1441975899849492;-0.47705078125;0.5245361328125;0.5782470703125;0.403564453125;16.719342103571876;13.570856991817854;0.4377978846428857;-1.01171875;0.22412109375;0.05126953125;-15.25;-17.875;-86.875;
1441975899864493;-0.48248291015625;0.51605224609375;0.5762939453125;0.4107666015625;16.855432676434113;13.474817382214006;0.3550325235409641;-1.0068359375;0.27197265625;0.0419921875;-15.375;-16.9375;-79.5625;
1441975899885494;-0.48907470703125;0.50665283203125;0.574951171875;0.41644287109375;16.989426003011715;13.367652105275567;0.273324649523569;-1.01220703125;0.267578125;0.03955078125;-14.6875;-15.3125;-72.375;
1441975899909496;-0.49444580078125;0.4986572265625;0.57421875;0.42083740234375;17.09603840848204;13.249956325681092;0.17903782302258464;-1.01806640625;0.17041015625;0.0185546875;-26.9375;-13.0625;-66.875;
1441975899924496;-0.4986572265625;0.49237060546875;0.57305908203125;0.4248046875;17.18493208140459;13.14000936538473;0.08431674318393052;-0.99755859375;0.21044921875;0.01904296875;-24.4375;-11.8125;-57.8125;
1441975899945498;-0.50164794921875;0.4876708984375;0.5718994140625;0.42822265625;17.253743747209743;13.035381906610322;17.98847706479096;-0.98779296875;0.2099609375;0.01708984375;-16.625;-9.375;-50.6875;
1441975899961499;-0.50335693359375;0.484619140625;0.57086181640625;0.43109130859375;17.301473828098366;12.942913927812931;17.898343269227052;-0.98095703125;0.22265625;0.0107421875;-9.8125;-8.6875;-42.375;
1441975899991500;-0.50360107421875;0.4832763671875;0.5697021484375;0.433837890625;17.330760004215247;12.865340366582839;17.814023522356425;-0.9697265625;0.2353515625;0.0;-3.375;-8.5625;-33.875;
1441975900005501;-0.50244140625;0.48358154296875;0.5684814453125;0.43646240234375;17.342273582440512;12.808696091465889;17.74206508771822;-0.96533203125;0.24072265625;-0.00146484375;5.5;-8.75;-25.875;
1441975900020502;-0.500244140625;0.485107421875;0.5673828125;0.43865966796875;17.338093459365332;12.777213768617038;17.69040518069556;-0.9599609375;0.26708984375;-0.01123046875;14.125;-9.4375;-18.4375;
1441975900044503;-0.49749755859375;0.4873046875;0.56671142578125;0.4403076171875;17.321706627875738;12.762692824278256;17.655006053101044;-0.94970703125;0.2880859375;-0.0322265625;19.0625;-10.3125;-12.1875;
1441975900065505;-0.49432373046875;0.48968505859375;0.56658935546875;0.44134521484375;17.295055436807058;12.752433814477442;17.625497507151028;-0.9365234375;0.29833984375;-0.0400390625;19.8125;-10.6875;-6.5;
1441975900096506;-0.49102783203125;0.4923095703125;0.56683349609375;0.4417724609375;17.261239642113846;12.756714082567498;17.612292670030484;-0.927734375;0.29638671875;-0.02783203125;18.25;-10.875;-1.125;
1441975900104507;-0.4876708984375;0.49505615234375;0.56744384765625;0.441650390625;17.22151326555736;12.769956682885155;17.610163679027256;-0.9228515625;0.2783203125;-0.0302734375;16.125;-10.25;4.25;
1441975900125508;-0.48406982421875;0.4981689453125;0.568359375;0.44085693359375;17.17332479453832;12.797712334790742;17.623630910541877;-0.92041015625;0.26220703125;-0.01953125;14.6875;-9.0;9.625;
1441975900140509;-0.48040771484375;0.501708984375;0.5694580078125;0.439453125;17.118680793881843;12.841634160001917;17.654140133002546;-0.9228515625;0.251953125;-0.013671875;13.625;-7.3125;15.0625;
1441975900163510;-0.4766845703125;0.50567626953125;0.5706787109375;0.43743896484375;17.057761708748952;12.899032089669083;17.698835418653694;-0.92041015625;0.2421875;-0.013671875;12.8125;-5.1875;20.4375;
1441975900185511;-0.4727783203125;0.510009765625;0.57208251953125;0.43475341796875;16.989043448098528;12.963803238759636;17.751814530509915;-0.9375;0.2314453125;-0.009765625;12.6875;-2.875;25.6875;
1441975900201512;-0.46893310546875;0.51470947265625;0.5736083984375;0.431396484375;16.9143258012305;13.037032751111525;17.81465987959875;-0.94189453125;0.23095703125;-0.00927734375;11.8125;-0.625;30.8125;
1441975900223514;-0.46502685546875;0.51971435546875;0.5753173828125;0.4273681640625;16.83240667367452;13.1126367294955;17.881305037944728;-0.9443359375;0.22802734375;-0.0087890625;10.875;2.0;35.5625;
1441975900248515;-0.46124267578125;0.52490234375;0.57708740234375;0.42266845703125;16.745532244767336;13.1905978457945;17.95226788712768;-0.958984375;0.22509765625;-0.00634765625;9.75;4.75;40.25;
1441975900260516;-0.4576416015625;0.5301513671875;0.5789794921875;0.4173583984375;16.65448013825712;13.266914981835244;0.02406910279368802;-0.966796875;0.22119140625;-0.01220703125;7.875;7.125;44.3125;
1441975900283517;-0.4542236328125;0.53546142578125;0.5810546875;0.4114990234375;16.559167555669916;13.33967790532147;0.09478828585542247;-0.96728515625;0.21435546875;-0.01611328125;5.875;9.375;48.125;
1441975900306518;-0.45098876953125;0.54083251953125;0.58294677734375;0.40521240234375;16.462068530357318;13.412121898709904;0.1662889624496502;-0.9599609375;0.20263671875;-0.01025390625;3.875;11.9375;51.5;
1441975900327520;-0.44805908203125;0.54644775390625;0.58453369140625;0.39862060546875;16.364173695928795;13.487631074743827;0.24103694087553446;-0.96240234375;0.2001953125;-0.01123046875;3.0;15.0625;53.625;
1441975900343520;-0.44537353515625;0.55206298828125;0.58599853515625;0.3917236328125;16.265263944959738;13.560435698119065;0.3143389040412216;-0.9599609375;0.2109375;-0.01953125;3.0625;17.9375;54.1875;
1441975900366522;-0.44317626953125;0.55743408203125;0.5872802734375;0.38458251953125;16.168683837851482;13.630761744695219;0.38748735966959325;-0.9560546875;0.23583984375;-0.0263671875;2.375;20.5;53.3125;
1441975900381523;-0.441650390625;0.56201171875;0.5888671875;0.377197265625;16.076378191999122;13.690314219301536;0.45572438470779913;-0.951171875;0.265625;-0.0380859375;-0.25;22.25;50.75;
1441975900411524;-0.44085693359375;0.565673828125;0.59075927734375;0.36968994140625;15.990431734672782;13.739359945389781;0.519508353772136;-0.94140625;0.28857421875;-0.04248046875;-5.3125;23.25;47.3125;
1441975900434526;-0.44073486328125;0.56829833984375;0.59283447265625;0.3623046875;15.91358621274144;13.777905626716347;0.5779882347967059;-0.9306640625;0.30078125;-0.0439453125;-11.5;23.375;43.6875;
1441975900441526;-0.44122314453125;0.57012939453125;0.594970703125;0.35528564453125;15.846599747309911;13.808964318541133;0.6321899910786937;-0.9287109375;0.2939453125;-0.0478515625;-16.8125;23.0;40.0625;
1441975900463527;-0.4420166015625;0.5714111328125;0.59698486328125;0.34881591796875;15.78854009127436;13.834280153632916;0.6812000821385618;-0.92578125;0.28125;-0.048828125;-20.0625;22.125;36.8125;
1441975900486529;-0.443115234375;0.5723876953125;0.59857177734375;0.343017578125;15.740102404582775;13.859023948322415;0.7282142085881148;-0.92529296875;0.26513671875;-0.0546875;-20.75;20.9375;33.8125;
1441975900509530;-0.44439697265625;0.5731201171875;0.5997314453125;0.338134765625;15.702137658242139;13.882315867625437;0.771058429813438;-0.9189453125;0.25927734375;-0.052734375;-19.125;20.0;29.75;
1441975900530531;-0.44598388671875;0.573486328125;0.60040283203125;0.33416748046875;15.676236575463712;13.905353018746435;0.8114599793029857;-0.919921875;0.25244140625;-0.060546875;-17.0625;18.625;25.0625;
1441975900546532;-0.4476318359375;0.57354736328125;0.600830078125;0.33111572265625;15.659995872803364;13.924972142624984;0.8460525740806499;-0.92822265625;0.251953125;-0.0625;-14.75;17.0625;20.1875;
1441975900567533;-0.44940185546875;0.57330322265625;0.6009521484375;0.32891845703125;15.653537173491772;13.94286369317399;0.8767075657469265;-0.92724609375;0.2509765625;-0.0546875;-12.625;15.0;15.4375;
1441975900583534;-0.45123291015625;0.57275390625;0.60076904296875;0.32763671875;15.657057249153356;13.958698559736932;0.9027327930778578;-0.9287109375;0.248046875;-0.056640625;-10.8125;12.75;10.8125;
1441975900606535;-0.45318603515625;0.572021484375;0.60028076171875;0.3271484375;15.669273091036265;13.97443700328881;0.926248021983814;-0.9287109375;0.24462890625;-0.05126953125;-8.4375;10.8125;6.5;
1441975900627537;-0.45526123046875;0.571044921875;0.59954833984375;0.32733154296875;15.689419602371137;13.989691060681459;0.9476026658615353;-0.9267578125;0.24755859375;-0.04931640625;-6.0;9.25;1.9375;
1441975900643538;-0.45758056640625;0.5697021484375;0.59857177734375;0.328125;15.718382559723473;14.004928785766538;0.9681675775144791;-0.923828125;0.25537109375;-0.048828125;-4.5;7.875;-2.875;
1441975900667539;-0.46014404296875;0.5679931640625;0.5975341796875;0.3294677734375;15.75518420813464;14.018670537937256;0.9871440160206133;-0.92431640625;0.26318359375;-0.04345703125;-3.75;6.875;-7.75;
1441975900680540;-0.46295166015625;0.5657958984375;0.596435546875;0.331298828125;15.800079666399611;14.030403355317976;1.0045929656459853;-0.92529296875;0.27099609375;-0.0400390625;-3.5625;5.625;-12.875;
1441975900703541;-0.466064453125;0.56317138671875;0.59527587890625;0.33355712890625;15.852558473655368;14.041332816176729;1.0218796005015072;-0.92333984375;0.2822265625;-0.03515625;-3.6875;4.625;-17.8125;
1441975900726542;-0.469482421875;0.5599365234375;0.59423828125;0.33599853515625;15.911292331967603;14.049204597668188;1.038577324007022;-0.9287109375;0.294921875;-0.03955078125;-4.875;3.375;-22.625;
1441975900747544;-0.47332763671875;0.5560302734375;0.59326171875;0.3387451171875;15.978421032868493;14.054824905269598;1.0554533640807817;-0.9287109375;0.29736328125;-0.04296875;-7.375;1.9375;-27.125;
1441975900763544;-0.47735595703125;0.55157470703125;0.59246826171875;0.341796875;16.05168106936157;14.055447436972425;1.0690435921979584;-0.92724609375;0.29150390625;-0.0517578125;-10.125;0.125;-31.125;
1441975900786546;-0.48138427734375;0.5467529296875;0.5916748046875;0.34521484375;16.130071518057274;14.052261640812073;1.078796066345792;-0.92529296875;0.28515625;-0.05029296875;-11.875;-1.5625;-34.3125;
1441975900807547;-0.48541259765625;0.541748046875;0.59075927734375;0.34893798828125;16.21234483169812;14.04807541656706;1.0868137356994985;-0.9296875;0.275390625;-0.04541015625;-12.4375;-3.375;-36.9375;
1441975900823548;-0.48919677734375;0.5367431640625;0.58978271484375;0.35308837890625;16.29696907154482;14.040161042972965;1.0889298143637343;-0.93310546875;0.267578125;-0.0537109375;-11.8125;-5.3125;-38.9375;
1441975900846549;-0.49249267578125;0.53179931640625;0.5887451171875;0.357666015625;16.382376317808728;14.0255131004508;1.0813180390021453;-0.94140625;0.25537109375;-0.05419921875;-10.125;-7.375;-39.875;
1441975900867550;-0.4952392578125;0.52734375;0.5875244140625;0.362548828125;16.46496947312322;14.00834917802001;1.0667681883252937;-0.94384765625;0.24658203125;-0.0390625;-7.1875;-9.4375;-40.0;
1441975900883551;-0.49737548828125;0.5233154296875;0.5860595703125;0.36767578125;16.544526074028596;13.987920284629894;1.0446137172536825;-0.9453125;0.2421875;-0.041015625;-3.1875;-10.875;-39.1875;
1441975900906553;-0.49908447265625;0.519775390625;0.58447265625;0.37298583984375;16.620643539029597;13.964946218687377;1.0163769247375678;-0.94873046875;0.24169921875;-0.03076171875;1.125;-11.9375;-38.1875;
1441975900927554;-0.500244140625;0.5166015625;0.5828857421875;0.378173828125;16.690742636816296;13.936144630041902;0.9801277711534749;-0.95068359375;0.23779296875;-0.0341796875;4.5625;-12.9375;-36.8125;
1441975900943555;-0.5010986328125;0.5137939453125;0.5814208984375;0.3831787109375;16.75506763550876;13.902773877379197;0.9382688189610607;-0.95458984375;0.24462890625;-0.02734375;6.6875;-13.375;-35.0625;
1441975900966556;-0.50164794921875;0.51129150390625;0.580078125;0.3878173828125;16.812588646141716;13.865457808530486;0.8921902752480875;-0.95361328125;0.24365234375;-0.02978515625;7.5;-13.6875;-33.0;
1441975900987557;-0.50201416015625;0.509033203125;0.57891845703125;0.3919677734375;16.863153421956845;13.82551432170765;0.8442572029609311;-0.94970703125;0.244140625;-0.02880859375;7.5625;-13.625;-30.5625;
1441975901003558;-0.5023193359375;0.50701904296875;0.57794189453125;0.39569091796875;16.907827310186512;13.784807773176892;0.79645831042993;-0.9521484375;0.24609375;-0.0283203125;6.9375;-13.3125;-27.875;
1441975901026560;-0.50238037109375;0.50531005859375;0.5771484375;0.39886474609375;16.94444426052593;13.743190908806291;0.7483569439159574;-0.95654296875;0.24267578125;-0.03271484375;6.1875;-12.5;-25.0625;
1441975901047561;-0.5023193359375;0.50408935546875;0.576416015625;0.40155029296875;16.973506609625606;13.708107680263552;0.7066330663350922;-0.95166015625;0.2353515625;-0.029296875;5.5;-11.5625;-21.8125;
1441975901063562;-0.50201416015625;0.5032958984375;0.57586669921875;0.40374755859375;16.994326073296943;13.675499090957278;0.6674170804161528;-0.9453125;0.23193359375;-0.0341796875;5.5;-10.3125;-18.1875;
1441975901086563;-0.5015869140625;0.50299072265625;0.57537841796875;0.40533447265625;17.006936353231886;13.653453506266393;0.6389858784478668;-0.9462890625;0.22998046875;-0.02978515625;5.875;-8.8125;-14.25;
1441975901115565;-0.50103759765625;0.50311279296875;0.57501220703125;0.4063720703125;17.01195980330559;13.640035749936187;0.6195627659339984;-0.9453125;0.228515625;-0.03564453125;5.8125;-7.3125;-10.3125;
1441975901123565;-0.5003662109375;0.503662109375;0.57470703125;0.40692138671875;17.010136118778053;13.63619296661808;0.6097440250986266;-0.9462890625;0.2177734375;-0.03466796875;5.375;-5.5;-6.25;
1441975901145566;-0.49957275390625;0.5047607421875;0.57440185546875;0.406982421875;17.001028955587227;13.64513830396832;0.6122025907750133;-0.95556640625;0.21923828125;-0.03955078125;5.5625;-3.75;-2.5625;
1441975901167568;-0.4986572265625;0.50616455078125;0.57415771484375;0.40667724609375;16.986649800861432;13.659962220708131;0.620567127086399;-0.958984375;0.21875;-0.0498046875;6.0;-2.1875;0.75;
1441975901183568;-0.49761962890625;0.5079345703125;0.573974609375;0.406005859375;16.966607685980815;13.681161235511148;0.6351440697710145;-0.9619140625;0.2158203125;-0.0439453125;6.0625;-0.6875;4.125;
1441975901205570;-0.4964599609375;0.5101318359375;0.57373046875;0.405029296875;16.941435432149866;13.710600737825105;0.6570978003323169;-0.95263671875;0.21240234375;-0.046875;6.4375;0.875;7.0;
1441975901229571;-0.4952392578125;0.5125732421875;0.573486328125;0.40380859375;16.912665944489866;13.743983708443674;0.6828304025866974;-0.94775390625;0.21044921875;-0.046875;7.3125;2.3125;9.9375;
1441975901243572;-0.49395751953125;0.5152587890625;0.5732421875;0.40234375;16.880249620565703;13.780730627289822;0.7117615159568249;-0.9423828125;0.2021484375;-0.04443359375;7.75;3.875;12.5;
1441975901265573;-0.49261474609375;0.5181884765625;0.57293701171875;0.400634765625;16.84437543188352;13.821353294110802;0.7442397636584364;-0.94091796875;0.19873046875;-0.04345703125;8.0;5.0625;14.6875;
1441975901289575;-0.49127197265625;0.521240234375;0.5726318359375;0.39874267578125;16.80624616368975;13.862980854369638;0.7779057490649043;-0.94921875;0.19970703125;-0.04248046875;8.4375;6.75;16.5625;
1441975901304575;-0.489990234375;0.5244140625;0.572265625;0.3966064453125;16.765911701397265;13.907774810422927;0.8151084442618318;-0.95068359375;0.201171875;-0.0439453125;8.5;8.0625;18.0;
1441975901326577;-0.48883056640625;0.52764892578125;0.57196044921875;0.3941650390625;16.723080979947177;13.953838899630398;0.8548161206431569;-0.9541015625;0.20556640625;-0.04736328125;8.0625;9.1875;19.125;
1441975901349578;-0.48785400390625;0.53070068359375;0.57171630859375;0.3916015625;16.680899761351945;13.997615564592195;0.8938237085818648;-0.94580078125;0.20703125;-0.0498046875;7.0;10.375;19.875;
1441975901363579;-0.48712158203125;0.53369140625;0.571533203125;0.38885498046875;16.63842463874093;14.041802254759979;0.9348063984350775;-0.94287109375;0.20703125;-0.0478515625;5.6875;11.5625;20.0625;
1441975901385580;-0.4866943359375;0.536376953125;0.5714111328125;0.3858642578125;16.596982976150745;14.085105186298541;0.9775753366577173;-0.94140625;0.21728515625;-0.0537109375;4.125;12.4375;19.75;
1441975901409581;-0.4866943359375;0.5384521484375;0.571533203125;0.3826904296875;16.55895164195436;14.12311792967269;1.019297893788747;-0.94189453125;0.2265625;-0.060546875;1.1875;13.0;18.5;
1441975901423582;-0.48712158203125;0.5400390625;0.57177734375;0.379638671875;16.52632082713688;14.15754796362422;1.0600423979504543;-0.9462890625;0.2314453125;-0.06494140625;-2.3125;13.25;16.6875;
1441975901452584;-0.4879150390625;0.54119873046875;0.572021484375;0.37652587890625;16.497367759559562;14.191568754111174;1.1028698245487771;-0.93896484375;0.2255859375;-0.0615234375;-5.3125;13.3125;14.625;
1441975901469585;-0.48895263671875;0.54193115234375;0.572265625;0.373779296875;16.474896999029475;14.22168738254618;1.1426422368266391;-0.9306640625;0.22900390625;-0.064453125;-7.4375;13.375;12.375;
1441975901490586;-0.4901123046875;0.5423583984375;0.5723876953125;0.3714599609375;16.45844955506288;14.249507865010315;1.1797428622282495;-0.939453125;0.22412109375;-0.06689453125;-8.375;12.75;10.0;
1441975901506587;-0.49151611328125;0.54254150390625;0.57244873046875;0.3692626953125;16.445581259988014;14.27802392634807;1.2184087914774138;-0.9404296875;0.21923828125;-0.0634765625;-8.375;11.875;7.4375;
1441975901536589;-0.4932861328125;0.54229736328125;0.57244873046875;0.3671875;16.437979440902154;14.307527255672627;1.2598243605451005;-0.93017578125;0.234375;-0.07373046875;-8.875;11.375;4.5625;
1441975901543589;-0.49542236328125;0.54144287109375;0.5726318359375;0.36529541015625;16.4367310582476;14.33305383490707;1.300052005126324;-0.916015625;0.23681640625;-0.076171875;-10.5625;11.0;1.25;
1441975901565590;-0.49810791015625;0.539794921875;0.5728759765625;0.3636474609375;16.44461256371034;14.357515888838506;1.34254184391943;-0.91259765625;0.244140625;-0.0771484375;-13.4375;10.5;-2.5625;
1441975901589592;-0.50115966796875;0.53778076171875;0.57293701171875;0.36236572265625;16.459564961773122;14.385550096631363;1.3890817940334617;-0.912109375;0.224609375;-0.07568359375;-16.3125;9.75;-6.0625;
1441975901610593;-0.50433349609375;0.53570556640625;0.57281494140625;0.36126708984375;16.47702509998;14.417551901355026;1.43903915329283;-0.896484375;0.2060546875;-0.07763671875;-17.375;9.375;-8.6875;
1441975901625594;-0.50750732421875;0.53369140625;0.57220458984375;0.3607177734375;16.49924800969174;14.456515166441028;1.492756169735403;-0.89208984375;0.201171875;-0.0751953125;-16.25;9.875;-10.625;
1441975901649595;-0.51007080078125;0.5322265625;0.57086181640625;0.3614501953125;16.52709105694281;14.499430281194131;1.5411567026181914;-0.884765625;0.17822265625;-0.0791015625;-13.0625;9.625;-12.0;
1441975901671596;-0.51165771484375;0.53192138671875;0.56866455078125;0.36309814453125;16.552286003203008;14.549125651913666;1.585037204011976;-0.89697265625;0.13623046875;-0.0693359375;-4.1875;7.8125;-11.4375;
1441975901685597;-0.512451171875;0.53271484375;0.5660400390625;0.36492919921875;16.569059051288193;14.60291025886859;1.6257994159343894;-0.890625;0.12451171875;-0.0751953125;6.6875;6.3125;-9.3125;
1441975901709599;-0.51275634765625;0.53399658203125;0.5631103515625;0.36712646484375;16.584019750065732;14.657866918609445;1.6629844586265008;-0.86328125;0.14501953125;-0.08642578125;13.8125;6.0;-7.8125;
1441975901730600;-0.51226806640625;0.53607177734375;0.55999755859375;0.3695068359375;16.59244149398129;14.709645369355865;1.691379310697202;-0.8408203125;0.130859375;-0.07177734375;18.5;6.5;-6.0625;
1441975901746601;-0.511474609375;0.53839111328125;0.55706787109375;0.37164306640625;16.595697493552144;14.756365412696733;1.714396797447841;-0.84375;0.1572265625;-0.07373046875;24.375;5.625;-4.25;
1441975901768602;-0.51068115234375;0.54052734375;0.55450439453125;0.37347412109375;16.59703608542865;14.796629328766892;1.733446093066473;-0.81494140625;0.17529296875;-0.0703125;24.4375;5.1875;-3.3125;
1441975901790603;-0.50982666015625;0.5428466796875;0.552001953125;0.37506103515625;16.5946333701746;14.836615081501213;1.7524067921153434;-0.77783203125;0.169921875;-0.05810546875;22.25;5.75;-2.0625;
1441975901806604;-0.508544921875;0.54541015625;0.54949951171875;0.37664794921875;16.589226792092976;14.871533279878847;1.7644032324925656;-0.74560546875;0.15966796875;-0.060546875;21.8125;5.9375;-0.6875;
1441975901829605;-0.507080078125;0.54815673828125;0.54718017578125;0.3780517578125;16.580209088918878;14.901798923231366;1.7717429995038265;-0.73486328125;0.17529296875;-0.06005859375;23.875;5.6875;0.25;
1441975901850607;-0.50604248046875;0.55029296875;0.54522705078125;0.379150390625;16.573643285082515;14.929215169184332;1.7811764991667092;-0.75927734375;0.2138671875;-0.0703125;23.9375;5.0;0.0625;
1441975901865608;-0.50518798828125;0.55194091796875;0.54339599609375;0.3804931640625;16.572954629158108;14.95405751017041;1.7896066540477062;-0.8076171875;0.224609375;-0.0927734375;18.5;4.125;-1.1875;
1441975901889609;-0.50445556640625;0.55316162109375;0.54144287109375;0.38250732421875;16.581442564191484;14.979351372900481;1.797744901326074;-0.88525390625;0.22119140625;-0.1123046875;16.75;1.5;-2.375;
1441975901909610;-0.5035400390625;0.5540771484375;0.53912353515625;0.3856201171875;16.601366773109667;15.00496472133133;1.8022989870123196;-0.9384765625;0.18798828125;-0.123046875;17.125;-0.6875;-3.5;
1441975901925611;-0.50177001953125;0.5557861328125;0.53570556640625;0.39019775390625;16.6270291187738;15.038859418815498;1.8029623722289423;-0.970703125;0.12255859375;-0.10595703125;20.625;-3.0625;-3.3125;
1441975901949612;-0.49884033203125;0.55950927734375;0.530517578125;0.395751953125;16.645322107612373;15.095687100000989;1.8095042482934667;-0.93701171875;0.06591796875;-0.06298828125;32.875;-2.75;-2.5;
1441975901969613;-0.4949951171875;0.564697265625;0.5242919921875;0.4014892578125;16.65330110081267;15.16457201793714;1.8177704455364296;-0.90380859375;0.07080078125;-0.05419921875;50.4375;0.75;-0.4375;
1441975901985614;-0.49090576171875;0.5706787109375;0.51763916015625;0.4066162109375;16.649938917788774;15.242181967393387;1.832337542691399;-0.84423828125;0.0830078125;-0.04052734375;60.9375;4.0625;1.3125;
1441975902009616;-0.48681640625;0.57684326171875;0.51129150390625;0.410888671875;16.63753322784008;15.315554453288428;1.8454911199982287;-0.77587890625;0.09716796875;-0.044921875;63.625;7.875;3.0625;
1441975902030617;-0.4833984375;0.58258056640625;0.5054931640625;0.4139404296875;16.61847394013564;15.38779820861939;1.8657811248266456;-0.7265625;0.125;-0.05078125;61.1875;9.9375;4.5625;
1441975902045618;-0.48046875;0.58782958984375;0.50030517578125;0.41619873046875;16.596481746730323;15.453924400118636;1.8867984330750311;-0.68603515625;0.10791015625;-0.05615234375;52.8125;12.5625;6.375;
1441975902068619;-0.4776611328125;0.59320068359375;0.49517822265625;0.41802978515625;16.569826070993194;15.519896172223632;1.9090445140264038;-0.6845703125;0.0859375;-0.056640625;45.75;14.25;8.5;
1441975902089620;-0.4749755859375;0.59832763671875;0.49041748046875;0.41937255859375;16.54060987425307;15.578956088410532;1.9278647074915614;-0.69384765625;0.08349609375;-0.08203125;44.375;14.9375;10.1875;
1441975902105621;-0.47283935546875;0.60272216796875;0.48602294921875;0.4205322265625;16.51567389668435;15.636093708616315;1.9500250524688172;-0.6875;0.10302734375;-0.09814453125;40.75;14.5625;10.125;
1441975902119622;-0.4703369140625;0.60675048828125;0.48150634765625;0.42279052734375;16.50236828936424;15.688554812533207;1.963990922099089;-0.70361328125;0.0712890625;-0.11376953125;35.125;13.25;9.9375;
1441975902141623;-0.4666748046875;0.61138916015625;0.47625732421875;0.42608642578125;16.492130823488033;15.738645169021508;1.9653261202626389;-0.708984375;-0.001953125;-0.1044921875;37.3125;8.9375;11.6875;
1441975902165625;-0.46160888671875;0.61767578125;0.4696044921875;0.4298095703125;16.47174605906249;15.796294727460596;1.960000913897038;-0.69482421875;-0.01171875;-0.0888671875;47.5625;6.4375;13.1875;
1441975902179625;-0.45623779296875;0.6240234375;0.4630126953125;0.43365478515625;16.451786027440928;15.848360212962742;1.94781969746754;-0.7177734375;0.07373046875;-0.1162109375;62.25;7.8125;12.25;
1441975902201627;-0.451416015625;0.62884521484375;0.45733642578125;0.437744140625;16.446035296089093;15.889697375385184;1.9328540918934696;-0.77099609375;0.14501953125;-0.1220703125;64.375;7.375;9.1875;
1441975902225628;-0.4464111328125;0.63275146484375;0.451904296875;0.4427490234375;16.45504393352213;15.923677375341637;1.9107208205740651;-0.81494140625;0.11767578125;-0.107421875;55.8125;3.5;7.375;
1441975902239629;-0.440185546875;0.636962890625;0.44610595703125;0.4488525390625;16.470450761588893;15.948722375393267;1.8710097258971585;-0.85302734375;0.0654296875;-0.1083984375;54.9375;-2.75;7.5;
1441975902261630;-0.43280029296875;0.641845703125;0.4398193359375;0.45513916015625;16.481542064342573;15.967290331548476;1.8174133895414761;-0.8525390625;0.05224609375;-0.091796875;63.0625;-7.375;9.625;
1441975902285632;-0.4251708984375;0.64703369140625;0.43408203125;0.46044921875;16.481871097167595;15.97295893893935;1.7536085349223522;-0.8212890625;0.06298828125;-0.08740234375;70.0625;-7.9375;12.75;
1441975902299632;-0.4180908203125;0.65203857421875;0.4293212890625;0.46441650390625;16.472450771193355;15.968765195609894;1.6886889420816882;-0.77978515625;0.09814453125;-0.0927734375;67.4375;-6.4375;15.1875;
1441975902321634;-0.41143798828125;0.65667724609375;0.4246826171875;0.46807861328125;16.46341851240681;15.967827484695299;1.6304636079997936;-0.763671875;0.115234375;-0.1171875;58.4375;-4.9375;17.3125;
1441975902345635;-0.4031982421875;0.6629638671875;0.4183349609375;0.4720458984375;16.443322019671207;15.978469791113172;1.5682152445201478;-0.79296875;0.06103515625;-0.1328125;54.625;-4.125;20.25;
1441975902359636;-0.3936767578125;0.669921875;0.4117431640625;0.47607421875;16.41741424948001;15.97877296387499;1.488774226858626;-0.8427734375;0.0908203125;-0.23681640625;68.875;-7.5;23.3125;
1441975902381637;-0.38385009765625;0.6768798828125;0.40618896484375;0.47900390625;16.381028531963693;15.96033049567347;1.395565786484545;-0.935546875;0.17333984375;-0.33984375;75.0;-13.5625;24.4375;
1441975902405638;-0.376220703125;0.68157958984375;0.4031982421875;0.48089599609375;16.35354205078297;15.925129383803387;1.3092434817505685;-0.990234375;0.29443359375;-0.45556640625;69.875;-18.5625;23.6875;
1441975902419639;-0.3709716796875;0.68353271484375;0.40234375;0.48291015625;16.34885725084881;15.878464261830073;1.2327785771965853;-0.99169921875;0.3115234375;-0.48486328125;45.875;-23.625;19.25;
1441975902443641;-0.36676025390625;0.684326171875;0.40167236328125;0.485595703125;16.359426056761986;15.836916559267383;1.1667030217419014;-1.03369140625;0.24853515625;-0.43701171875;24.5;-27.4375;14.8125;
1441975902465642;-0.36199951171875;0.68560791015625;0.40069580078125;0.48809814453125;16.363543128479094;15.794921674931834;1.0965752764657788;-1.00341796875;0.19091796875;-0.38232421875;19.3125;-27.6875;10.5625;
1441975902479643;-0.35687255859375;0.68701171875;0.40087890625;0.48974609375;16.356585765152506;15.732275615856977;1.0101518537530374;-0.95703125;0.23486328125;-0.33154296875;24.125;-23.9375;10.375;
1441975902502644;-0.3529052734375;0.6876220703125;0.40380859375;0.48944091796875;16.33618717281038;15.642927807264261;0.9165555445083929;-0.974609375;0.31689453125;-0.28759765625;20.5625;-20.5625;12.0;
1441975902525645;-0.350341796875;0.68756103515625;0.408203125;0.4876708984375;16.307626271257956;15.550807957022245;0.8348006446566345;-1.056640625;0.39111328125;-0.2529296875;2.0;-14.75;14.75;
1441975902539646;-0.3485107421875;0.6871337890625;0.41278076171875;0.48577880859375;16.28089833074142;15.465577048015737;0.764178956435501;-1.15625;0.39599609375;-0.2587890625;-12.375;-9.875;17.6875;
1441975902561647;-0.34576416015625;0.6876220703125;0.4161376953125;0.48419189453125;16.24897680434006;15.394310124378393;0.6974625592200114;-1.22412109375;0.35595703125;-0.28173828125;-17.6875;-10.3125;19.3125;
1441975902585649;-0.3421630859375;0.6884765625;0.41864013671875;0.48333740234375;16.218827152860626;15.328025277709774;0.6274004702280517;-1.24560546875;0.380859375;-0.337890625;-8.1875;-12.1875;20.0625;
1441975902607650;-0.33807373046875;0.68914794921875;0.42071533203125;0.4833984375;16.195847393580998;15.260424879088815;0.5512335858072239;-1.29248046875;0.39892578125;-0.3671875;-0.6875;-15.9375;20.3125;
1441975902621651;-0.33355712890625;0.689453125;0.42132568359375;0.485595703125;16.194050257038462;15.199423308712408;0.47120076466542804;-1.29248046875;0.3876953125;-0.3671875;3.1875;-20.6875;19.875;
1441975902644652;-0.32684326171875;0.691162109375;0.4200439453125;0.48876953125;16.186837967172007;15.147035293111191;0.38038332542382325;-1.3330078125;0.28369140625;-0.33251953125;12.4375;-26.1875;20.25;
1441975902667653;-0.31878662109375;0.69384765625;0.41802978515625;0.49200439453125;16.169596229131866;15.09815362132776;0.28358423518334275;-1.34130859375;0.3076171875;-0.34423828125;31.0;-28.4375;22.5625;
1441975902681654;-0.310546875;0.6968994140625;0.41522216796875;0.495361328125;16.15174678279406;15.061158209163557;0.19418568007071518;-1.29296875;0.3525390625;-0.322265625;41.1875;-27.5625;24.0625;
1441975902704655;-0.3017578125;0.70050048828125;0.410888671875;0.49932861328125;16.137264125469706;15.04063835790191;0.11148597451569753;-1.29833984375;0.30859375;-0.3212890625;45.25;-26.0;26.5625;
1441975902727657;-0.29241943359375;0.70428466796875;0.40521240234375;0.504150390625;16.130142467163637;15.029853008967088;0.02964508428849818;-1.30078125;0.26025390625;-0.2900390625;55.25;-23.4375;27.4375;
1441975902741658;-0.2830810546875;0.70819091796875;0.3974609375;0.51019287109375;16.138967965614714;15.03998591494257;17.95858932197429;-1.2607421875;0.23681640625;-0.25;64.6875;-22.8125;25.0;
1441975902764659;-0.27362060546875;0.7122802734375;0.3885498046875;0.5164794921875;16.152280999704136;15.06342054864233;17.89541356942283;-1.26611328125;0.1982421875;-0.2548828125;74.5625;-24.5625;19.0625;
1441975902787660;-0.2650146484375;0.71588134765625;0.3802490234375;0.5220947265625;16.16520278163963;15.08663565182084;17.83959938245545;-1.24267578125;0.2578125;-0.26171875;81.4375;-24.125;11.0;
1441975902812662;-0.258544921875;0.71820068359375;0.372802734375;0.5274658203125;16.190787638273747;15.109960373279788;17.797710094457404;-1.21826171875;0.322265625;-0.30322265625;74.1875;-24.1875;4.9375;
1441975902824662;-0.2532958984375;0.7198486328125;0.365966796875;0.53253173828125;16.221531762061463;15.133109608396397;17.764204330907106;-1.19970703125;0.3125;-0.310546875;60.75;-24.8125;-2.5;
1441975902847664;-0.2490234375;0.72039794921875;0.359130859375;0.53851318359375;16.270608134590873;15.15131704701474;17.7297411385909;-1.20751953125;0.31005859375;-0.3056640625;53.1875;-23.625;-6.75;
1441975902861664;-0.24560546875;0.7197265625;0.35137939453125;0.5460205078125;16.34628464931811;15.17054976236421;17.695623041041856;-1.2216796875;0.30029296875;-0.26806640625;49.625;-26.1875;-13.625;
1441975902893666;-0.23944091796875;0.71856689453125;0.3421630859375;0.55609130859375;16.437587053475784;15.158563227236252;17.61120079442873;-1.26611328125;0.2001953125;-0.2490234375;50.0;-32.125;-18.8125;
1441975902907667;-0.22845458984375;0.7205810546875;0.32904052734375;0.56585693359375;16.500295619301916;15.177100907131937;17.52011513400363;-1.361328125;0.11376953125;-0.1044921875;68.625;-37.75;-11.0;
1441975902921668;-0.21722412109375;0.72418212890625;0.31671142578125;0.57269287109375;16.52735043298433;15.216426638139612;17.4541688898939;-1.337890625;0.21337890625;-0.1357421875;106.3125;-36.125;-11.5;
1441975902944669;-0.20709228515625;0.7275390625;0.306884765625;0.5775146484375;16.535954395502337;15.243642087220328;17.393272367906906;-1.271484375;0.47412109375;-0.2177734375;103.5625;-22.0625;-5.125;
1441975902967671;-0.1995849609375;0.7376708984375;0.28912353515625;0.57647705078125;16.5015620353633;15.527489901259035;17.567418103052862;-1.28662109375;0.4091796875;-0.1396484375;88.0625;-11.625;-3.8125;
1441975902983671;-0.2088623046875;0.71417236328125;0.2916259765625;0.6009521484375;16.861662961277535;15.149915145596879;17.233414547346904;-1.201171875;0.77734375;-0.95166015625;114.5625;33.4375;-23.1875;
1441975903013673;-0.19757080078125;0.71905517578125;0.27740478515625;0.605712890625;16.874799369960865;15.25580325887394;17.228256118740646;-1.248046875;-0.16259765625;0.92822265625;-42.125;-94.75;-72.8125;
1441975903027674;-0.1654052734375;0.74615478515625;0.24908447265625;0.59478759765625;16.59498039804364;15.694431934631249;17.4120872182969;-1.8642578125;-1.11181640625;-0.33935546875;110.6875;-4.625;-5.0625;
1441975903041675;-0.16595458984375;0.76251220703125;0.2552490234375;0.57073974609375;16.279327323150078;15.87497849540503;17.628225731088158;-1.23486328125;1.3583984375;-0.63134765625;260.9375;114.125;63.0;
1441975903073677;-0.16998291015625;0.77520751953125;0.26312255859375;0.5484619140625;16.003552725082212;15.977531133336342;17.789344012460273;-1.24267578125;1.1416015625;-0.76416015625;-25.9375;145.5;53.8125;
1441975903088677;-0.1632080078125;0.79022216796875;0.25872802734375;0.53094482421875;15.74650430857642;16.103202139876057;17.874374421266587;-1.7294921875;-0.03662109375;-0.513671875;-52.375;136.75;60.375;
1441975903103678;-0.15106201171875;0.80548095703125;0.25140380859375;0.514892578125;15.48885508187925;16.199903207746008;17.8950887445179;-1.34765625;0.0380859375;-0.529296875;44.4375;117.4375;61.9375;
1441975903127680;-0.14251708984375;0.81658935546875;0.25164794921875;0.49945068359375;15.25611394514538;16.21688520982337;17.884225162037737;-1.0205078125;0.5126953125;-0.51953125;78.8125;105.9375;67.1875;
1441975903147681;-0.1356201171875;0.82177734375;0.254638671875;0.4913330078125;15.123921059380624;16.18200425213011;17.837208767291813;-0.83740234375;0.57080078125;-0.521484375;31.5625;81.125;52.0;
1441975903161682;-0.1241455078125;0.82379150390625;0.248291015625;0.494140625;15.115188389767482;16.179196751751068;17.75718127302339;-0.55419921875;0.35888671875;-0.3193359375;9.875;36.1875;45.6875;
1441975903184683;-0.10980224609375;0.8177490234375;0.236328125;0.51312255859375;15.302250165803523;16.143308030220883;17.601148056744666;-0.50390625;0.10791015625;-0.4375;61.625;-32.75;37.0;
1441975903215685;-0.09527587890625;0.80322265625;0.22381591796875;0.54364013671875;15.636021239618241;16.01639175372868;17.349239533309564;-0.384765625;0.16064453125;-0.36181640625;101.1875;-121.6875;1.6875;
1441975903221685;-0.08734130859375;0.78485107421875;0.2161865234375;0.57403564453125;15.987563510205081;15.798827940487115;17.0579471117235;0.05810546875;0.45068359375;-0.06396484375;103.375;-198.875;-26.5625;
1441975903244686;-0.08575439453125;0.76458740234375;0.21527099609375;0.601318359375;16.305071192802817;15.457379184601251;16.700225916114054;0.9033203125;1.03076171875;0.03125;58.0625;-206.5;-56.4375;
1441975903267688;-0.07745361328125;0.74249267578125;0.2166748046875;0.6290283203125;16.540716570653142;14.853791101009422;16.064189667564712;0.69189453125;1.0107421875;0.0947265625;2.1875;-191.6875;-59.0;
1441975903298689;-0.05865478515625;0.71917724609375;0.215087890625;0.65802001953125;16.635740504608364;14.005543962434619;15.12974797696092;0.01318359375;0.49658203125;0.2880859375;11.0;-203.8125;-12.25;
1441975903304690;-0.038818359375;0.7039794921875;0.21722412109375;0.67498779296875;16.531343606563304;13.435570344042512;14.487442152079746;-0.31005859375;0.47900390625;0.572265625;61.25;-220.375;21.625;
1441975903327691;-0.02215576171875;0.69927978515625;0.229736328125;0.67645263671875;16.301527914943417;13.29498632494442;14.332560424671783;-0.4072265625;0.517578125;0.3125;54.5;-147.4375;56.8125;
1441975903359693;-8.544921875E-4;0.7081298828125;0.24981689453125;0.660400390625;15.934781764821015;13.523649560511002;14.561620585467777;-0.32470703125;0.54296875;-0.02197265625;8.25;-48.0;105.375;
1441975903364693;0.03131103515625;0.7261962890625;0.268798828125;0.63189697265625;15.429387095933254;13.87623074899214;14.868124483756915;-0.5986328125;0.34130859375;-0.71044921875;7.5625;56.5625;183.625;
1441975903387695;0.0709228515625;0.74737548828125;0.283203125;0.59674072265625;14.841780151488159;14.203435436722009;15.100911862510703;-0.888671875;0.51416015625;-1.146484375;63.0625;120.4375;242.25;
1441975903402695;0.09967041015625;0.760986328125;0.29937744140625;0.5667724609375;14.341952071268018;14.369909080866757;15.225278008663956;-0.97119140625;0.90576171875;-1.6962890625;122.6875;164.875;267.6875;
1441975903425697;0.135009765625;0.77349853515625;0.3228759765625;0.5283203125;13.690324735165227;14.497772454687848;15.318941959139423;-1.07666015625;0.396484375;-0.65478515625;58.625;128.9375;226.8125;
1441975903447698;0.16009521484375;0.78607177734375;0.34521484375;0.487060546875;13.093736081460886;14.617065808781348;15.444376317750923;-1.0576171875;1.25830078125;-0.505859375;55.25;159.3125;285.375;
1441975903471699;0.17901611328125;0.79791259765625;0.36773681640625;0.442626953125;12.508380170390769;14.718312841612617;15.583309469608633;-1.29345703125;0.7060546875;-0.58984375;28.625;191.625;253.6875;
1441975903485700;0.19281005859375;0.80401611328125;0.3919677734375;0.40325927734375;11.98258699000682;14.752800114319408;15.689541231183718;-1.47021484375;0.861328125;-0.974609375;8.375;215.25;236.25;
1441975903507701;0.2025146484375;0.81060791015625;0.40545654296875;0.3707275390625;11.590228040133066;14.80694240745852;15.781713163176297;-1.4609375;0.55712890625;-0.71728515625;-28.125;194.375;216.5625;
1441975903521702;0.20831298828125;0.816650390625;0.41339111328125;0.3446044921875;11.299372117898454;14.859669384087912;15.861188882670659;-1.3818359375;0.36279296875;-0.560546875;5.625;163.5625;158.5625;
1441975903544704;0.2078857421875;0.82025146484375;0.42193603515625;0.32525634765625;11.099021552503276;14.879028317442787;15.937454440386238;-1.3798828125;0.62060546875;-0.44091796875;18.4375;136.875;112.75;
1441975903567705;0.200439453125;0.82232666015625;0.43133544921875;0.31219482421875;10.991152030896112;14.870789445809923;16.02115311029977;-1.20263671875;0.69677734375;-0.41943359375;-9.8125;115.375;69.375;
1441975903581706;0.18572998046875;0.82464599609375;0.43609619140625;0.30853271484375;11.029781230544836;14.861683882854162;16.107570112630906;-1.12353515625;0.53955078125;-0.37646484375;-38.6875;100.625;24.625;
1441975903604707;0.16998291015625;0.8270263671875;0.439208984375;0.30682373046875;11.099080139721291;14.856878402949132;16.19259734019014;-1.03955078125;0.4228515625;-0.3857421875;-48.0;85.5;-3.8125;
1441975903627708;0.15069580078125;0.8299560546875;0.44000244140625;0.307861328125;11.223715467937035;14.860310433298196;16.286908452660303;-0.794921875;0.40673828125;-0.431640625;-47.1875;68.375;-31.125;
1441975903649710;0.1295166015625;0.8316650390625;0.44171142578125;0.31048583984375;11.37058908579942;14.854453044412526;16.38322877507138;-0.69580078125;0.48388671875;-0.44482421875;-42.375;58.625;-67.875;
1441975903674711;0.10467529296875;0.8326416015625;0.442626953125;0.31591796875;11.56861289766281;14.847894183824415;16.4874910806483;-0.6171875;0.544921875;-0.4775390625;-46.0625;46.625;-101.0625;
1441975903687712;0.07757568359375;0.831787109375;0.44451904296875;0.3231201171875;11.794458444447509;14.831363785174084;16.594001216442614;-0.68408203125;0.6259765625;-0.50927734375;-52.75;40.375;-126.5625;
1441975903703713;0.04876708984375;0.8297119140625;0.446044921875;0.3319091796875;12.048508363189363;14.814589564295988;16.702673454216583;-0.69873046875;0.66748046875;-0.4404296875;-66.125;35.375;-139.625;
1441975903724714;0.01654052734375;0.82684326171875;0.44488525390625;0.34356689453125;12.360660372658124;14.811173137758137;16.821326102663487;-0.5732421875;0.51123046875;-0.49169921875;-72.9375;27.6875;-152.8125;
1441975903747715;-0.01580810546875;0.82415771484375;0.4390869140625;0.35723876953125;12.70694833478225;14.837371675194047;16.94328456070452;-0.58203125;0.46875;-0.41064453125;-68.9375;21.375;-181.625;
1441975903761716;-0.04840087890625;0.81884765625;0.43572998046875;0.37042236328125;13.045611669274756;14.85153433752213;17.066571524121873;-0.6005859375;0.61962890625;-0.40478515625;-45.4375;11.125;-198.5625;
1441975903793718;-0.0770263671875;0.812744140625;0.432861328125;0.3822021484375;13.347155154878077;14.865939560656424;17.176750503746316;-0.65185546875;0.68359375;-0.380859375;-63.5;8.875;-194.375;
1441975903807719;-0.10107421875;0.8076171875;0.42767333984375;0.39312744140625;13.617909513260525;14.899860679037857;17.27648864504423;-0.77587890625;0.5341796875;-0.32763671875;-60.0625;4.625;-169.5625;
1441975903830720;-0.12322998046875;0.8028564453125;0.4215087890625;0.403076171875;13.869283898245147;14.948184181918453;17.379128584936296;-0.7529296875;0.619140625;-0.28076171875;-35.875;0.5;-152.1875;
1441975903844721;-0.14459228515625;0.79779052734375;0.41522216796875;0.41253662109375;14.110818179426508;15.00455119432918;17.486754089043785;-0.69140625;0.66845703125;-0.25927734375;-26.1875;1.3125;-145.625;
1441975903875722;-0.1646728515625;0.7923583984375;0.40936279296875;0.42120361328125;14.335596182616365;15.064475911991392;17.59597113419511;-0.70556640625;0.712890625;-0.26220703125;-24.5;1.25;-142.375;
1441975903881723;-0.18377685546875;0.78607177734375;0.4046630859375;0.42950439453125;14.549259366210038;15.119589334965656;17.70267352433907;-0.68408203125;0.7412109375;-0.2666015625;-24.875;0.0625;-135.0;
1441975903904724;-0.2017822265625;0.77911376953125;0.40032958984375;0.4381103515625;14.759552604494804;15.17351903708387;17.805494142386205;-0.701171875;0.7109375;-0.2158203125;-29.9375;-3.1875;-128.0;
1441975903928726;-0.22039794921875;0.7701416015625;0.3985595703125;0.446533203125;14.97149501293109;15.21006998980462;17.90644514978054;-0.66748046875;0.7421875;-0.2294921875;-29.875;-9.5625;-124.5;
1441975903941726;-0.2379150390625;0.7607421875;0.39666748046875;0.45526123046875;15.182043678440769;15.249088556246903;0.004910246629001104;-0.6875;0.66259765625;-0.2021484375;-47.75;-15.125;-122.375;
1441975903965728;-0.2529296875;0.751953125;0.39312744140625;0.46478271484375;15.38802155450345;15.300548407814677;0.09726987889762412;-0.763671875;0.52001953125;-0.1982421875;-45.875;-19.875;-117.0;
1441975903988729;-0.26470947265625;0.74468994140625;0.3880615234375;0.47406005859375;15.571905746769342;15.366143657874531;0.18352489149624307;-0.77099609375;0.521484375;-0.14208984375;-29.25;-24.125;-111.5625;
1441975904001730;-0.2738037109375;0.7384033203125;0.387451171875;0.4791259765625;15.690424178127884;15.391204568601003;0.2418965670743939;-0.71337890625;0.5927734375;-0.21337890625;-11.125;-25.8125;-100.9375;
1441975904025731;-0.2845458984375;0.73046875;0.3909912109375;0.482177734375;15.797421291008376;15.383672467826548;0.2957885736145668;-0.76220703125;0.71533203125;-0.271484375;-22.25;-22.5625;-91.25;
1441975904046732;-0.2967529296875;0.72100830078125;0.395751953125;0.48516845703125;15.915938910908661;15.368358372948768;0.3545103526394709;-0.76416015625;0.6826171875;-0.27783203125;-52.1875;-22.6875;-83.3125;
1441975904064733;-0.30804443359375;0.71160888671875;0.39947509765625;0.4888916015625;16.03953348487299;15.358378398444613;0.40969170667474997;-0.78564453125;0.55322265625;-0.24462890625;-66.5625;-23.4375;-80.625;
1441975904084734;-0.31768798828125;0.7027587890625;0.40240478515625;0.4931640625;16.160251074331686;15.346932543016862;0.45224427528279665;-0.79541015625;0.46044921875;-0.23193359375;-59.625;-26.3125;-76.375;
1441975904115736;-0.32550048828125;0.6943359375;0.40545654296875;0.4974365234375;16.27138643257858;15.31884181669356;0.47107091326874784;-0.7646484375;0.4111328125;-0.24169921875;-50.5625;-31.5;-70.375;
1441975904121737;-0.33099365234375;0.6883544921875;0.407958984375;0.50006103515625;16.345914186225873;15.29472031394688;0.48204081380159497;-0.7314453125;0.341796875;-0.21435546875;-45.25;-33.9375;-58.6875;
1441975904144738;-0.33544921875;0.6837158203125;0.4112548828125;0.50079345703125;16.390217934170135;15.263160589563462;0.4858572131478144;-0.69775390625;0.38623046875;-0.23046875;-33.9375;-26.75;-46.5625;
1441975904166739;-0.34027099609375;0.67901611328125;0.4158935546875;0.5001220703125;16.421216129564378;15.220682218979455;0.4878297676509144;-0.70361328125;0.43701171875;-0.25146484375;-34.375;-21.25;-37.0625;
1441975904181740;-0.344970703125;0.673583984375;0.42181396484375;0.49920654296875;16.45111266578155;15.15205541702817;0.4697700039549144;-0.70556640625;0.42626953125;-0.2587890625;-43.75;-18.625;-30.5;
1441975904204741;-0.34844970703125;0.66827392578125;0.427490234375;0.4991455078125;16.48280496278954;15.067046165225381;0.42809584848385246;-0.73583984375;0.34912109375;-0.23681640625;-51.375;-20.8125;-21.9375;
1441975904228743;-0.34942626953125;0.665283203125;0.431884765625;0.49871826171875;16.48960810077223;14.989575220045738;0.37663926774948664;-0.73193359375;0.23388671875;-0.17431640625;-45.4375;-22.5;-11.8125;
1441975904241743;-0.34857177734375;0.66455078125;0.4359130859375;0.49676513671875;16.462621811833348;14.923053483321373;0.32701017948596517;-0.68896484375;0.22314453125;-0.1630859375;-28.25;-18.4375;-0.25;
1441975904264745;-0.34710693359375;0.6658935546875;0.4398193359375;0.49249267578125;16.401466131386492;14.883922288608478;0.3028658314840908;-0.65185546875;0.259765625;-0.142578125;-18.9375;-8.5625;11.1875;
1441975904286746;-0.3450927734375;0.66815185546875;0.44378662109375;0.48724365234375;16.324101937159906;14.853052501351186;0.28549523663734006;-0.67529296875;0.287109375;-0.142578125;-15.5625;4.9375;22.1875;
1441975904301747;-0.34197998046875;0.6715087890625;0.4473876953125;0.4815673828125;16.232772986336947;14.828869620789;0.26832812551822327;-0.76318359375;0.2744140625;-0.123046875;-13.8125;12.0625;31.9375;
1441975904324748;-0.337890625;0.6759033203125;0.45050048828125;0.475341796875;16.127845379401634;14.814150039045682;0.25454689164555344;-0.82275390625;0.2734375;-0.1123046875;-7.5625;16.5625;40.1875;
1441975904346749;-0.33380126953125;0.6806640625;0.45343017578125;0.46868896484375;16.017877054184975;14.807652423820103;0.24851099717689898;-0.8525390625;0.330078125;-0.1240234375;-0.75;19.625;44.3125;
1441975904361750;-0.3304443359375;0.68560791015625;0.45574951171875;0.46148681640625;15.907740039990667;14.818236555965303;0.26082594896077194;-0.876953125;0.36279296875;-0.1259765625;0.25;23.3125;44.9375;
1441975904384752;-0.32672119140625;0.691162109375;0.45751953125;0.45404052734375;15.792000312555494;14.835747036813391;0.27610164592115544;-0.90087890625;0.3251953125;-0.1279296875;-0.1875;29.8125;46.0625;
1441975904406753;-0.32269287109375;0.69683837890625;0.4599609375;0.4456787109375;15.664536119126566;14.846480338720914;0.28769571591275545;-0.91259765625;0.3251953125;-0.1162109375;4.125;34.25;49.8125;
1441975904421754;-0.31951904296875;0.70184326171875;0.462890625;0.43701171875;15.540905573122878;14.854031895346786;0.30299411766595313;-0.89990234375;0.396484375;-0.11376953125;2.4375;36.625;51.5;
1441975904444755;-0.31646728515625;0.706787109375;0.46539306640625;0.42852783203125;15.420879264167073;14.864498101865184;0.31991027229946734;-0.88916015625;0.3681640625;-0.115234375;-4.875;38.1875;51.8125;
1441975904466756;-0.31304931640625;0.71234130859375;0.4669189453125;0.4200439453125;15.298319368137122;14.883929642220275;0.33977253039582744;-0.8759765625;0.3310546875;-0.1025390625;-2.75;39.4375;52.75;
1441975904481757;-0.308837890625;0.7186279296875;0.4681396484375;0.4110107421875;15.16401432561077;14.90508443428402;0.35714528858280625;-0.87890625;0.3154296875;-0.12109375;2.8125;41.625;55.375;
1441975904504758;-0.30474853515625;0.724609375;0.47015380859375;0.40118408203125;15.023017942015;14.918686582890306;0.3727148346647654;-0.87158203125;0.37158203125;-0.1337890625;7.375;43.9375;58.125;
1441975904526760;-0.30108642578125;0.72991943359375;0.47259521484375;0.39129638671875;14.885974513942717;14.926557050680726;0.38727251259653717;-0.88720703125;0.4365234375;-0.142578125;2.9375;46.375;59.125;
1441975904541761;-0.2962646484375;0.73553466796875;0.474853515625;0.381591796875;14.743825527775492;14.930487022339065;0.3920999638133862;-0.916015625;0.40234375;-0.14501953125;-2.3125;46.25;61.6875;
1441975904572762;-0.29052734375;0.74127197265625;0.47705078125;0.3720703125;14.598413692589254;14.930649003732647;0.3890263370914044;-0.91455078125;0.435546875;-0.1318359375;3.1875;44.9375;65.75;
1441975904586763;-0.28363037109375;0.74786376953125;0.478515625;0.36224365234375;14.442024725969285;14.935860297422563;0.38302097036624727;-0.8583984375;0.4345703125;-0.11767578125;6.75;42.6875;69.0;
1441975904604764;-0.27679443359375;0.75408935546875;0.48052978515625;0.351806640625;14.281127433105091;14.936828563622278;0.3771863048557625;-0.845703125;0.4892578125;-0.150390625;14.125;42.4375;72.375;
1441975904624765;-0.2701416015625;0.75982666015625;0.48309326171875;0.3409423828125;14.118491319561937;14.933456403787122;0.3717642023838524;-0.845703125;0.5400390625;-0.1796875;10.0625;43.0;73.625;
1441975904646767;-0.263916015625;0.7647705078125;0.48602294921875;0.33038330078125;13.963656342228445;14.925814781886448;0.36606945302718447;-0.8759765625;0.58447265625;-0.2119140625;5.1875;42.9375;74.5625;
1441975904661767;-0.2574462890625;0.7698974609375;0.48846435546875;0.3199462890625;13.808789522139104;14.921710051893305;0.36056116715271924;-0.86767578125;0.5498046875;-0.228515625;-0.6875;40.8125;75.0;
1441975904684769;-0.25048828125;0.77520751953125;0.490234375;0.3096923828125;13.653529975626144;14.921370000550631;0.35372685114574365;-0.8251953125;0.55419921875;-0.2421875;2.4375;39.25;74.75;
1441975904706770;-0.24310302734375;0.78057861328125;0.49151611328125;0.2999267578125;13.501152359193348;14.922887186880299;0.3440058946473981;-0.775390625;0.58154296875;-0.26611328125;6.6875;37.3125;73.6875;
1441975904721771;-0.2353515625;0.78594970703125;0.49200439453125;0.2911376953125;13.357241034839014;14.927683900080838;0.33079532476427786;-0.755859375;0.591796875;-0.28662109375;9.875;34.0;73.75;
1441975904744772;-0.2265625;0.79180908203125;0.49200439453125;0.2821044921875;13.204570152760585;14.935184285481325;0.31387406138635676;-0.7529296875;0.55517578125;-0.2861328125;14.8125;30.4375;74.6875;
1441975904766773;-0.21783447265625;0.797119140625;0.49273681640625;0.2725830078125;13.04865969802291;14.937333278050774;0.29682372264178936;-0.69873046875;0.60009765625;-0.2939453125;20.4375;29.3125;76.75;
1441975904783774;-0.209716796875;0.80181884765625;0.49395751953125;0.2628173828125;12.895209327921064;14.936619814757073;0.28290202831631495;-0.6669921875;0.65380859375;-0.28857421875;16.625;30.25;75.6875;
1441975904804776;-0.20184326171875;0.806640625;0.49456787109375;0.2529296875;12.742402472262912;14.941057979681178;0.27258204676506;-0.65478515625;0.63330078125;-0.28076171875;11.4375;32.1875;75.8125;
1441975904826777;-0.1942138671875;0.81158447265625;0.49432373046875;0.2432861328125;12.594038539091956;14.951437665292808;0.264775840571722;-0.623046875;0.6318359375;-0.2958984375;13.125;33.9375;74.1875;
1441975904841778;-0.18707275390625;0.81591796875;0.49432373046875;0.234130859375;12.454641344850476;14.9590228754033;0.25705282332681084;-0.6103515625;0.6591796875;-0.33447265625;16.5;33.3125;71.1875;
1441975904864779;-0.180908203125;0.819580078125;0.49456787109375;0.22552490234375;12.327582332894814;14.964525717742157;0.2520799363740561;-0.6015625;0.68115234375;-0.3603515625;13.0625;31.0;67.0;
1441975904894781;-0.17547607421875;0.8228759765625;0.49456787109375;0.21771240234375;12.213504713148568;14.971014565152313;0.24879845143189644;-0.5703125;0.66455078125;-0.3798828125;8.125;29.3125;61.1875;
1441975904903781;-0.17022705078125;0.826171875;0.49395751953125;0.210693359375;12.108756699925856;14.980702525718765;0.2449423472043775;-0.55029296875;0.630859375;-0.38037109375;6.9375;27.3125;55.8125;
1441975904924782;-0.16510009765625;0.82952880859375;0.49285888671875;0.20404052734375;12.008590855065776;14.993243226421182;0.24128187091208747;-0.52587890625;0.62646484375;-0.37158203125;10.75;25.0625;52.0;
1441975904946784;-0.16058349609375;0.83221435546875;0.49237060546875;0.19775390625;11.916508543870032;15.001004191484748;0.23829228548977371;-0.50439453125;0.65234375;-0.4130859375;12.3125;22.6875;48.75;
1441975904970785;-0.15679931640625;0.834228515625;0.49267578125;0.19134521484375;11.82823772516382;15.00348918579375;0.23801449935859972;-0.51318359375;0.654296875;-0.40478515625;7.75;22.6875;46.0;
1441975904984786;-0.15374755859375;0.8358154296875;0.4932861328125;0.1854248046875;11.749511083726231;15.003782984080596;0.2395211204515313;-0.490234375;0.65869140625;-0.3916015625;2.125;23.875;42.75;
1441975905006787;-0.15093994140625;0.8377685546875;0.49285888671875;0.179931640625;11.676295984177141;15.01093843636979;0.2426897381240313;-0.47509765625;0.61474609375;-0.35888671875;-0.5625;24.0625;38.9375;
1441975905023788;-0.1483154296875;0.83990478515625;0.49188232421875;0.17462158203125;11.605870933051397;15.021698551449798;0.24701881638454012;-0.44677734375;0.5986328125;-0.37109375;4.375;23.125;35.5625;
1441975905044789;-0.145751953125;0.842041015625;0.49072265625;0.169677734375;11.539472648176359;15.033241115347037;0.25065042473088917;-0.43115234375;0.6064453125;-0.3994140625;6.4375;22.6875;33.25;
1441975905066791;-0.14324951171875;0.8443603515625;0.4888916015625;0.1654052734375;11.480036861723434;15.048629457311606;0.25339953197544857;-0.43701171875;0.61279296875;-0.42822265625;6.4375;20.75;32.0625;
1441975905089792;-0.14105224609375;0.84637451171875;0.48736572265625;0.16156005859375;11.42689933269947;15.061587324715639;0.25582158936069477;-0.43017578125;0.634765625;-0.45751953125;10.0625;17.8125;29.0625;
1441975905104793;-0.13958740234375;0.84796142578125;0.48614501953125;0.15814208984375;11.382654145291438;15.072328309835203;0.2602268640419827;-0.408203125;0.6611328125;-0.4541015625;9.1875;16.0625;24.6875;
1441975905126794;-0.138671875;0.84912109375;0.4853515625;0.15533447265625;11.348019714635692;15.079911192619681;0.26499521373980045;-0.41162109375;0.673828125;-0.44873046875;6.8125;16.0;20.25;
1441975905149795;-0.1383056640625;0.84991455078125;0.4847412109375;0.15325927734375;11.324233505386427;15.085808201248934;0.27014925726957584;-0.4091796875;0.67333984375;-0.43212890625;4.5;14.4375;16.1875;
1441975905164796;-0.13812255859375;0.8505859375;0.484130859375;0.151611328125;11.30589531766059;15.09139238127481;0.2749621384610009;-0.39892578125;0.6533203125;-0.4169921875;3.1875;12.375;11.5;
1441975905186797;-0.13836669921875;0.85125732421875;0.483154296875;0.1505126953125;11.295469578220981;15.099250322052548;0.2808912509181743;-0.37890625;0.65087890625;-0.39892578125;3.8125;10.4375;8.0625;
1441975905209799;-0.138671875;0.851806640625;0.48248291015625;0.1495361328125;11.286634257455304;15.10513777381541;0.2863608275645664;-0.37353515625;0.63037109375;-0.40185546875;5.25;9.0625;5.0;
1441975905224800;-0.13922119140625;0.85223388671875;0.4818115234375;0.1488037109375;11.281764712346753;15.110880120754402;0.29238106902270544;-0.34912109375;0.64111328125;-0.39111328125;4.3125;8.0625;2.4375;
1441975905246801;-0.139892578125;0.85247802734375;0.481201171875;0.14874267578125;11.284535596767114;15.115698921432484;0.29698267084438157;-0.32763671875;0.61865234375;-0.38671875;3.625;6.4375;0.25;
1441975905263802;-0.140869140625;0.85247802734375;0.48065185546875;0.14947509765625;11.297273656969596;15.119619478790499;0.30079131322196867;-0.32763671875;0.611328125;-0.3701171875;3.875;4.3125;-2.25;
1441975905284803;-0.142333984375;0.85211181640625;0.480224609375;0.151611328125;11.327232824074052;15.12200764465631;0.30293064869611974;-0.33203125;0.59326171875;-0.37109375;2.75;0.75;-5.6875;
1441975905306804;-0.14410400390625;0.8516845703125;0.47918701171875;0.15533447265625;11.374990558820809;15.127394431656642;0.3029239915105474;-0.33837890625;0.56689453125;-0.3564453125;1.5625;-4.625;-10.8125;
1441975905323805;-0.14617919921875;0.85125732421875;0.47772216796875;0.16046142578125;11.438492846457928;15.13502712279973;0.3011356222446706;-0.345703125;0.5185546875;-0.3505859375;4.4375;-10.6875;-16.0625;
1441975905344807;-0.14874267578125;0.8502197265625;0.476318359375;0.1673583984375;11.523482446195855;15.140579809103397;0.29666831643077296;-0.3466796875;0.4970703125;-0.33251953125;7.5625;-16.375;-21.6875;
1441975905366808;-0.152099609375;0.84869384765625;0.47479248046875;0.17633056640625;11.63441128693648;15.14562176243343;0.29056511138460994;-0.359375;0.45703125;-0.2998046875;7.0;-23.0;-28.125;
1441975905389809;-0.15606689453125;0.84686279296875;0.47259521484375;0.18731689453125;11.769673175195699;15.153400230234979;0.2828784218139313;-0.38427734375;0.3896484375;-0.2568359375;7.625;-29.6875;-35.625;
1441975905404810;-0.1602783203125;0.8447265625;0.46966552734375;0.2000732421875;11.925081813259997;15.163760034970725;0.27247446832615924;-0.41162109375;0.32666015625;-0.216796875;10.9375;-35.75;-42.3125;
1441975905426811;-0.16485595703125;0.8424072265625;0.46612548828125;0.214111328125;12.096095113169051;15.176768459951894;0.2614475325896363;-0.435546875;0.2822265625;-0.17919921875;15.625;-41.8125;-47.4375;
1441975905449813;-0.170166015625;0.83953857421875;0.46234130859375;0.22900390625;12.281127284326004;15.190174702524981;0.25245072771460597;-0.45703125;0.25146484375;-0.15771484375;19.0625;-45.625;-52.5;
1441975905464813;-0.17633056640625;0.83563232421875;0.4586181640625;0.2452392578125;12.486774726720299;15.200708172019088;0.24388219879752002;-0.49755859375;0.2509765625;-0.1533203125;18.8125;-47.625;-58.0;
1441975905487815;-0.1834716796875;0.83074951171875;0.454833984375;0.26318359375;12.71720242034767;15.209170025949303;0.23550936404521183;-0.5673828125;0.22998046875;-0.146484375;15.5625;-50.9375;-63.6875;
1441975905509816;-0.1915283203125;0.8250732421875;0.449951171875;0.282958984375;12.974053723500996;15.222251839443116;0.2290603571987738;-0.63720703125;0.19921875;-0.15185546875;12.4375;-56.625;-70.5625;
1441975905524817;-0.20001220703125;0.81878662109375;0.44384765625;0.30419921875;13.25108075711912;15.240929102177967;0.22369381556827497;-0.72265625;0.15185546875;-0.1728515625;14.125;-62.5;-78.25;
1441975905546818;-0.2088623046875;0.81170654296875;0.4368896484375;0.326416015625;13.543632254258217;15.263116996758093;0.22010310012423842;-0.79443359375;0.16015625;-0.185546875;18.9375;-67.3125;-85.6875;
1441975905569819;-0.21624755859375;0.8046875;0.430419921875;0.34698486328125;13.812684737978262;15.280469974206019;0.2119040734517467;-0.85302734375;0.18310546875;-0.2060546875;21.5625;-72.5;-93.0625;
1441975905584820;-0.22406005859375;0.79620361328125;0.4237060546875;0.3690185546875;14.104316456988665;15.294022374900655;0.20106241619157428;-0.92578125;0.21728515625;-0.2314453125;22.375;-79.5;-100.5;
1441975905606821;-0.23199462890625;0.7864990234375;0.4161376953125;0.392822265625;14.420233676821958;15.306985828973108;0.18622080497841428;-1.0048828125;0.21435546875;-0.23193359375;21.0625;-87.5625;-108.375;
1441975905629823;-0.23992919921875;0.775634765625;0.407470703125;0.41802978515625;14.756941238016255;15.321132957542185;0.16851111275966818;-1.09033203125;0.18505859375;-0.23681640625;24.0;-96.8125;-116.4375;
1441975905644824;-0.24749755859375;0.763671875;0.39764404296875;0.4442138671875;15.109113242265538;15.335962919859947;0.14666669529696588;-1.12109375;0.16796875;-0.22509765625;27.75;-105.0;-123.75;
1441975905666825;-0.25518798828125;0.75042724609375;0.38720703125;0.4708251953125;15.474004365938702;15.348993386082384;0.12349006475644557;-1.173828125;0.18212890625;-0.2138671875;33.125;-111.1875;-129.875;
1441975905689826;-0.26324462890625;0.73553466796875;0.376708984375;0.49761962890625;15.851467832313386;15.35378228552827;0.09651783455635081;-1.189453125;0.2216796875;-0.203125;33.5;-116.0;-136.0;
1441975905704827;-0.271240234375;0.71929931640625;0.3658447265625;0.5245361328125;16.238559804102977;15.34854988370318;0.060674791885273124;-1.2509765625;0.22314453125;-0.18017578125;29.375;-120.3125;-141.5625;
1441975905734829;-0.27850341796875;0.7015380859375;0.3541259765625;0.55206298828125;16.63938067564229;15.319321131502054;17.997099199079038;-1.318359375;0.20068359375;-0.19384765625;28.375;-125.3125;-145.5625;
1441975905750830;-0.28546142578125;0.6822509765625;0.34210205078125;0.57965087890625;17.049279330754533;15.23285641573334;17.877043936353886;-1.43017578125;0.16943359375;-0.19873046875;31.75;-133.25;-148.75;
1441975905764831;-0.29388427734375;0.660888671875;0.33111572265625;0.60589599609375;17.461656877202092;14.98202065496222;17.608079026668527;-1.494140625;0.2099609375;-0.20263671875;30.875;-139.6875;-152.875;
1441975905786832;-0.303466796875;0.6380615234375;0.32061767578125;0.630859375;17.849268388220093;13.329495947637543;15.948397966532115;-1.55615234375;0.216796875;-0.16748046875;16.125;-140.875;-157.5;
1441975905809833;-0.31219482421875;0.61468505859375;0.30914306640625;0.655029296875;17.67210769334113;7.479964261153451;10.087457268999582;-1.609375;0.123046875;-0.12744140625;5.125;-140.25;-159.9375;
1441975905826834;-0.31878662109375;0.59112548828125;0.29608154296875;0.67913818359375;17.262970745743992;6.98526590246873;9.568185376977919;-1.6240234375;0.0517578125;-0.0869140625;9.25;-140.0625;-160.5;
1441975905846835;-0.3236083984375;0.5673828125;0.2822265625;0.70263671875;16.85198859616286;6.874285344922469;9.424530548060428;-1.583984375;0.0390625;-0.11083984375;22.625;-142.8125;-160.0;
1441975905869837;-0.32830810546875;0.5426025390625;0.2685546875;0.7249755859375;16.440083121737842;6.832232830376501;9.353660390819133;-1.54150390625;0.08740234375;-0.1552734375;31.0625;-145.3125;-158.75;
1441975905893838;-0.3326416015625;0.5172119140625;0.25469970703125;0.74627685546875;16.029684026500835;6.8138438515842354;9.307011831446896;-1.49560546875;0.11083984375;-0.18994140625;27.0625;-147.8125;-159.0625;
1441975905906839;-0.33502197265625;0.49176025390625;0.24041748046875;0.766845703125;15.625850890305937;6.82256802630287;9.27957407234556;-1.4501953125;0.04736328125;-0.18603515625;26.4375;-148.25;-158.3125;
1441975905929840;-0.33599853515625;0.4666748046875;0.22607421875;0.78619384765625;15.235158113664172;6.842642350100558;9.258879359198914;-1.36279296875;0.05078125;-0.16650390625;34.6875;-148.875;-154.25;
1441975905946841;-0.337158203125;0.44158935546875;0.2122802734375;0.8038330078125;14.855798166811917;6.858684737646504;9.239230697786606;-1.2783203125;0.1064453125;-0.1650390625;38.875;-145.875;-149.375;
1441975905966842;-0.3387451171875;0.416748046875;0.19915771484375;0.81964111328125;14.490250072671541;6.86894015253394;9.22013076497847;-1.18896484375;0.1259765625;-0.1650390625;33.125;-142.4375;-145.6875;
1441975905989843;-0.3389892578125;0.39306640625;0.18609619140625;0.83416748046875;14.144662047271575;6.885931548739287;9.202350610873413;-1.11669921875;0.07080078125;-0.12939453125;26.625;-137.3125;-140.5;
1441975906007844;-0.338134765625;0.37115478515625;0.17352294921875;0.84722900390625;13.826707887772168;6.907316048469495;9.185302872141929;-1.025390625;0.06640625;-0.103515625;31.375;-129.625;-132.9375;
1441975906026846;-0.33740234375;0.3515625;0.16265869140625;0.85791015625;13.548355314787791;6.924865100475571;9.171148360582869;-0.9384765625;0.09521484375;-0.10009765625;34.25;-120.1875;-122.9375;
1441975906049847;-0.33587646484375;0.34100341796875;0.15521240234375;0.8641357421875;13.392115991345696;6.938846920184428;9.155914708740589;-0.85498046875;0.11767578125;-0.123046875;28.0;-106.5625;-108.3125;
1441975906065848;-0.334716796875;0.33441162109375;0.14935302734375;0.8681640625;13.289921330817567;6.946127634420835;9.138741918219973;-0.7841796875;0.13720703125;-0.10595703125;22.8125;-86.0625;-92.5625;
1441975906086849;-0.33258056640625;0.33172607421875;0.14532470703125;0.8707275390625;13.240698366985775;6.958359691767418;9.125853583084089;-0.724609375;0.181640625;-0.1533203125;17.0;-65.1875;-75.75;
1441975906109850;-0.32940673828125;0.333251953125;0.14324951171875;0.8717041015625;13.248521091452524;6.975513630683303;9.117323503040067;-0.68994140625;0.2177734375;-0.2431640625;20.4375;-50.0625;-56.6875;
1441975906125851;-0.32574462890625;0.33990478515625;0.14459228515625;0.87030029296875;13.330299365307829;6.995228778822291;9.119052098767872;-0.6103515625;0.28466796875;-0.33740234375;23.0625;-32.375;-35.9375;
1441975906146852;-0.3240966796875;0.35369873046875;0.14984130859375;0.864501953125;13.512946541956575;6.995252044359156;9.12109218046466;-0.58056640625;0.39892578125;-0.39404296875;15.875;-10.125;-10.25;
1441975906169854;-0.3248291015625;0.376953125;0.1595458984375;0.8525390625;13.828555209855955;6.966659775341329;9.116922586388696;-0.62158203125;0.453125;-0.4560546875;-4.0625;23.625;18.5;
1441975906185855;-0.32464599609375;0.40789794921875;0.173095703125;0.8355712890625;14.25713667009486;6.933612174064685;9.115159154070737;-0.8017578125;0.4736328125;-0.56298828125;-25.0625;64.75;52.0625;
1441975906206856;-0.32440185546875;0.4346923828125;0.1859130859375;0.8192138671875;14.640217169396696;6.902386297309561;9.116920993931029;-0.951171875;0.5546875;-0.6357421875;-31.75;97.125;83.125;
1441975906229857;-0.322021484375;0.46392822265625;0.1995849609375;0.80072021484375;15.064153378674595;6.880405578645263;9.121784008791357;-1.07568359375;0.6845703125;-0.744140625;-32.875;124.25;111.5;
1441975906245858;-0.31640625;0.5009765625;0.21435546875;0.7764892578125;15.601841989194806;6.85566468934549;9.111856269517109;-1.31982421875;0.7119140625;-0.8662109375;-26.1875;155.625;144.1875;
1441975906266859;-0.31005859375;0.5462646484375;0.23382568359375;0.74212646484375;16.290628398327982;6.79232322516975;9.080989324964786;-1.4443359375;0.79150390625;-0.9189453125;-15.75;200.75;178.8125;
1441975906289861;-0.30352783203125;0.5947265625;0.260498046875;0.697265625;17.09795848507575;6.682553313263321;9.040945775985533;-1.54833984375;1.0107421875;-0.953125;-34.4375;257.4375;229.625;
1441975906314862;-0.2928466796875;0.64398193359375;0.2908935546875;0.64404296875;17.984165464848587;3.3704802863280303;5.80851077449695;-1.990234375;0.8837890625;-0.87451171875;-70.6875;291.0;280.8125;
1441975906337863;-0.27734375;0.69195556640625;0.3226318359375;0.58319091796875;17.044206193814688;15.609807245008438;0.12957620786634821;-2.37109375;0.74365234375;-0.7568359375;-80.125;310.3125;323.9375;
1441975906349864;-0.2579345703125;0.73486328125;0.354248046875;0.517578125;16.064912339006185;15.502264645295694;0.10716344647524156;-2.744140625;0.81103515625;-0.78125;-82.3125;323.875;357.5625;
1441975906365865;-0.237548828125;0.76824951171875;0.38519287109375;0.45269775390625;15.147654634082002;15.395086680521421;0.09746304407369841;-3.09033203125;0.93798828125;-0.88623046875;-85.6875;318.3125;373.1875;
1441975906386866;-0.228271484375;0.78582763671875;0.427978515625;0.383544921875;14.29648928892978;15.214877022525185;0.14498405833933592;-3.0517578125;1.36083984375;-1.05419921875;-98.5;286.1875;359.9375;
1441975906409867;-0.2208251953125;0.79193115234375;0.4720458984375;0.31805419921875;13.5422467056356;15.004855039972618;0.2021638019360128;-3.19970703125;1.28173828125;-0.96728515625;-220.5;272.0625;329.4375;
1441975906425868;-0.218017578125;0.78570556640625;0.52020263671875;0.25396728515625;12.875042549195488;14.750695141831198;0.28836264308753257;-3.34716796875;0.91015625;-0.7734375;-253.5;233.0;299.9375;
1441975906446870;-0.216552734375;0.76397705078125;0.575439453125;0.1956787109375;12.32454497889746;14.40973463175403;0.36297876930606643;-3.43408203125;0.7021484375;-0.63134765625;-312.1875;211.8125;266.9375;
1441975906469871;-0.21142578125;0.73370361328125;0.62884521484375;0.146484375;11.87439428051304;14.046116563933735;0.41320639539790693;-3.45703125;0.0703125;-0.4345703125;-385.5;158.125;234.125;
1441975906485872;-0.20245361328125;0.70068359375;0.676025390625;0.1048583984375;11.487837733325481;13.702086903920552;0.45008694805474253;-3.0703125;-0.24072265625;-0.2939453125;-390.0;98.3125;207.5625;
1441975906506873;-0.19488525390625;0.66802978515625;0.7147216796875;0.07000732421875;11.184653056524187;13.40280485303498;0.49728556438767696;-2.3525390625;-0.18115234375;-0.279296875;-361.1875;58.0625;187.75;
1441975906529874;-0.18621826171875;0.64569091796875;0.73919677734375;0.04425048828125;10.941816348111898;13.205506785121727;0.5348768115983265;-1.9033203125;-0.38232421875;-0.306640625;-318.4375;46.0625;151.1875;
1441975906545875;-0.17779541015625;0.63568115234375;0.7506103515625;0.02911376953125;10.769409416339196;13.11221250916355;0.5517160738151048;-1.4794921875;-0.50244140625;-0.1728515625;-210.6875;26.625;123.375;
1441975906566876;-0.171630859375;0.63592529296875;0.751953125;0.024658203125;10.682846238725158;13.103071892218171;0.5456881987982316;-1.05810546875;-0.5224609375;0.08544921875;-96.0625;4.25;107.5;
1441975906589878;-0.164794921875;0.64508056640625;0.7457275390625;0.02435302734375;10.609355753902483;13.16103944931306;0.5286354829958797;-0.68896484375;-0.29931640625;0.203125;8.6875;-13.75;92.875;
1441975906605879;-0.1561279296875;0.6517333984375;0.74169921875;0.02557373046875;10.536456680595768;13.197440974256285;0.49440636865907744;-0.60400390625;0.05224609375;0.1376953125;71.1875;-23.3125;73.0;
1441975906626880;-0.1495361328125;0.64892578125;0.7454833984375;0.02642822265625;10.490852389288142;13.16426841954355;0.4605611174966605;-0.369140625;0.3720703125;0.05859375;46.75;-38.5;50.4375;
1441975906649881;-0.14752197265625;0.637939453125;0.7552490234375;0.02886962890625;10.50507872738409;13.07568618139344;0.4306365846459581;-0.279296875;0.5234375;0.03466796875;-26.125;-36.75;28.5;
1441975906665882;-0.14752197265625;0.62664794921875;0.76446533203125;0.0325927734375;10.545138173673973;12.988947511880056;0.40277488382656484;-0.36865234375;0.3017578125;0.107421875;-76.875;-29.0;7.9375;
1441975906689883;-0.147216796875;0.619140625;0.77044677734375;0.03643798828125;10.578251535636502;12.930860455660376;0.3766601194620866;-0.427734375;0.20166015625;0.14990234375;-72.0625;-25.25;0.3125;
1441975906709885;-0.1466064453125;0.61492919921875;0.77374267578125;0.0401611328125;10.603862902115269;12.897390973316076;0.35312342143551273;-0.42333984375;0.3232421875;0.16455078125;-44.5625;-24.125;0.5;
1441975906725885;-0.1463623046875;0.6114501953125;0.7763671875;0.04388427734375;10.631617663395463;12.869913936356138;0.3316274850129071;-0.38037109375;0.5205078125;0.14013671875;-25.125;-22.0625;-2.3125;
1441975906754887;-0.14697265625;0.60760498046875;0.77899169921875;0.04736328125;10.665322756041718;12.841397722510264;0.31408190191247537;-0.35107421875;0.62841796875;0.1083984375;-23.875;-20.25;-7.125;
1441975906769888;-0.14794921875;0.603515625;0.78179931640625;0.05096435546875;10.702985497702276;12.811142623616805;0.29684761743156024;-0.3359375;0.6474609375;0.1103515625;-26.1875;-15.6875;-11.375;
1441975906785889;-0.14947509765625;0.59930419921875;0.78448486328125;0.05474853515625;10.746765187703852;12.780923794118554;0.28056596901524167;-0.31201171875;0.6806640625;0.1162109375;-28.75;-14.25;-15.75;
1441975906814891;-0.1510009765625;0.59381103515625;0.7880859375;0.05902099609375;10.794510202093946;12.74086782694962;0.26025232724468667;-0.29736328125;0.75927734375;0.119140625;-30.125;-12.1875;-21.8125;
1441975906829891;-0.1524658203125;0.5889892578125;0.791015625;0.06396484375;10.845563692581731;12.705670635313036;0.23708053935657877;-0.2900390625;0.77197265625;0.193359375;-35.0625;-13.375;-26.1875;
1441975906845892;-0.15350341796875;0.58642578125;0.79229736328125;0.06884765625;10.8905625073394;12.686550620998194;0.21503616670878428;-0.32470703125;0.75146484375;0.23583984375;-26.8125;-15.125;-26.1875;
1441975906867894;-0.1541748046875;0.5855712890625;0.7923583984375;0.07354736328125;10.929848051962042;12.67960052300353;0.1944570822285275;-0.34130859375;0.77880859375;0.26123046875;-9.6875;-14.375;-23.5;
1441975906892895;-0.1549072265625;0.58465576171875;0.79254150390625;0.07781982421875;10.966606481462087;12.67210735983031;0.1759038472441557;-0.35009765625;0.8388671875;0.25048828125;0.0625;-13.8125;-21.5625;
1441975906906896;-0.1563720703125;0.58154296875;0.79412841796875;0.0816650390625;11.008161916108818;12.649742850726074;0.15921705922894022;-0.3603515625;0.9033203125;0.2509765625;-2.625;-12.5;-21.0;
1441975906929897;-0.1583251953125;0.576416015625;0.79705810546875;0.08502197265625;11.051523639636367;12.613397321478223;0.14380583334873337;-0.38525390625;0.912109375;0.30419921875;-15.125;-9.1875;-22.25;
1441975906949898;-0.1611328125;0.5701904296875;0.80059814453125;0.08843994140625;11.103331672809023;12.569895854951744;0.12941143058280077;-0.3896484375;0.91650390625;0.33203125;-28.625;-6.8125;-23.1875;
1441975906965899;-0.1649169921875;0.56365966796875;0.8040771484375;0.09197998046875;11.165000679843612;12.525457801675957;0.11715574048054175;-0.41357421875;0.875;0.35791015625;-34.5;-4.375;-25.0625;
1441975906988901;-0.169677734375;0.55645751953125;0.8076171875;0.09600830078125;11.239297481531102;12.47744364250196;0.10464006284421355;-0.439453125;0.83935546875;0.3662109375;-35.8125;-0.875;-27.8125;
1441975907009902;-0.17547607421875;0.54925537109375;0.81072998046875;0.10064697265625;11.32743417654554;12.430692143565464;0.09223409099554064;-0.46533203125;0.78173828125;0.38818359375;-37.375;1.625;-31.1875;
1441975907031903;-0.1827392578125;0.5411376953125;0.81396484375;0.1058349609375;11.433331924508991;12.378941182476254;0.08013232825296682;-0.5;0.75341796875;0.35791015625;-38.1875;3.3125;-36.3125;
1441975907048904;-0.19085693359375;0.53216552734375;0.8172607421875;0.1109619140625;11.547534647547376;12.322664331496748;0.06908535064122767;-0.53857421875;0.70458984375;0.36083984375;-42.6875;6.6875;-41.8125;
1441975907069905;-0.200439453125;0.5216064453125;0.82110595703125;0.1163330078125;11.677738675666262;12.256363629846593;0.0579490163618606;-0.51953125;0.734375;0.36279296875;-49.1875;10.8125;-48.3125;
1441975907091906;-0.21282958984375;0.50897216796875;0.8250732421875;0.12176513671875;11.837154810423131;12.179903797911141;0.05118365857162067;-0.49267578125;0.6884765625;0.32666015625;-61.125;15.0625;-57.25;
1441975907108907;-0.2281494140625;0.49505615234375;0.82867431640625;0.126953125;12.025475566213036;12.099328390474497;0.05137137988523558;-0.55859375;0.61865234375;0.30810546875;-73.4375;24.0;-64.375;
1441975907129909;-0.24664306640625;0.4794921875;0.831787109375;0.13165283203125;12.245180925762481;12.013478720280743;0.05946140525317093;-0.61669921875;0.5615234375;0.244140625;-83.5;34.5;-70.1875;
1441975907151910;-0.26776123046875;0.46490478515625;0.832763671875;0.13629150390625;12.494181059824223;11.941491884653399;0.07679595298952174;-0.671875;0.40771484375;0.21923828125;-90.875;48.0625;-73.875;
1441975907168911;-0.2913818359375;0.45196533203125;0.8310546875;0.14178466796875;12.777153068549325;11.888325810756069;0.10051724326955662;-0.7080078125;0.345703125;0.1708984375;-83.3125;61.75;-78.75;
1441975907189912;-0.31781005859375;0.44091796875;0.826171875;0.1480712890625;13.097833578845652;11.859329046672274;0.13512140042716467;-0.72998046875;0.2861328125;0.13818359375;-69.1875;75.25;-88.375;
1441975907205913;-0.34295654296875;0.43133544921875;0.8201904296875;0.1534423828125;13.40272811724094;11.845170493692441;0.17605179567254162;-0.77880859375;0.25390625;0.0771484375;-55.0625;90.25;-97.6875;
1441975907244915;-0.3701171875;0.4232177734375;0.81146240234375;0.1593017578125;13.735363176431566;11.85609732335544;0.23176450074362606;-0.865234375;0.2548828125;0.12158203125;-42.125;103.875;-105.5625;
1441975907257916;-0.3988037109375;0.41400146484375;0.8011474609375;0.1663818359375;14.096810320779753;11.871085045712828;0.28990764530907215;-0.9677734375;0.3505859375;0.029296875;-31.0625;117.4375;-113.1875;
1441975907265916;-0.4278564453125;0.405517578125;0.7884521484375;0.17559814453125;14.479626005674234;11.90295313945942;0.34924611296731967;-1.0341796875;0.28173828125;-0.029296875;-30.875;123.375;-125.8125;
1441975907294918;-0.45635986328125;0.39996337890625;0.7723388671875;0.1875;14.875994243858733;11.973504573437468;0.41817277785774115;-1.123046875;0.2275390625;0.00732421875;-16.4375;126.5625;-136.375;
1441975907317919;-0.4847412109375;0.39495849609375;0.75384521484375;0.20172119140625;15.290289569948666;12.070166859913135;0.49795765835259465;-1.185546875;0.34326171875;0.0361328125;11.375;130.125;-146.0;
1441975907325920;-0.512939453125;0.38763427734375;0.73455810546875;0.21673583984375;15.717181535630866;12.174288526718849;0.5894276069969075;-1.20703125;0.43798828125;-0.03271484375;24.9375;131.125;-159.25;
1441975907347921;-0.539794921875;0.37890625;0.71466064453125;0.23297119140625;16.14638136767122;12.29241391002067;0.6922715614002264;-1.25732421875;0.40283203125;-0.091796875;19.25;127.625;-170.3125;
1441975907369922;-0.564697265625;0.37066650390625;0.69366455078125;0.25006103515625;16.565491319957875;12.466867760243218;0.8412372384970561;-1.32080078125;0.2958984375;-0.08935546875;20.625;120.3125;-176.8125;
1441975907391924;-0.58807373046875;0.3626708984375;0.67156982421875;0.267578125;16.973214765774745;12.764794252307489;1.1067346582353952;-1.32080078125;0.302734375;0.0322265625;30.875;117.5;-177.8125;
1441975907408925;-0.61004638671875;0.354248046875;0.64892578125;0.284912109375;17.355520383944164;13.381755621151328;1.6901375337068376;-1.36279296875;0.34130859375;-0.001953125;38.25;114.5625;-178.5;
1441975907429926;-0.63055419921875;0.34503173828125;0.6263427734375;0.3017578125;17.64764740188854;15.139426685810156;3.416426352555259;-1.4453125;0.26220703125;-0.01171875;38.8125;111.6875;-177.25;
1441975907451927;-0.64849853515625;0.33770751953125;0.60272216796875;0.31951904296875;17.600786316576052;0.30209740079024566;6.5309451936939835;-1.49365234375;0.16943359375;-0.0126953125;37.125;106.5;-175.0;
1441975907467928;-0.66217041015625;0.33465576171875;0.57745361328125;0.3406982421875;17.311391804321243;1.6330770812437052;7.774897880463648;-1.5361328125;0.0576171875;0.02392578125;53.75;104.375;-168.0;
1441975907489929;-0.66925048828125;0.33782958984375;0.5504150390625;0.367431640625;17.00641878641599;2.2013023651771606;8.197474038174427;-1.5361328125;-0.0595703125;0.080078125;92.1875;98.6875;-157.9375;
1441975907511930;-0.66986083984375;0.34576416015625;0.52227783203125;0.3985595703125;16.727257572877164;2.583142381003878;8.385241610796768;-1.513671875;-0.04833984375;0.04248046875;149.75;85.0;-144.875;
1441975907527931;-0.66668701171875;0.35443115234375;0.49420166015625;0.430908203125;16.46659486861519;2.8994983778222254;8.491669439555073;-1.51708984375;0.08740234375;-0.01220703125;197.875;69.8125;-134.5625;
1441975907549933;-0.66168212890625;0.3616943359375;0.46722412109375;0.46148681640625;16.221763905120987;3.1632533487771743;8.55335753798028;-1.46875;0.24853515625;-0.02294921875;213.75;57.6875;-131.3125;
1441975907571934;-0.654296875;0.36785888671875;0.4423828125;0.49072265625;16.00503933406806;3.4080724237653213;8.602362332940483;-1.34814453125;0.27978515625;-0.01904296875;205.5625;47.9375;-126.125;
1441975907587935;-0.64544677734375;0.373046875;0.4202880859375;0.5172119140625;15.82043443760177;3.625215300648807;8.637854772214558;-1.2216796875;0.30126953125;0.02978515625;199.125;33.5625;-116.9375;
1441975907609936;-0.6378173828125;0.376220703125;0.40167236328125;0.53875732421875;15.660849918550692;3.794706868494077;8.659223922905172;-1.07421875;0.4091796875;0.04296875;184.375;22.25;-104.3125;
1441975907631937;-0.632568359375;0.37750244140625;0.38714599609375;0.55450439453125;15.529050297874075;3.9113299126910657;8.668635721322763;-0.95068359375;0.48046875;0.0703125;150.3125;17.0;-93.0625;
1441975907648938;-0.62744140625;0.38037109375;0.38232421875;0.56158447265625;15.510370884198629;3.9742691452589094;8.673255967418076;-0.8486328125;0.5;0.08154296875;107.875;13.5625;-78.8125;
1441975907669939;-0.625732421875;0.3817138671875;0.38189697265625;0.5628662109375;15.519212467997319;3.98799557241324;8.672975953215175;-0.79833984375;0.486328125;0.109375;58.3125;11.625;-63.1875;
1441975907691941;-0.62786865234375;0.381591796875;0.385498046875;0.55810546875;15.551812125319573;3.9452467447215054;8.66126360654634;-0.71875;0.474609375;0.1357421875;12.3125;11.625;-46.4375;
1441975907708942;-0.6319580078125;0.3807373046875;0.39215087890625;0.54937744140625;15.607074933359772;3.8681220356826826;8.643490744040461;-0.68798828125;0.40869140625;0.1328125;-33.5625;13.875;-28.25;
1441975907730943;-0.63494873046875;0.38116455078125;0.40130615234375;0.53887939453125;15.700338702509487;3.7810402583680607;8.620997564955971;-0.68359375;0.259765625;0.1259765625;-62.9375;13.375;-7.1875;
1441975907759945;-0.63629150390625;0.38262939453125;0.41229248046875;0.52789306640625;15.823581643404687;3.696619908470627;8.599726466227795;-0.6875;0.24267578125;0.1162109375;-67.875;9.375;13.6875;
1441975907768945;-0.63470458984375;0.38623046875;0.4249267578125;0.51702880859375;15.986418912241438;3.619455173711894;8.574935372742168;-0.6806640625;0.1533203125;0.09521484375;-66.375;2.3125;34.625;
1441975907790946;-0.6302490234375;0.3919677734375;0.43853759765625;0.50677490234375;16.181714715192786;3.5487962987866273;8.542748345488585;-0.69921875;0.1513671875;0.080078125;-54.625;-4.9375;54.3125;
1441975907811948;-0.62310791015625;0.3994140625;0.453369140625;0.49664306640625;16.409868090859398;3.4789336988406228;8.501541448477386;-0.71875;0.15380859375;0.04150390625;-39.9375;-13.125;70.9375;
1441975907827949;-0.61376953125;0.4080810546875;0.46929931640625;0.48626708984375;16.665892490704838;3.3985094014353443;8.443677600779656;-0.75927734375;0.1689453125;-0.00146484375;-29.5625;-22.25;86.375;
1441975907850950;-0.603271484375;0.4156494140625;0.4847412109375;0.47772216796875;16.91415670063527;3.351500891250008;8.412545395539144;-0.80908203125;0.1884765625;-0.04638671875;-22.4375;-31.25;99.625;
1441975907871951;-0.59014892578125;0.42413330078125;0.5010986328125;0.46978759765625;17.188444980704446;3.3233361499010496;8.390994168700402;-0.88818359375;0.16064453125;-0.07666015625;-16.25;-41.5625;111.875;
1441975907887952;-0.5738525390625;0.43438720703125;0.517333984375;0.462890625;17.486899289274703;3.309650818054687;8.36661990628526;-0.9306640625;0.1064453125;-0.08251953125;-6.5;-51.375;123.375;
1441975907910953;-0.55413818359375;0.44732666015625;0.5325927734375;0.457275390625;17.80769152691486;3.227982693453228;8.250560567290114;-0.97314453125;0.06884765625;-0.087890625;10.5625;-58.3125;135.375;
1441975907931954;-0.53106689453125;0.46331787109375;0.5460205078125;0.45294189453125;17.852516398350236;12.757157736967747;17.718433518386387;-1.0205078125;0.04248046875;-0.08642578125;34.375;-61.8125;147.1875;
1441975907948955;-0.5047607421875;0.48260498046875;0.55706787109375;0.44940185546875;17.497817775552853;12.684044776873183;17.5565807890102;-1.0712890625;0.02294921875;-0.08447265625;61.0625;-61.6875;158.6875;
1441975907970957;-0.47601318359375;0.50469970703125;0.56561279296875;0.44573974609375;17.13002783576026;12.786278233970247;17.548365931551146;-1.09912109375;0.0419921875;-0.0693359375;88.4375;-58.0;169.0625;
1441975907991958;-0.44598388671875;0.52874755859375;0.5718994140625;0.44091796875;16.75355573870833;12.925356465020801;17.564328302228937;-1.10400390625;0.09130859375;-0.05517578125;110.5;-51.1875;178.375;
1441975908008959;-0.4158935546875;0.553466796875;0.57647705078125;0.43389892578125;16.37217845559877;13.076296311581102;17.590780970328066;-1.12060546875;0.154296875;-0.0419921875;123.0625;-40.8125;185.6875;
1441975908030960;-0.3870849609375;0.5775146484375;0.58026123046875;0.424072265625;15.99063235353169;13.222843358386791;17.62321320068581;-1.1162109375;0.22900390625;-0.02392578125;125.125;-28.0625;190.5625;
1441975908051961;-0.36077880859375;0.599609375;0.5841064453125;0.41119384765625;15.615187382290504;13.354194698248072;17.661147995368715;-1.12548828125;0.2919921875;-0.0068359375;115.3125;-13.8125;192.625;
1441975908068962;-0.33758544921875;0.6187744140625;0.588623046875;0.39569091796875;15.25237220034216;13.461481330590686;17.70109432754458;-1.12841796875;0.34423828125;-0.00244140625;96.0;-0.25;190.6875;
1441975908090964;-0.31805419921875;0.6343994140625;0.59429931640625;0.37823486328125;14.90983957354682;13.541105915828085;17.74289751496761;-1.11865234375;0.373046875;0.001953125;71.5;11.1875;185.0625;
1441975908111965;-0.30255126953125;0.6461181640625;0.6015625;0.3592529296875;14.592361731987113;13.592391245457645;17.78884401775989;-1.07421875;0.38818359375;-0.00830078125;42.8125;20.5625;175.125;
1441975908128966;-0.291015625;0.6536865234375;0.6104736328125;0.33941650390625;14.304961886227549;13.614968247337877;17.838127847556592;-1.04345703125;0.404296875;-0.0244140625;12.5625;28.3125;162.25;
1441975908150967;-0.28314208984375;0.65765380859375;0.62078857421875;0.3192138671875;14.04836217542972;13.614402468583721;17.892321777978538;-1.01171875;0.3857421875;-0.037109375;-17.9375;33.625;147.5625;
1441975908171968;-0.27825927734375;0.65863037109375;0.63177490234375;0.29925537109375;13.823257548434137;13.596918554422864;17.950172806696628;-0.96142578125;0.37451171875;-0.068359375;-43.625;38.1875;132.375;
1441975908187969;-0.2757568359375;0.65728759765625;0.6429443359375;0.28009033203125;13.629169302207217;13.567346494116173;0.009694679501322093;-0.91796875;0.3544921875;-0.083984375;-62.3125;41.125;117.3125;
1441975908210970;-0.2774658203125;0.65435791015625;0.65185546875;0.26422119140625;13.503969295100696;13.542344806924874;0.07565153042205534;-0.87939453125;0.3310546875;-0.10205078125;-74.0625;42.125;102.125;
1441975908231972;-0.28045654296875;0.65081787109375;0.65966796875;0.25;13.406768637961637;13.518175149146753;0.14049089887944588;-0.8330078125;0.31494140625;-0.11669921875;-77.8125;42.25;87.4375;
1441975908247973;-0.28460693359375;0.6473388671875;0.6658935546875;0.23773193359375;13.338018755646072;13.50046518387771;0.20461189425551213;-0.78515625;0.31494140625;-0.12109375;-75.1875;41.375;72.375;
1441975908269974;-0.2899169921875;0.64373779296875;0.67059326171875;0.2275390625;13.298748536984426;13.488175139163666;0.26706446176005033;-0.7431640625;0.3212890625;-0.14111328125;-69.25;40.0;56.75;
1441975908292975;-0.29638671875;0.640380859375;0.673583984375;0.21978759765625;13.290689925683342;13.484005425063124;0.3273494216997146;-0.7138671875;0.326171875;-0.1455078125;-62.0;38.4375;40.75;
1441975908307976;-0.30401611328125;0.63714599609375;0.67486572265625;0.21466064453125;13.315279396325549;13.487660039698172;0.3847353683453525;-0.6923828125;0.32666015625;-0.154296875;-53.375;36.75;24.125;
1441975908329977;-0.312744140625;0.634033203125;0.674560546875;0.21221923828125;13.371911327885272;13.498961605904231;0.43886131114012367;-0.69189453125;0.3310546875;-0.1533203125;-43.4375;34.5625;7.5;
1441975908352979;-0.32269287109375;0.63079833984375;0.6728515625;0.21240234375;13.461169052911126;13.516876773096858;0.4905021383860566;-0.6962890625;0.34326171875;-0.154296875;-33.375;32.0;-9.625;
1441975908367979;-0.33380126953125;0.627197265625;0.6700439453125;0.2149658203125;13.580712470596211;13.53958119727772;0.5401274021474692;-0.7021484375;0.34326171875;-0.1474609375;-25.3125;29.8125;-26.4375;
1441975908389981;-0.34600830078125;0.6229248046875;0.6663818359375;0.21942138671875;13.726812254848696;13.565642541364635;0.5894711709892417;-0.7099609375;0.3486328125;-0.1435546875;-19.3125;27.9375;-42.9375;
1441975908411982;-0.35955810546875;0.61767578125;0.6619873046875;0.2255859375;13.900640462876657;13.594746293794476;0.6408591020558949;-0.71484375;0.3583984375;-0.12646484375;-15.4375;27.0;-58.3125;
1441975908427983;-0.37420654296875;0.6112060546875;0.65716552734375;0.23321533203125;14.098906625355825;13.624518338237667;0.693676363919526;-0.74072265625;0.36474609375;-0.12255859375;-14.1875;26.4375;-72.875;
1441975908451984;-0.3900146484375;0.60345458984375;0.6519775390625;0.2420654296875;14.320285467919803;13.655996935860625;0.7502517554434427;-0.77099609375;0.36474609375;-0.10302734375;-14.8125;26.1875;-86.25;
1441975908472985;-0.40557861328125;0.59490966796875;0.64703369140625;0.250732421875;14.540937273816008;13.68631049229911;0.8085590714910678;-0.81494140625;0.3583984375;-0.08544921875;-15.9375;26.25;-98.375;
1441975908487986;-0.42218017578125;0.58514404296875;0.6417236328125;0.25994873046875;14.778466996983125;13.72187278255042;0.8757489799619217;-0.85693359375;0.3642578125;-0.0732421875;-17.25;27.0;-109.0;
1441975908511988;-0.43975830078125;0.57391357421875;0.63623046875;0.2691650390625;15.0287966364444;13.763504273303484;0.9554977003744495;-0.90966796875;0.36572265625;-0.048828125;-21.0;28.375;-118.125;
1441975908532989;-0.4580078125;0.56134033203125;0.63067626953125;0.2779541015625;15.285631297836241;13.813770865656819;1.0508158908541223;-0.955078125;0.36572265625;-0.03759765625;-26.6875;30.375;-125.375;
1441975908547990;-0.47650146484375;0.5479736328125;0.625;0.28631591796875;15.54331956977512;13.87822482684938;1.164155232065853;-0.99658203125;0.34716796875;-0.009765625;-33.5;32.9375;-130.0625;
1441975908569991;-0.494140625;0.53497314453125;0.618896484375;0.29425048828125;15.789376045575743;13.964538668027737;1.295891230311599;-1.02734375;0.30078125;0.02490234375;-37.125;34.8125;-131.25;
1441975908592992;-0.5101318359375;0.5235595703125;0.61181640625;0.3021240234375;16.015651671078565;14.08429298694463;1.4492190722781633;-1.05224609375;0.26025390625;0.06689453125;-33.75;35.875;-126.6875;
1441975908607993;-0.5224609375;0.5174560546875;0.600830078125;0.31341552734375;16.221763943539603;14.273917940890293;1.624972955876653;-1.0810546875;0.1884765625;0.126953125;-22.4375;36.5625;-118.125;
1441975908629994;-0.52484130859375;0.522216796875;0.5855712890625;0.32989501953125;16.36011944738548;14.49886619445273;1.7486639922481106;-1.17529296875;-0.1728515625;0.25537109375;24.1875;36.8125;-104.9375;
1441975908652996;-0.52130126953125;0.52362060546875;0.57952880859375;0.34381103515625;16.463940895551854;14.514696787533033;1.690957915816497;-1.26171875;1.0517578125;0.6142578125;111.75;25.75;-88.3125;
1441975908667997;-0.51409912109375;0.5247802734375;0.576904296875;0.35699462890625;16.544391195040088;14.421209570865022;1.5266128244788082;-1.109375;0.59716796875;0.31396484375;80.9375;-3.6875;-64.375;
1441975908689998;-0.50372314453125;0.52606201171875;0.57489013671875;0.372802734375;16.627499738166925;14.244904406027516;1.2642835168308137;-1.24609375;0.39599609375;0.2724609375;72.25;-27.6875;-29.8125;
1441975908712999;-0.49560546875;0.53289794921875;0.56854248046875;0.3834228515625;16.649105829622474;14.236047802142924;1.162926242154836;-1.04541015625;0.2470703125;0.146484375;81.4375;-58.6875;-21.125;
1441975908728000;-0.49053955078125;0.5357666015625;0.568603515625;0.38592529296875;16.627638125264912;14.17560373045108;1.0725458531421221;-0.92138671875;0.5185546875;-0.16015625;89.4375;-32.6875;-25.1875;
1441975908750001;-0.49298095703125;0.52642822265625;0.57928466796875;0.37982177734375;16.618168805231086;13.985964433112104;0.9656050535602051;-0.86962890625;0.8310546875;-0.107421875;28.875;-21.8125;-27.4375;
1441975908773003;-0.50390625;0.50634765625;0.59356689453125;0.37054443359375;16.67844050187098;13.759571391290613;0.8970507137762275;-0.873046875;0.84130859375;-0.02001953125;-83.375;-23.4375;-33.375;
1441975908795004;-0.51116943359375;0.49017333984375;0.6044921875;0.3646240234375;16.72978806726913;13.541730547961146;0.7958699997815201;-0.97900390625;0.2607421875;0.009765625;-159.625;-19.4375;-28.1875;
1441975908810005;-0.51324462890625;0.48223876953125;0.60882568359375;0.3651123046875;16.772663775014767;13.392137618400216;0.6862458116856471;-0.91748046875;0.126953125;0.06103515625;-118.875;-23.0;-23.3125;
1441975908833006;-0.51177978515625;0.47943115234375;0.6103515625;0.3682861328125;16.79399033758518;13.275014883180503;0.5680823071344371;-0.9326171875;0.1376953125;0.01953125;-42.625;-22.375;-17.375;
1441975908849007;-0.50860595703125;0.47772216796875;0.61175537109375;0.37261962890625;16.80457781041939;13.13677181155953;0.41696239683650804;-0.96240234375;0.20361328125;-0.0419921875;-2.5625;-28.6875;-12.0625;
1441975908870008;-0.50421142578125;0.4774169921875;0.6121826171875;0.378173828125;16.80952001751769;13.002710011369626;0.2560983474395252;-0.9638671875;0.232421875;-0.0634765625;8.375;-36.75;-10.5;
1441975908893009;-0.49871826171875;0.4788818359375;0.61151123046875;0.38458251953125;16.806509088233604;12.888519721245203;0.10117400589674437;-0.97119140625;0.19970703125;-0.07373046875;21.5625;-40.0;-7.5;
1441975908909010;-0.49273681640625;0.48162841796875;0.6104736328125;0.39056396484375;16.79168186706917;12.802507402220606;17.969536285522526;-0.96044921875;0.1953125;-0.08544921875;35.5;-40.4375;-4.375;
1441975908930012;-0.48699951171875;0.4847412109375;0.60931396484375;0.39556884765625;16.77105362049642;12.742856947426333;17.86650476676692;-0.93505859375;0.20751953125;-0.08642578125;40.6875;-37.6875;-0.25;
1441975908960013;-0.4814453125;0.488525390625;0.608154296875;0.3995361328125;16.742819866229777;12.713103166442007;17.794980191700798;-0.92138671875;0.19287109375;-0.07568359375;39.375;-32.625;4.625;
1441975908969014;-0.4759521484375;0.49334716796875;0.606689453125;0.40240478515625;16.706773015872262;12.721323482752338;17.760968685810415;-0.90966796875;0.1845703125;-0.0498046875;38.5625;-25.6875;9.9375;
1441975908990015;-0.470703125;0.49896240234375;0.60528564453125;0.40380859375;16.66139144037279;12.762929995081095;17.763213687761663;-0.89501953125;0.19873046875;-0.0302734375;40.0625;-18.0;15.3125;
1441975909013016;-0.46612548828125;0.50433349609375;0.6044921875;0.40362548828125;16.6098711065823;12.817434594434012;17.78740605812085;-0.9052734375;0.2314453125;-0.02392578125;38.0625;-11.0;20.25;
1441975909029017;-0.46246337890625;0.509033203125;0.60443115234375;0.4019775390625;16.55535881690569;12.87565294075356;17.826284199103032;-0.9130859375;0.26025390625;-0.01513671875;29.5625;-5.375;23.6875;
1441975909050018;-0.45953369140625;0.51324462890625;0.6048583984375;0.39935302734375;16.49958264100397;12.934768170052351;17.87382709312709;-0.9296875;0.26025390625;-0.009765625;19.5;-1.0;26.75;
1441975909073020;-0.4571533203125;0.51739501953125;0.6053466796875;0.39599609375;16.442909132556068;13.000424489257218;17.931984075353565;-0.93994140625;0.25439453125;-0.00390625;12.1875;2.375;29.1875;
1441975909089021;-0.455078125;0.52166748046875;0.6058349609375;0.39208984375;16.383874980942945;13.070881286158128;17.997071295100728;-0.94189453125;0.2431640625;-0.0107421875;8.5625;5.625;31.6875;
1441975909110022;-0.4532470703125;0.52630615234375;0.60601806640625;0.38763427734375;16.322171584826076;13.150909442254978;0.07212690267311357;-0.93408203125;0.23193359375;-0.0185546875;6.8125;9.0625;34.4375;
1441975909134023;-0.4517822265625;0.53125;0.60589599609375;0.38275146484375;16.2591219936517;13.238457944072662;0.15523695618713665;-0.93603515625;0.22607421875;-0.02099609375;7.0;12.9375;36.75;
1441975909149024;-0.45086669921875;0.53619384765625;0.6055908203125;0.37738037109375;16.19591241465284;13.329946820277454;0.2447777188610011;-0.9375;0.2294921875;-0.0322265625;6.8125;17.0625;38.3125;
1441975909170025;-0.4505615234375;0.54083251953125;0.60528564453125;0.37158203125;16.133609322984764;13.419968734023865;0.33676201439854003;-0.935546875;0.228515625;-0.041015625;5.1875;20.8125;38.5625;
1441975909193027;-0.4508056640625;0.5450439453125;0.60504150390625;0.36541748046875;16.072416173755858;13.506018794454102;0.42888524293273295;-0.9267578125;0.2314453125;-0.04345703125;1.75;24.0;37.8125;
1441975909208027;-0.45172119140625;0.54864501953125;0.60491943359375;0.3590087890625;16.014601051050825;13.586472002276759;0.5202156685796654;-0.93212890625;0.2392578125;-0.04296875;-2.4375;26.75;36.6875;
1441975909230029;-0.45306396484375;0.5517578125;0.60491943359375;0.3526611328125;15.960304180345425;13.659598128570995;0.6070446547775354;-0.93017578125;0.24169921875;-0.041015625;-6.0625;28.8125;34.5625;
1441975909253030;-0.45477294921875;0.55438232421875;0.60479736328125;0.346435546875;15.910697506566027;13.728075019044953;0.691046586694918;-0.92919921875;0.2470703125;-0.02587890625;-8.75;30.5;32.0;
1441975909269031;-0.4569091796875;0.5567626953125;0.60443115234375;0.34039306640625;15.865700432681464;13.796080586379196;0.7752818675735126;-0.92333984375;0.25390625;-0.02099609375;-10.1875;31.8125;29.0;
1441975909290032;-0.45941162109375;0.55877685546875;0.6038818359375;0.3345947265625;15.82585536021953;13.861884814837016;0.858211043725347;-0.91357421875;0.26025390625;-0.025390625;-10.5625;33.125;25.875;
1441975909313033;-0.4622802734375;0.56036376953125;0.603271484375;0.3289794921875;15.790684739132937;13.924695506536441;0.9397509576322612;-0.90576171875;0.2724609375;-0.017578125;-10.875;34.0625;22.125;
1441975909335035;-0.46575927734375;0.56121826171875;0.602783203125;0.3236083984375;15.7632728982711;13.982803679877328;1.0200942578134613;-0.90478515625;0.29541015625;-0.0244140625;-12.3125;34.5625;17.5625;
1441975909350036;-0.46978759765625;0.56103515625;0.6024169921875;0.318603515625;15.746219327050978;14.034167539059041;1.0976156883838357;-0.90576171875;0.31005859375;-0.0322265625;-15.5625;34.125;12.3125;
1441975909373037;-0.47442626953125;0.55987548828125;0.60235595703125;0.3140869140625;15.74020289165893;14.07839398587549;1.1719681773108948;-0.91162109375;0.318359375;-0.0341796875;-19.8125;33.0;6.625;
1441975909395038;-0.47943115234375;0.5577392578125;0.60235595703125;0.31011962890625;15.745354950068972;14.116858992723428;1.243041626781832;-0.91455078125;0.31787109375;-0.04052734375;-23.8125;30.9375;0.9375;
1441975909410039;-0.48455810546875;0.55499267578125;0.6024169921875;0.3070068359375;15.760965869333534;14.149762277155274;1.3082291613608996;-0.91259765625;0.30517578125;-0.0419921875;-26.3125;28.6875;-4.0625;
1441975909433040;-0.4898681640625;0.5517578125;0.60223388671875;0.3046875;15.786899007518173;14.182423584262876;1.372008001946788;-0.916015625;0.29296875;-0.0322265625;-26.625;26.0625;-8.4375;
1441975909455042;-0.494873046875;0.54827880859375;0.60211181640625;0.3031005859375;15.818392261826391;14.209560337216622;1.4280256786919476;-0.92041015625;0.2822265625;-0.04150390625;-25.625;23.25;-12.5625;
1441975909470042;-0.49969482421875;0.54449462890625;0.60198974609375;0.3023681640625;15.857706102138629;14.232302924355183;1.4773617643678811;-0.9228515625;0.28125;-0.03515625;-24.0;20.25;-15.75;
1441975909493044;-0.50421142578125;0.5406494140625;0.6016845703125;0.3023681640625;15.902229819717181;14.25350827393121;1.5217036536011737;-0.9287109375;0.2763671875;-0.03369140625;-22.0625;16.75;-18.375;
1441975909515045;-0.50823974609375;0.53668212890625;0.60137939453125;0.30316162109375;15.951876321129635;14.268830474213038;1.5567111429077358;-0.9384765625;0.2685546875;-0.04296875;-19.5625;13.125;-20.6875;
1441975909530046;-0.51177978515625;0.53277587890625;0.60107421875;0.3048095703125;16.00609520260364;14.278826356657754;1.5821451126823889;-0.94921875;0.2705078125;-0.03564453125;-16.5625;9.0625;-22.4375;
1441975909553047;-0.51470947265625;0.52899169921875;0.60064697265625;0.30712890625;16.06278309776132;14.28416059618463;1.598475368867483;-0.95556640625;0.26708984375;-0.0361328125;-12.75;5.0625;-23.9375;
