1441975520162775;0.0128173828125;-0.726318359375;-0.661376953125;-0.18682861328125;10.675863307761796;13.665771924250118;17.309689916397808;-2.111328125;-0.78662109375;0.1455078125;183.1875;1.75;254.5625;
1441975520186777;-0.01055908203125;-0.74176025390625;-0.65118408203125;-0.16046142578125;10.296005547817515;13.796023249302557;17.333699433898865;-1.68603515625;-0.67333984375;0.26025390625;130.9375;16.0625;233.4375;
1441975520207778;-0.02557373046875;-0.74560546875;-0.6519775390625;-0.13555908203125;9.971774794752847;13.829528742103191;17.37036143088675;-1.21044921875;-0.068359375;0.01513671875;123.9375;40.4375;208.125;
1441975520222779;-0.03466796875;-0.73712158203125;-0.665771484375;-0.11090087890625;9.673752362607745;13.75705651819993;17.42274142346786;-0.89599609375;0.08251953125;4.8828125E-4;26.75;54.9375;172.125;
1441975520237780;-0.04132080078125;-0.72052001953125;-0.68646240234375;-0.08966064453125;9.415558583720511;13.619471140382624;17.472479358635383;-0.7236328125;0.111328125;0.0634765625;-78.5;68.1875;154.8125;
1441975520260781;-0.04693603515625;-0.7047119140625;-0.7044677734375;-0.07098388671875;9.194338366548545;13.492858706371088;17.521543156067366;-0.69921875;-0.09619140625;0.18017578125;-139.3125;58.9375;137.8125;
1441975520281782;-0.0509033203125;-0.6959228515625;-0.71429443359375;-0.05413818359375;9.015080021146668;13.424800484703145;17.57391410319691;-0.70849609375;-0.2744140625;0.125;-127.1875;51.6875;122.0625;
1441975520297783;-0.04559326171875;-0.694580078125;-0.71661376953125;-0.0445556640625;8.98023048465577;13.411179623559427;17.634636906681035;-0.74365234375;-0.13525390625;0.13916015625;-66.5;50.8125;102.9375;
1441975520320784;-0.0318603515625;-0.69757080078125;-0.71466064453125;-0.04180908203125;9.07328060922306;13.428753713558356;17.700930046403027;-0.77294921875;0.3193359375;0.16015625;-2.6875;58.625;72.6875;
1441975520341786;-0.0098876953125;-0.69708251953125;-0.7154541015625;-0.0474853515625;9.298337332120092;13.419369853169115;17.765309584484772;-0.91552734375;0.77587890625;0.04296875;19.8125;65.75;18.8125;
1441975520357787;0.01776123046875;-0.69012451171875;-0.72119140625;-0.0584716796875;9.61026964012083;13.364701773088251;17.827558303756557;-1.07958984375;0.923828125;-0.0166015625;-13.75;65.25;-38.3125;
1441975520380788;0.0457763671875;-0.68035888671875;-0.72821044921875;-0.0694580078125;9.927461159603046;13.296276105591524;17.887148596949764;-1.06640625;0.953125;0.0498046875;-58.6875;65.375;-86.0;
1441975520403789;0.0819091796875;-0.6728515625;-0.7298583984375;-0.08905029296875;10.385022905731317;13.260192443815058;17.9416879787037;-0.9580078125;1.03564453125;0.1533203125;-74.875;67.8125;-141.75;
1441975520417790;0.12469482421875;-0.668212890625;-0.7242431640625;-0.115966796875;10.96083250942024;13.268875552634794;17.99595254226017;-0.85498046875;1.0361328125;0.20947265625;-44.8125;70.75;-214.0;
1441975520440791;0.17401123046875;-0.66436767578125;-0.7115478515625;-0.148681640625;11.643368013353468;13.318357260039946;0.06279163332218315;-0.80419921875;0.91015625;0.1796875;-5.1875;75.1875;-275.0625;
1441975520462793;0.2264404296875;-0.658447265625;-0.693359375;-0.18585205078125;12.396537350989183;13.394774613070798;0.13984139850593982;-0.92578125;0.96044921875;0.0693359375;23.25;85.6875;-329.5;
1441975520477793;0.278076171875;-0.649658203125;-0.6702880859375;-0.22674560546875;13.186224670522613;13.494932276393419;0.22076342663653842;-1.1025390625;0.89697265625;0.06884765625;38.375;85.625;-366.375;
1441975520500795;0.32757568359375;-0.63458251953125;-0.645263671875;-0.27154541015625;14.01122562724879;13.588897720952039;0.29223698713108937;-1.3037109375;0.8017578125;0.01513671875;50.6875;71.75;-386.4375;
1441975520523796;0.375244140625;-0.609619140625;-0.62255859375;-0.31622314453125;14.851284570137482;13.63644325592206;0.35067760608066056;-1.5869140625;0.88232421875;-0.2001953125;40.4375;41.4375;-408.0;
1441975520537797;0.42242431640625;-0.5767822265625;-0.60015869140625;-0.3587646484375;15.705516297217281;13.663351069350133;0.4178552726059434;-1.6162109375;0.85888671875;-0.07861328125;-0.8125;17.375;-419.875;
1441975520560798;0.46759033203125;-0.5411376953125;-0.57574462890625;-0.3963623046875;16.531735056265262;13.759004765125882;0.5648422705691002;-1.62109375;0.37109375;-0.02734375;-32.8125;8.5625;-424.0625;
1441975520582799;0.50543212890625;-0.509033203125;-0.5465087890625;-0.43218994140625;17.293539187072724;14.184688590546099;1.002632733033417;-1.75732421875;-0.0380859375;0.04833984375;-43.4375;18.625;-407.6875;
1441975520597800;0.5321044921875;-0.48431396484375;-0.513427734375;-0.4676513671875;17.79718132344896;0.029007083823943982;4.797196263915745;-1.83447265625;-0.42919921875;0.12646484375;-5.125;22.0;-377.625;
1441975520619801;0.5482177734375;-0.4664306640625;-0.47979736328125;-0.501708984375;17.375940361948352;3.5279018521987133;8.199711397540439;-1.84521484375;-0.5751953125;0.1572265625;55.875;18.5625;-332.875;
1441975520642803;0.5572509765625;-0.45269775390625;-0.4500732421875;-0.53106689453125;16.922603716939744;4.024831125567051;8.592623225470152;-1.85546875;-0.5283203125;0.1259765625;101.125;10.75;-284.125;
1441975520656804;0.5633544921875;-0.44012451171875;-0.42535400390625;-0.55499267578125;16.541197659567523;4.247912220449471;8.729403049230624;-1.7470703125;-0.3203125;0.06298828125;107.625;2.3125;-233.5;
1441975520679805;0.57049560546875;-0.42633056640625;-0.4063720703125;-0.57244873046875;16.21226413079865;4.36569537079602;8.802152037601045;-1.62158203125;-0.10302734375;0.02001953125;89.375;-4.75;-198.75;
1441975520702806;0.58074951171875;-0.41082763671875;-0.3934326171875;-0.5823974609375;15.930547659589259;4.402108708838894;8.846652591139742;-1.4677734375;0.0615234375;0.00537109375;47.9375;-8.75;-174.25;
1441975520724807;0.59405517578125;-0.39447021484375;-0.38525390625;-0.58575439453125;15.689910463220961;4.375988415044689;8.873311459336357;-1.2958984375;0.15283203125;-0.00341796875;-5.4375;-8.4375;-151.875;
1441975520739808;0.607421875;-0.3790283203125;-0.37939453125;-0.5860595703125;15.484274127088998;4.329961984824916;8.89374076850748;-1.1748046875;0.126953125;-0.03662109375;-50.625;-6.0625;-130.625;
1441975520762810;0.6171875;-0.36883544921875;-0.3770751953125;-0.58392333984375;15.364941895841513;4.281609603532088;8.903726313218964;-1.068359375;0.08251953125;-0.02978515625;-64.375;-2.9375;-112.0625;
1441975520776810;0.62548828125;-0.361083984375;-0.375732421875;-0.5806884765625;15.279730897328367;4.228596192746362;8.903844936633659;-0.93603515625;0.1064453125;-0.0224609375;-56.375;0.0;-95.9375;
1441975520799812;0.63397216796875;-0.3548583984375;-0.376708984375;-0.57464599609375;15.231384939189535;4.1556205497190195;8.895204566364653;-0.802734375;0.1611328125;-0.0322265625;-51.8125;3.75;-77.875;
1441975520822813;0.64404296875;-0.34844970703125;-0.38043212890625;-0.5648193359375;15.209057284177302;4.0547150282394835;8.883172028783576;-0.70947265625;0.22314453125;-0.04248046875;-63.0625;6.125;-60.25;
1441975520844814;0.65386962890625;-0.34088134765625;-0.38592529296875;-0.55438232421875;15.196077034599641;3.963833941072414;8.890988074323358;-0.65576171875;0.19677734375;-0.08935546875;-86.5;4.375;-43.5625;
1441975520859815;0.6573486328125;-0.3353271484375;-0.3907470703125;-0.55029296875;15.197223712007121;3.9538514594349845;8.934136654687574;-0.66748046875;-0.04150390625;-0.1064453125;-94.6875;-5.0625;-26.0;
1441975520882817;0.65142822265625;-0.33612060546875;-0.3939208984375;-0.5545654296875;15.237209064518536;4.037032899301959;8.993778887352132;-0.7001953125;-0.17626953125;-0.0126953125;-48.8125;-16.6875;-15.0625;
1441975520896817;0.6400146484375;-0.34326171875;-0.3961181640625;-0.56182861328125;15.322009701575015;4.150154270195495;9.036344152279609;-0.619140625;-0.126953125;0.02734375;29.0625;-25.9375;2.875;
1441975520919819;0.626708984375;-0.35394287109375;-0.40008544921875;-0.5673828125;15.456701424849417;4.259256418266665;9.069145968798185;-0.59326171875;-0.0244140625;-0.0205078125;75.75;-24.0625;22.1875;
1441975520942820;0.61328125;-0.365234375;-0.40753173828125;-0.56964111328125;15.633272468439035;4.364816701380419;9.116425818768139;-0.67041015625;0.056640625;-0.0888671875;82.5;-24.6875;41.875;
1441975520956821;0.60028076171875;-0.3758544921875;-0.41815185546875;-0.56884765625;15.837032087329087;4.475402805319649;9.190490436928153;-0.74462890625;0.08984375;-0.0712890625;65.0;-29.0625;59.9375;
1441975520979822;0.5869140625;-0.386474609375;-0.4310302734375;-0.5660400390625;16.064056414624368;4.606818691719007;9.297001185922028;-0.84619140625;0.01123046875;-0.0458984375;43.5;-34.0;78.5;
1441975521002823;0.5723876953125;-0.398193359375;-0.4447021484375;-0.56219482421875;16.309738083442493;4.7727272640827065;9.43697060094667;-0.89794921875;-0.09912109375;0.01171875;31.5625;-35.3125;99.5625;
1441975521016824;0.55523681640625;-0.412109375;-0.45941162109375;-0.55755615234375;16.585122599226864;5.016157175798807;9.646020170843368;-0.97216796875;-0.154296875;0.02294921875;32.5625;-35.625;123.0625;
1441975521039826;0.53564453125;-0.4283447265625;-0.474365234375;-0.55194091796875;16.880434550487657;5.388602527579572;9.974164704895994;-1.0546875;-0.20068359375;0.02734375;42.0;-36.8125;143.1875;
1441975521062827;0.5146484375;-0.4461669921875;-0.48968505859375;-0.54437255859375;17.17827007842462;6.017078932169556;10.556696603817018;-1.0654296875;-0.1748046875;0.02734375;52.375;-34.6875;159.75;
1441975521076828;0.4932861328125;-0.46429443359375;-0.506103515625;-0.53387451171875;17.426496038096168;7.2701231023034945;11.77362443280833;-1.05908203125;-0.14208984375;0.021484375;54.125;-30.25;175.4375;
1441975521099829;0.47198486328125;-0.481689453125;-0.52374267578125;-0.5205078125;17.475592600054995;9.415781911561204;13.8972283238544;-1.12060546875;-0.09228515625;0.02197265625;44.5;-26.1875;189.5625;
1441975521122830;0.45086669921875;-0.49786376953125;-0.54266357421875;-0.50445556640625;17.25378180108915;11.057251772669611;15.532020766804685;-1.2373046875;-0.06201171875;0.01806640625;31.1875;-24.6875;199.8125;
1441975521136831;0.4300537109375;-0.5125732421875;-0.56268310546875;-0.485595703125;16.901688117766476;11.832687540165573;16.317054590894735;-1.24072265625;-0.021484375;0.0400390625;16.0;-23.4375;209.0625;
1441975521159832;0.4102783203125;-0.52508544921875;-0.58331298828125;-0.46453857421875;16.510448630971766;12.208546442769405;16.720008052040903;-1.14111328125;0.02392578125;0.06591796875;0.0625;-20.9375;216.5625;
1441975521182834;0.39166259765625;-0.53546142578125;-0.603759765625;-0.4420166015625;16.113518475742517;12.4128000894188;16.96491150722578;-1.0693359375;0.07470703125;0.09375;-16.75;-18.5625;217.25;
1441975521196834;0.374267578125;-0.54412841796875;-0.62335205078125;-0.418701171875;15.725390059977542;12.535550898944479;17.1372170468313;-1.04443359375;0.12646484375;0.12353515625;-30.0625;-15.0625;213.6875;
1441975521218836;0.35809326171875;-0.55126953125;-0.64154052734375;-0.39544677734375;15.355797880320765;12.612102423120552;17.267840158363853;-1.02587890625;0.18310546875;0.1376953125;-37.875;-10.6875;206.875;
1441975521242837;0.343017578125;-0.556640625;-0.6585693359375;-0.37261962890625;15.006275687880677;12.6552167234931;17.369737886127773;-0.994140625;0.2255859375;0.134765625;-42.0;-7.5;196.25;
1441975521256838;0.3292236328125;-0.560302734375;-0.67449951171875;-0.350341796875;14.679365151566637;12.676001681601427;17.454360708085893;-0.9140625;0.24462890625;0.1376953125;-46.125;-6.0625;184.9375;
1441975521278839;0.316650390625;-0.56280517578125;-0.68890380859375;-0.32928466796875;14.379435580902086;12.68394681999566;17.526123636367693;-0.82421875;0.24951171875;0.1572265625;-50.5625;-4.5625;173.125;
1441975521304841;0.305419921875;-0.56463623046875;-0.70123291015625;-0.3101806640625;14.113185878194772;12.686373385853752;17.58719389518989;-0.75;0.25341796875;0.1572265625;-50.5625;-2.9375;159.375;
1441975521316841;0.29547119140625;-0.5660400390625;-0.7115478515625;-0.29339599609375;13.881320906613327;12.685736097746343;17.637840548142762;-0.6982421875;0.25048828125;0.13330078125;-45.1875;-2.25;142.125;
1441975521340843;0.28741455078125;-0.566650390625;-0.719970703125;-0.279296875;13.691494561671501;12.680919597751855;17.67874860662152;-0.65185546875;0.28125;0.11865234375;-39.1875;-1.8125;123.6875;
1441975521362844;0.2828369140625;-0.56597900390625;-0.726318359375;-0.26861572265625;13.563545331294595;12.671709341249876;17.712555905106527;-0.6337890625;0.31298828125;0.1015625;-35.1875;-1.125;102.1875;
1441975521376845;0.28021240234375;-0.5643310546875;-0.73162841796875;-0.2603759765625;13.473702978770337;12.656790203893125;17.738593665357698;-0.626953125;0.32275390625;0.0849609375;-34.0;-0.25;81.0625;
1441975521407847;0.279052734375;-0.562255859375;-0.7357177734375;-0.2545166015625;13.416860871468952;12.640271407132806;17.75726851346378;-0.60400390625;0.30322265625;0.0859375;-33.625;0.1875;62.0625;
1441975521421847;0.27935791015625;-0.56060791015625;-0.73797607421875;-0.25128173828125;13.394830927317344;12.629524295602057;17.77034101532461;-0.55908203125;0.28662109375;0.0908203125;-29.75;0.8125;44.0;
1441975521436848;0.2813720703125;-0.559326171875;-0.73828125;-0.25091552734375;13.411710477486304;12.624530395267843;17.777378313468603;-0.53564453125;0.2880859375;0.083984375;-20.0;1.8125;24.9375;
1441975521458849;0.2852783203125;-0.5579833984375;-0.73699951171875;-0.25341796875;13.46861551175126;12.621442864681677;17.77747285701945;-0.54150390625;0.30712890625;0.08203125;-10.75;3.0;4.125;
1441975521481851;0.291015625;-0.55621337890625;-0.7342529296875;-0.2586669921875;13.56460810048489;12.617556971832679;17.76979977424958;-0.572265625;0.3388671875;0.08544921875;-4.1875;4.25;-16.4375;
1441975521496852;0.29901123046875;-0.552978515625;-0.7305908203125;-0.26666259765625;13.703579616554242;12.604164633456772;17.75192039309527;-0.6103515625;0.38232421875;0.0869140625;-0.125;4.8125;-38.1875;
1441975521527853;0.309326171875;-0.548095703125;-0.72607421875;-0.277099609375;13.884194298353998;12.579434683981802;17.724013759902817;-0.66796875;0.41845703125;0.0986328125;-1.875;4.8125;-61.1875;
1441975521541854;0.3204345703125;-0.54248046875;-0.720703125;-0.28924560546875;14.086545569341716;12.547002581126286;17.68499727018878;-0.71484375;0.41552734375;0.125;-4.875;6.3125;-82.3125;
1441975521564856;0.333251953125;-0.53692626953125;-0.7130126953125;-0.30389404296875;14.327307441616867;12.516062274662495;17.63738650844152;-0.73974609375;0.3935546875;0.15234375;-2.5;8.25;-101.4375;
1441975521587857;0.3477783203125;-0.53173828125;-0.702392578125;-0.3209228515625;14.607950869115877;12.49026006022586;17.58285548347061;-0.76318359375;0.36328125;0.1748046875;7.0625;11.875;-121.25;
1441975521601858;0.36297607421875;-0.527099609375;-0.68927001953125;-0.3397216796875;14.914125577168072;12.467407778317865;17.519299866527227;-0.83203125;0.3173828125;0.1787109375;19.375;18.0625;-139.625;
1441975521616859;0.37811279296875;-0.5220947265625;-0.67486572265625;-0.35931396484375;15.230717855013442;12.433897500845683;17.440754167566908;-0.9111328125;0.28955078125;0.19287109375;31.375;21.25;-152.125;
1441975521638860;0.39306640625;-0.51678466796875;-0.65960693359375;-0.37872314453125;15.549186487944565;12.388541435481207;17.34976457520058;-0.9599609375;0.22265625;0.197265625;35.9375;21.0625;-158.0625;
1441975521661861;0.4072265625;-0.51171875;-0.643798828125;-0.3973388671875;15.858400036387597;12.333027345571425;17.247294232047253;-0.99755859375;0.1435546875;0.2255859375;37.4375;22.8125;-158.4375;
1441975521684862;0.42034912109375;-0.50634765625;-0.62872314453125;-0.41436767578125;16.146395040916964;12.254461379457286;17.127289786807598;-1.08349609375;0.10009765625;0.21630859375;40.0625;23.75;-153.375;
1441975521698863;0.4326171875;-0.50030517578125;-0.61517333984375;-0.42913818359375;16.40727366848309;12.143614424717331;16.98614916486067;-1.11669921875;0.0703125;0.177734375;35.0;21.625;-143.5;
1441975521721865;0.44415283203125;-0.49365234375;-0.60321044921875;-0.44183349609375;16.64135821232297;11.990778335961084;16.813713445203;-1.10595703125;0.03076171875;0.17578125;24.5625;20.0;-131.4375;
1441975521744866;0.455078125;-0.4871826171875;-0.59234619140625;-0.45245361328125;16.85078473944164;11.804650549462295;16.61514715789491;-1.07861328125;-0.02294921875;0.18115234375;14.6875;18.375;-119.875;
1441975521759867;0.465087890625;-0.48052978515625;-0.582275390625;-0.46246337890625;17.038164430473273;11.538118981286622;16.33829110150118;-1.06396484375;-0.0546875;0.171875;8.25;19.875;-107.4375;
1441975521790868;0.47265625;-0.47515869140625;-0.57373046875;-0.4708251953125;17.179567261244447;11.228505761740085;16.01699607840601;-1.0712890625;-0.06201171875;0.15283203125;7.625;17.5625;-91.375;
1441975521812870;0.4779052734375;-0.47161865234375;-0.566650390625;-0.4776611328125;17.278796347594213;10.918452209267217;15.692033282886523;-1.0625;-0.04931640625;0.1513671875;9.375;13.75;-74.9375;
1441975521818870;0.4810791015625;-0.4696044921875;-0.56103515625;-0.4830322265625;17.34271050425449;10.644920049689606;15.401756671307398;-1.04736328125;-0.0087890625;0.14453125;12.6875;10.875;-59.0625;
1441975521841871;0.482666015625;-0.46893310546875;-0.5567626953125;-0.487060546875;17.381623618745316;10.442925945532814;15.182358646660754;-1.0341796875;0.03271484375;0.13330078125;15.1875;8.0625;-44.6875;
1441975521865873;0.48321533203125;-0.46881103515625;-0.5538330078125;-0.48992919921875;17.40249933209605;10.30519004592834;15.029884368035315;-1.00927734375;0.07568359375;0.13232421875;15.75;6.6875;-32.5;
1441975521878874;0.48309326171875;-0.46929931640625;-0.5517578125;-0.491943359375;17.413912115296007;10.23183489092912;14.943024391282737;-1.0009765625;0.10107421875;0.130859375;13.75;4.4375;-22.9375;
1441975521901875;0.481201171875;-0.4708251953125;-0.5496826171875;-0.49468994140625;17.412148440613507;10.195597317873752;14.883135500407679;-1.00830078125;0.08740234375;0.10107421875;12.75;2.0;-13.9375;
1441975521924876;0.47698974609375;-0.47442626953125;-0.54766845703125;-0.49755859375;17.397161839227557;10.268308031142054;14.91942468728953;-1.00244140625;0.05859375;0.11328125;23.125;-2.0625;-6.4375;
1441975521938877;0.47186279296875;-0.4791259765625;-0.5460205078125;-0.49969482421875;17.376133120277522;10.418850920514863;15.030927162533231;-0.94775390625;0.1298828125;0.11572265625;36.375;-3.375;0.5625;
1441975521961878;0.46661376953125;-0.4835205078125;-0.54541015625;-0.5010986328125;17.34550515815844;10.58189247221204;15.160528457022787;-0.923828125;0.16748046875;0.1103515625;38.5625;-2.6875;6.875;
1441975521985880;0.46136474609375;-0.48736572265625;-0.54559326171875;-0.50201416015625;17.306867601506557;10.731485307017683;15.281933998673882;-0.92529296875;0.16259765625;0.115234375;33.8125;-4.0625;12.625;
1441975522007881;0.45574951171875;-0.4912109375;-0.54638671875;-0.50250244140625;17.259403887595724;10.882846550370589;15.407026277077934;-0.92431640625;0.12939453125;0.12646484375;28.875;-6.1875;17.875;
1441975522022882;0.45037841796875;-0.49505615234375;-0.54791259765625;-0.50189208984375;17.20713427533782;11.047613625279794;15.551469565808969;-0.93310546875;0.12646484375;0.14208984375;26.6875;-6.6875;23.0;
1441975522052883;0.4456787109375;-0.49835205078125;-0.5504150390625;-0.50006103515625;17.150447441294965;11.206590691748344;15.699927987053725;-0.93701171875;0.13623046875;0.12841796875;21.6875;-5.9375;27.875;
1441975522058884;0.44158935546875;-0.500732421875;-0.55413818359375;-0.49725341796875;17.086661065651843;11.341770460412663;15.83528050806204;-0.95263671875;0.123046875;0.11669921875;11.9375;-5.5;32.9375;
1441975522081885;0.4378662109375;-0.5028076171875;-0.558349609375;-0.49371337890625;17.019793665161583;11.466267328543944;15.96538987779407;-0.96337890625;0.10205078125;0.13232421875;1.75;-5.75;38.0;
1441975522104886;0.43414306640625;-0.5047607421875;-0.5631103515625;-0.4896240234375;16.946387489493432;11.580578887261213;16.088831468471977;-0.97265625;0.07177734375;0.12158203125;-3.375;-5.625;42.875;
1441975522118887;0.4300537109375;-0.5068359375;-0.5682373046875;-0.485107421875;16.864734743341884;11.687674826277528;16.205948688105153;-0.984375;0.06103515625;0.12548828125;-6.5625;-5.9375;47.875;
1441975522141889;0.42584228515625;-0.50909423828125;-0.57354736328125;-0.48016357421875;16.77813232657785;11.78950945838604;16.318700475223793;-0.98486328125;0.0625;0.12548828125;-7.0625;-6.1875;52.625;
1441975522164890;0.42156982421875;-0.51129150390625;-0.5792236328125;-0.474853515625;16.686084451483158;11.879582888173232;16.421822668111368;-0.99658203125;0.07177734375;0.119140625;-7.8125;-6.3125;55.9375;
1441975522178891;0.41717529296875;-0.513427734375;-0.5849609375;-0.46929931640625;16.590719473061878;11.958755031412727;16.51478048399138;-0.998046875;0.0810546875;0.1201171875;-9.625;-6.625;58.6875;
1441975522201892;0.412841796875;-0.51544189453125;-0.59075927734375;-0.463623046875;16.49417705040126;12.026464815428692;16.597366575227767;-0.99462890625;0.09716796875;0.12109375;-10.3125;-6.9375;60.125;
1441975522224893;0.40850830078125;-0.51739501953125;-0.5963134765625;-0.4581298828125;16.39910805782249;12.083321068312104;16.668077180307023;-0.978515625;0.1240234375;0.12451171875;-11.1875;-6.6875;59.375;
1441975522238894;0.40472412109375;-0.51904296875;-0.601318359375;-0.45306396484375;16.31367740948685;12.128472326380178;16.726754735617625;-0.978515625;0.15576171875;0.130859375;-10.75;-6.4375;56.8125;
1441975522261895;0.40118408203125;-0.5203857421875;-0.60595703125;-0.448486328125;16.234538153971418;12.161879096604894;16.772828790310406;-0.98486328125;0.15087890625;0.12060546875;-10.4375;-6.375;53.0625;
1441975522284897;0.3978271484375;-0.521728515625;-0.61016845703125;-0.4442138671875;16.16057501537035;12.191701118706334;16.813746884964257;-0.970703125;0.15087890625;0.130859375;-9.5;-6.4375;49.8125;
1441975522298898;0.39501953125;-0.52276611328125;-0.6138916015625;-0.4403076171875;16.096136285013007;12.215599165868099;16.8487552010816;-0.95166015625;0.17138671875;0.1298828125;-8.25;-5.75;46.0625;
1441975522321899;0.39300537109375;-0.52313232421875;-0.61737060546875;-0.4368896484375;16.042958024435315;12.228106602537622;16.8744955135021;-0.93896484375;0.18798828125;0.130859375;-8.375;-4.875;40.8125;
1441975522361901;0.39178466796875;-0.5228271484375;-0.6204833984375;-0.433837890625;16.00148644081736;12.23219800239475;16.89395932815941;-0.93798828125;0.19580078125;0.1328125;-10.9375;-4.375;34.6875;
1441975522363901;0.39117431640625;-0.522216796875;-0.62310791015625;-0.431396484375;15.9712453072732;12.230921634697356;16.907504885714943;-0.93798828125;0.18896484375;0.13232421875;-13.4375;-3.875;29.1875;
1441975522391903;0.391357421875;-0.521484375;-0.62481689453125;-0.4295654296875;15.956180611309193;12.229737638909373;16.919344782385107;-0.92333984375;0.18896484375;0.1376953125;-13.0;-2.6875;23.5625;
1441975522404904;0.39208984375;-0.5206298828125;-0.62579345703125;-0.42852783203125;15.953772579230955;12.225413311158123;16.925515134730638;-0.9306640625;0.1884765625;0.12744140625;-11.4375;-1.125;16.8125;
1441975522418904;0.39337158203125;-0.51959228515625;-0.626220703125;-0.427978515625;15.96178297694022;12.219011804249206;16.928688613937293;-0.943359375;0.181640625;0.12744140625;-9.375;0.0;11.0;
1441975522441906;0.39501953125;-0.51837158203125;-0.626220703125;-0.427978515625;15.978113353711228;12.20871749980841;16.926690642569234;-0.93359375;0.17626953125;0.12255859375;-8.4375;0.8125;5.6875;
1441975522464907;0.397216796875;-0.516845703125;-0.62579345703125;-0.42840576171875;16.004058761924064;12.194493830770856;16.92073075420988;-0.93603515625;0.1826171875;0.12548828125;-7.6875;1.25;0.625;
1441975522478908;0.40008544921875;-0.5147705078125;-0.62518310546875;-0.42919921875;16.039287448062563;12.172515664454796;16.908923623046746;-0.94189453125;0.1826171875;0.1220703125;-7.75;1.8125;-4.375;
1441975522510910;0.4034423828125;-0.51239013671875;-0.624267578125;-0.43017578125;16.081822904959154;12.147305075361993;16.89475067451234;-0.95751953125;0.177734375;0.1171875;-10.25;2.0;-9.1875;
1441975522523910;0.40716552734375;-0.509765625;-0.62298583984375;-0.43170166015625;16.1322133111011;12.115501108855566;16.873045889549164;-0.9580078125;0.17236328125;0.1103515625;-11.625;2.4375;-12.75;
1441975522541911;0.41094970703125;-0.5072021484375;-0.62115478515625;-0.43365478515625;16.18797319231681;12.081806508381472;16.846605258031396;-0.966796875;0.158203125;0.11669921875;-10.625;3.25;-17.0;
1441975522561913;0.414794921875;-0.50482177734375;-0.6190185546875;-0.4359130859375;16.24680526393122;12.047321615280078;16.817209502389527;-0.96533203125;0.146484375;0.1220703125;-7.875;3.6875;-19.875;
1441975522584914;0.418701171875;-0.5025634765625;-0.61651611328125;-0.43829345703125;16.308586032252087;12.013254332150819;16.786642153335258;-0.9697265625;0.150390625;0.12109375;-5.6875;4.5;-22.125;
1441975522600915;0.4227294921875;-0.50018310546875;-0.6138916015625;-0.4407958984375;16.372590728509223;11.974466145568366;16.751348296167187;-0.9716796875;0.15087890625;0.1162109375;-4.4375;5.375;-24.4375;
1441975522622916;0.4267578125;-0.49774169921875;-0.6112060546875;-0.44342041015625;16.437186376473434;11.930494212983183;16.71051254960708;-0.97412109375;0.14404296875;0.1220703125;-4.375;5.6875;-25.9375;
1441975522652918;0.4307861328125;-0.49530029296875;-0.60845947265625;-0.4459228515625;16.50148787998809;11.88488493533522;16.66823674041613;-0.96728515625;0.13232421875;0.123046875;-4.0;5.875;-26.6875;
1441975522658918;0.4346923828125;-0.4930419921875;-0.605712890625;-0.44842529296875;16.5641260411463;11.83818947448103;16.623981164415127;-0.9599609375;0.1220703125;0.1259765625;-4.0625;6.5625;-26.9375;
1441975522681919;0.4384765625;-0.49102783203125;-0.60302734375;-0.45068359375;16.62396331673646;11.794765690887091;16.582826676580886;-0.958984375;0.11962890625;0.1240234375;-3.3125;6.75;-26.375;
1441975522703921;0.44219970703125;-0.489013671875;-0.60040283203125;-0.4527587890625;16.682068527909635;11.749929836606434;16.54081103052015;-0.962890625;0.12646484375;0.11669921875;-2.9375;7.0625;-26.0625;
1441975522718922;0.44573974609375;-0.48699951171875;-0.59796142578125;-0.45458984375;16.736404589329553;11.703753011012116;16.498189771021426;-0.97802734375;0.12939453125;0.11328125;-3.875;7.25;-25.5;
1441975522741923;0.44921875;-0.4849853515625;-0.59576416015625;-0.4561767578125;16.787601736265803;11.656469265414676;16.455696391182492;-0.97705078125;0.12939453125;0.10986328125;-4.5625;6.875;-24.4375;
1441975522763924;0.45245361328125;-0.48321533203125;-0.5936279296875;-0.4576416015625;16.835489360895487;11.611816854514585;16.41496158591679;-0.97705078125;0.12451171875;0.11376953125;-5.4375;6.875;-23.0625;
1441975522778925;0.45538330078125;-0.48162841796875;-0.59173583984375;-0.458984375;16.878322557161134;11.56809831405498;16.374806384536534;-0.978515625;0.12744140625;0.11474609375;-4.8125;7.3125;-21.8125;
1441975522803926;0.4580078125;-0.48016357421875;-0.5899658203125;-0.4600830078125;16.91687792089555;11.527556846725624;16.33769733238585;-0.9814453125;0.123046875;0.119140625;-4.0;6.8125;-19.9375;
1441975522823928;0.46044921875;-0.47900390625;-0.5882568359375;-0.46099853515625;16.95272345834597;11.494514268766391;16.30738397893673;-0.97314453125;0.11767578125;0.11865234375;-4.0625;6.625;-17.9375;
1441975522840929;0.4625244140625;-0.47802734375;-0.5867919921875;-0.46185302734375;16.98328875240309;11.463340191269028;16.278236560922096;-0.97216796875;0.11474609375;0.10791015625;-3.25;6.4375;-15.75;
1441975522885931;0.4642333984375;-0.4771728515625;-0.58563232421875;-0.46246337890625;17.007911576629617;11.436869162256174;16.25399546442472;-0.97265625;0.111328125;0.1142578125;-2.3125;5.9375;-13.375;
1441975522888931;0.465576171875;-0.4766845703125;-0.584716796875;-0.462890625;17.027077790975795;11.420976444854432;16.239446127862475;-0.97265625;0.10693359375;0.11279296875;-2.25;5.125;-10.75;
1441975522909932;0.466552734375;-0.476318359375;-0.58404541015625;-0.46307373046875;17.040871985909025;11.411656426837641;16.231508115806754;-0.966796875;0.11181640625;0.1123046875;-1.625;4.5625;-8.0625;
1441975522921933;0.4671630859375;-0.4761962890625;-0.58355712890625;-0.46319580078125;17.049968593489663;11.40856706237718;16.22874952089172;-0.970703125;0.1162109375;0.11279296875;-1.4375;3.9375;-5.75;
1441975522943934;0.4674072265625;-0.47625732421875;-0.58331298828125;-0.46319580078125;17.053859052187867;11.411480604197587;16.23147809533735;-0.9716796875;0.1171875;0.11376953125;-0.375;2.875;-3.25;
1441975522958935;0.4671630859375;-0.47662353515625;-0.5831298828125;-0.4632568359375;17.053067844567785;11.419981313888028;16.237526385192645;-0.96826171875;0.11181640625;0.11474609375;0.5;2.0;-0.8125;
1441975522981937;0.46661376953125;-0.4771728515625;-0.5831298828125;-0.46319580078125;17.048030815794576;11.43473201798048;16.2493086225494;-0.9677734375;0.1181640625;0.115234375;2.3125;1.125;1.25;
1441975523003938;0.4659423828125;-0.477783203125;-0.583251953125;-0.463134765625;17.040984123456198;11.450172390083061;16.261595436159574;-0.9736328125;0.12255859375;0.11083984375;3.5;0.125;2.875;
1441975523018939;0.46502685546875;-0.47845458984375;-0.5836181640625;-0.46295166015625;17.029788074752638;11.468162815304996;16.27661676888704;-0.96630859375;0.11865234375;0.10791015625;3.25;-0.8125;4.5625;
1441975523041940;0.4639892578125;-0.47900390625;-0.584228515625;-0.462646484375;17.015582082233983;11.484072414954143;16.290627086294222;-0.96533203125;0.115234375;0.1123046875;3.125;-1.6875;6.4375;
1441975523063941;0.46282958984375;-0.4794921875;-0.58502197265625;-0.46221923828125;16.998787768846505;11.499609845839252;16.304984564546825;-0.97607421875;0.1142578125;0.11083984375;2.5;-2.5;7.875;
1441975523095943;0.461669921875;-0.47991943359375;-0.5860595703125;-0.461669921875;16.979987612936856;11.514616950437572;16.3200290755365;-0.97998046875;0.1201171875;0.12353515625;1.4375;-2.875;8.875;
1441975523101943;0.46051025390625;-0.4803466796875;-0.58721923828125;-0.4609375;16.959941760404647;11.532273653091526;16.338609138884845;-0.9716796875;0.12109375;0.12451171875;0.25;-3.1875;9.8125;
1441975523123945;0.4593505859375;-0.48095703125;-0.5882568359375;-0.46014404296875;16.940510176004697;11.555307577649941;16.361865325366654;-0.966796875;0.119140625;0.123046875;-0.25;-2.875;10.8125;
1441975523146946;0.458251953125;-0.48138427734375;-0.5894775390625;-0.459228515625;16.920106806790297;11.574980150827477;16.383347971679076;-0.96337890625;0.12841796875;0.11962890625;0.0625;-2.625;11.25;
1441975523161947;0.4573974609375;-0.4815673828125;-0.5908203125;-0.45806884765625;16.900578448392196;11.593100470186236;16.405753607499225;-0.96875;0.126953125;0.1181640625;-1.125;-2.875;11.4375;
1441975523183948;0.456787109375;-0.48150634765625;-0.59234619140625;-0.45684814453125;16.881836445604225;11.605956471465309;16.42498220116028;-0.9677734375;0.13427734375;0.11669921875;-3.8125;-2.875;11.3125;
1441975523198949;0.4561767578125;-0.48138427734375;-0.59368896484375;-0.45574951171875;16.864709078374652;11.615628999212529;16.44034710364939;-0.9716796875;0.13232421875;0.11181640625;-5.875;-3.1875;10.8125;
1441975523229951;0.45556640625;-0.48138427734375;-0.594970703125;-0.45477294921875;16.84813889382955;11.625615017374347;16.455120063355572;-0.96728515625;0.1259765625;0.1171875;-5.375;-2.9375;10.375;
1441975523252952;0.455078125;-0.4813232421875;-0.59613037109375;-0.45379638671875;16.833542322238138;11.634895034647755;16.46937373845379;-0.95947265625;0.13134765625;0.11669921875;-4.375;-2.9375;9.875;
1441975523258952;0.45465087890625;-0.48114013671875;-0.59735107421875;-0.45281982421875;16.819127904743027;11.641176105898705;16.481331677645983;-0.955078125;0.13232421875;0.1123046875;-4.5;-2.6875;9.125;
1441975523281954;0.4544677734375;-0.48077392578125;-0.5985107421875;-0.45184326171875;16.807418450584294;11.64438728584738;16.491274021423934;-0.955078125;0.14013671875;0.11767578125;-5.375;-2.75;8.3125;
1441975523312956;0.45452880859375;-0.48016357421875;-0.59967041015625;-0.450927734375;16.798172611344913;11.642015542234057;16.49685245363926;-0.95751953125;0.1455078125;0.1162109375;-6.375;-2.375;7.125;
1441975523318956;0.45489501953125;-0.479248046875;-0.600830078125;-0.449951171875;16.791716822076317;11.635205314603065;16.499934791870746;-0.9619140625;0.1435546875;0.115234375;-8.0625;-2.375;5.625;
1441975523342957;0.4554443359375;-0.478271484375;-0.60186767578125;-0.4490966796875;16.78803780484672;11.626129241159722;16.50072978090657;-0.9619140625;0.14306640625;0.1142578125;-9.5;-2.0625;4.375;
1441975523363958;0.45611572265625;-0.477294921875;-0.60272216796875;-0.4482421875;16.786732634334754;11.618294868778436;16.502603025068773;-0.96142578125;0.1416015625;0.115234375;-9.8125;-1.75;3.125;
1441975523378959;0.45684814453125;-0.476318359375;-0.603515625;-0.44744873046875;16.786523960854932;11.609864800023786;16.503693846949194;-0.95654296875;0.13623046875;0.11083984375;-9.8125;-1.3125;2.375;
1441975523409961;0.45745849609375;-0.47625732421875;-0.60394287109375;-0.44635009765625;16.786345373981657;11.626880782261203;16.527049003751316;-0.94482421875;0.1376953125;0.11865234375;-9.1875;-0.1875;1.8125;
1441975523425962;0.457763671875;-0.4769287109375;-0.60430908203125;-0.44482421875;16.782153247073122;11.665548747319338;16.570139043088478;-0.931640625;0.14501953125;0.125;-5.75;3.75;3.9375;
1441975523438963;0.4578857421875;-0.47784423828125;-0.6046142578125;-0.4432373046875;16.776142054880403;11.709654790856419;16.617452196034886;-0.9169921875;0.154296875;0.12939453125;-3.5;7.0;7.3125;
1441975523461964;0.45697021484375;-0.48040771484375;-0.6036376953125;-0.4427490234375;16.77068126883156;11.771837291566925;16.66819506717386;-0.91455078125;0.16845703125;0.1171875;-2.125;6.3125;7.8125;
1441975523483965;0.45556640625;-0.48406982421875;-0.6029052734375;-0.4412841796875;16.75442263461838;11.867692945199485;16.75158073486058;-0.92236328125;0.18994140625;0.0859375;11.9375;5.3125;6.875;
1441975523498966;0.4549560546875;-0.4866943359375;-0.603515625;-0.4381103515625;16.73093321688941;11.962687627449403;16.848261224831035;-0.91796875;0.287109375;0.06005859375;12.8125;7.0625;8.5;
1441975523521967;0.45556640625;-0.48736572265625;-0.6055908203125;-0.433837890625;16.70658598586475;12.029887577034449;16.933722657385896;-0.900390625;0.35009765625;0.06494140625;-1.125;8.8125;9.0625;
1441975523545969;0.45703125;-0.4873046875;-0.60809326171875;-0.428955078125;16.685025658608048;12.091151350087573;17.020816974027298;-0.89306640625;0.3291015625;0.0927734375;-17.6875;9.6875;9.375;
1441975523558970;0.4588623046875;-0.48736572265625;-0.610595703125;-0.42327880859375;16.662373498393542;12.165596634534895;17.12415397371451;-0.90234375;0.2939453125;0.09130859375;-24.5;11.5625;11.4375;
1441975523581971;0.4613037109375;-0.4869384765625;-0.6136474609375;-0.41668701171875;16.637516075317592;12.240364762689387;17.235256614652776;-0.91796875;0.31005859375;0.0751953125;-27.25;14.25;13.125;
1441975523603972;0.46368408203125;-0.486328125;-0.61712646484375;-0.4095458984375;16.606334582063724;12.311915361639512;17.346412720674703;-0.904296875;0.291015625;0.0537109375;-34.625;15.0;16.1875;
1441975523620973;0.466064453125;-0.48602294921875;-0.62060546875;-0.40185546875;16.570451235142983;12.39124944055068;17.466148730135004;-0.87646484375;0.26513671875;0.06298828125;-37.4375;15.9375;20.6875;
1441975523641974;0.4683837890625;-0.4857177734375;-0.6243896484375;-0.39361572265625;16.528080720859297;12.46897605541453;17.58668045390749;-0.8720703125;0.26611328125;0.0478515625;-37.8125;17.25;23.8125;
1441975523663976;0.47052001953125;-0.4853515625;-0.62847900390625;-0.38494873046875;16.479042505597477;12.540844851084621;17.703265070896872;-0.89013671875;0.28173828125;0.02978515625;-40.0;16.875;26.3125;
1441975523680977;0.47271728515625;-0.4847412109375;-0.6324462890625;-0.37628173828125;16.43067528891099;12.604959637539878;17.812776239232083;-0.89892578125;0.30859375;0.0185546875;-42.625;15.6875;28.125;
1441975523709978;0.47491455078125;-0.4840087890625;-0.63653564453125;-0.36749267578125;16.380213468873098;12.66225001700417;17.916614218196294;-0.89111328125;0.29345703125;0.00634765625;-42.9375;15.3125;28.25;
1441975523725979;0.4769287109375;-0.48345947265625;-0.640380859375;-0.35894775390625;16.32926277016761;12.715681986858916;0.014197115748863686;-0.86328125;0.30078125;0.01611328125;-44.125;15.8125;28.5625;
1441975523740980;0.47857666015625;-0.48345947265625;-0.6435546875;-0.3509521484375;16.279033751883023;12.770255556463221;0.10682358615704607;-0.83154296875;0.2783203125;0.02685546875;-41.125;16.5;29.5;
1441975523761981;0.47998046875;-0.48406982421875;-0.6458740234375;-0.34381103515625;16.232797748356145;12.827101952915221;0.1942651875936838;-0.8076171875;0.26953125;0.01611328125;-35.1875;16.5;29.3125;
1441975523783982;0.4808349609375;-0.48553466796875;-0.64727783203125;-0.337890625;16.189750584771232;12.885051492660091;0.272428630369666;-0.79638671875;0.2431640625;0.00341796875;-27.625;16.125;29.1875;
1441975523801984;0.4805908203125;-0.48876953125;-0.64764404296875;-0.332763671875;16.139801515813257;12.955100191910697;0.3490468592647249;-0.76171875;0.19189453125;0.00439453125;-17.125;15.125;29.6875;
1441975523821985;0.47979736328125;-0.4935302734375;-0.6470947265625;-0.3280029296875;16.0842064927795;13.039415070296464;0.4301143274412523;-0.71923828125;0.20361328125;0.00341796875;-3.75;15.6875;31.375;
1441975523843986;0.47906494140625;-0.49847412109375;-0.6458740234375;-0.323974609375;16.03441534695168;13.123075645544507;0.5060024454958332;-0.68212890625;0.24755859375;-0.00390625;6.5625;18.4375;31.0625;
1441975523860987;0.47821044921875;-0.50225830078125;-0.64483642578125;-0.3214111328125;15.997347516599397;13.180043745194522;0.554322496751046;-0.669921875;0.2294921875;-0.0458984375;10.625;16.0625;28.8125;
1441975523881988;0.4764404296875;-0.5072021484375;-0.64306640625;-0.31988525390625;15.957915434395876;13.240122878603968;0.5944380621133567;-0.62548828125;0.1357421875;-0.01171875;10.875;11.5625;26.1875;
1441975523903989;0.4742431640625;-0.51373291015625;-0.639892578125;-0.3189697265625;15.916839997847763;13.319631340160873;0.6421954726478281;-0.6025390625;0.12646484375;0.01708984375;22.3125;11.6875;27.4375;
1441975523926991;0.47174072265625;-0.52099609375;-0.63592529296875;-0.3187255859375;15.876893116103073;13.40496285428748;0.6883860146375921;-0.59423828125;0.13916015625;0.00927734375;34.9375;14.6875;27.4375;
1441975523941992;0.46881103515625;-0.52789306640625;-0.6326904296875;-0.31829833984375;15.831328186381288;13.475533389611595;0.7223275978854106;-0.56689453125;0.11865234375;-0.017578125;41.625;13.875;27.0625;
1441975523963993;0.46575927734375;-0.53460693359375;-0.6297607421875;-0.3173828125;15.780781962447053;13.540999425377565;0.7537662632554204;-0.49951171875;0.1259765625;-0.00146484375;38.9375;12.0;27.8125;
1441975523980994;0.4630126953125;-0.54107666015625;-0.62677001953125;-0.31646728515625;15.733070187624753;13.605205728132162;0.7853047217338148;-0.4384765625;0.12548828125;0.001953125;36.4375;11.875;28.375;
1441975524001995;0.460205078125;-0.5474853515625;-0.6231689453125;-0.316650390625;15.695077916110623;13.667794235682297;0.8100896104421133;-0.4462890625;0.14306640625;-0.001953125;35.0625;12.75;26.375;
1441975524023996;0.4564208984375;-0.55462646484375;-0.61932373046875;-0.31719970703125;15.65057608905712;13.728397631381801;0.8261294250739076;-0.49853515625;0.14794921875;0.00537109375;40.0625;11.5625;22.625;
1441975524046998;0.453125;-0.56097412109375;-0.6162109375;-0.3167724609375;15.60323537783461;13.78219911125732;0.8441700470282669;-0.509765625;0.21484375;0.0126953125;46.5625;10.0;22.0625;
1441975524061998;0.45050048828125;-0.56640625;-0.6134033203125;-0.31622314453125;15.562634692887361;13.83050180236932;0.8625445553756009;-0.49755859375;0.23828125;0.0224609375;38.625;12.0625;21.9375;
1441975524084000;0.44879150390625;-0.570556640625;-0.610595703125;-0.316650390625;15.5416360698046;13.871875580895544;0.8773527705320129;-0.53173828125;0.23681640625;-0.0078125;32.0625;10.8125;19.375;
1441975524107001;0.44720458984375;-0.5753173828125;-0.60626220703125;-0.31854248046875;15.533562209301886;13.926925272704048;0.8954860133713162;-0.634765625;0.259765625;0.02001953125;29.375;11.0;11.4375;
1441975524122002;0.44610595703125;-0.5806884765625;-0.60003662109375;-0.3221435546875;15.543119140287477;14.001305589033665;0.9218517871862186;-0.7666015625;0.29931640625;0.0078125;40.1875;11.9375;5.875;
1441975524144003;0.44427490234375;-0.5859375;-0.59381103515625;-0.3267822265625;15.557267458307352;14.066873888849681;0.934572793790044;-0.89306640625;0.26171875;-0.0341796875;50.8125;12.1875;2.5625;
1441975524167004;0.44189453125;-0.591796875;-0.58697509765625;-0.33172607421875;15.568862656470037;14.137823489145564;0.9466790275711434;-0.9736328125;0.26806640625;-0.03515625;54.5625;7.1875;2.5625;
1441975524182005;0.439697265625;-0.5966796875;-0.58154296875;-0.33544921875;15.573373258366551;14.194323549478797;0.9555217765608603;-0.98193359375;0.25634765625;-0.05615234375;59.75;6.3125;4.5625;
1441975524204006;0.437255859375;-0.600830078125;-0.57696533203125;-0.33917236328125;15.578695188625264;14.236274792017289;0.9537718225845591;-1.03076171875;0.32861328125;-0.05810546875;49.3125;6.4375;5.0625;
1441975524227008;0.43389892578125;-0.60467529296875;-0.57281494140625;-0.343505859375;15.585232119649913;14.2638236837587;0.9353252650825454;-1.07275390625;0.3525390625;-0.05615234375;44.5;2.5625;4.6875;
1441975524242009;0.4312744140625;-0.6083984375;-0.56768798828125;-0.3487548828125;15.606135826511274;14.302934114384382;0.9253767308234495;-1.1171875;0.41943359375;-0.07421875;45.3125;-4.3125;3.0;
1441975524264010;0.42877197265625;-0.61199951171875;-0.5623779296875;-0.3541259765625;15.629905982040587;14.343926324791594;0.9171768852511267;-1.18701171875;0.36376953125;-0.08740234375;48.625;-3.0;0.1875;
1441975524287011;0.42596435546875;-0.61663818359375;-0.55670166015625;-0.35845947265625;15.638526428758174;14.396081412869723;0.9182308120088449;-1.2412109375;0.39599609375;-0.05126953125;50.5;0.1875;-2.125;
1441975524302012;0.4239501953125;-0.61956787109375;-0.55279541015625;-0.36181640625;15.648716566647368;14.428805275830644;0.9152323343136142;-1.212890625;0.43701171875;-0.10791015625;52.125;2.6875;0.125;
1441975524332014;0.42266845703125;-0.621337890625;-0.549560546875;-0.3651123046875;15.667150634963377;14.453486645252013;0.9118871873115598;-1.158203125;0.4052734375;-0.1240234375;35.75;-0.25;0.0625;
1441975524347015;0.42193603515625;-0.6234130859375;-0.54559326171875;-0.368408203125;15.68803754075891;14.49202971117554;0.920998149379497;-1.15625;0.34765625;-0.11279296875;27.8125;-1.25;-0.375;
1441975524365016;0.4202880859375;-0.62652587890625;-0.54150390625;-0.3709716796875;15.692617458177413;14.533392941643715;0.928990208833763;-1.1865234375;0.28662109375;-0.15576171875;28.9375;1.125;1.25;
1441975524384017;0.41876220703125;-0.6295166015625;-0.53790283203125;-0.3729248046875;15.692189933635701;14.571607789318909;0.9377551605226453;-1.24267578125;0.37890625;-0.16796875;33.3125;3.125;4.625;
1441975524407018;0.41796875;-0.63177490234375;-0.53497314453125;-0.374267578125;15.692735966125912;14.605846040077534;0.9505770807181635;-1.26220703125;0.43212890625;-0.18115234375;29.75;4.375;3.25;
1441975524422019;0.4178466796875;-0.63372802734375;-0.53228759765625;-0.3748779296875;15.69122791568419;14.642951825368566;0.971965096265782;-1.20703125;0.4208984375;-0.185546875;22.3125;4.9375;1.5;
1441975524444020;0.4193115234375;-0.635009765625;-0.530029296875;-0.37420654296875;15.68859047758301;14.687428365449106;1.0123226933612581;-1.14453125;0.3603515625;-0.224609375;15.3125;5.6875;2.9375;
1441975524467022;0.41986083984375;-0.637939453125;-0.52685546875;-0.37310791015625;15.669608412945339;14.74414117102709;1.0559380580484634;-1.11767578125;0.2890625;-0.21533203125;5.25;13.4375;4.75;
1441975524482022;0.41961669921875;-0.64111328125;-0.52325439453125;-0.37298583984375;15.654434120118507;14.797588273247088;1.0891403049690707;-1.18359375;0.3720703125;-0.240234375;14.875;17.9375;7.25;
1441975524504024;0.419189453125;-0.64385986328125;-0.52056884765625;-0.37261962890625;15.637105996506337;14.837603291555919;1.1130115359576291;-1.1923828125;0.38037109375;-0.24609375;21.3125;13.6875;6.6875;
1441975524527025;0.4180908203125;-0.64776611328125;-0.51715087890625;-0.37176513671875;15.606627334020335;14.886269307623763;1.139363614902745;-1.19580078125;0.38916015625;-0.23681640625;17.125;12.375;8.75;
1441975524543026;0.418212890625;-0.65032958984375;-0.5146484375;-0.37060546875;15.58473093587105;14.927964664540777;1.1698600247916269;-1.18701171875;0.37353515625;-0.28955078125;22.125;13.5;14.5;
1441975524564027;0.4171142578125;-0.6541748046875;-0.51116943359375;-0.36993408203125;15.555618730282553;14.975025436229204;1.1940380452216848;-1.12451171875;0.29150390625;-0.28662109375;10.75;13.1875;13.4375;
1441975524595029;0.4163818359375;-0.65802001953125;-0.5076904296875;-0.36865234375;15.52209479468477;15.024893722692914;1.2238219724960668;-1.0546875;0.318359375;-0.30224609375;21.9375;11.375;14.375;
1441975524603029;0.41387939453125;-0.66253662109375;-0.50506591796875;-0.3670654296875;15.474117035245985;15.054967237269056;1.229937339846512;-1.0888671875;0.35400390625;-0.2734375;21.0;17.875;13.125;
1441975524624031;0.412353515625;-0.6661376953125;-0.50408935546875;-0.363525390625;15.415984078319994;15.073254911769752;1.2402958320165052;-1.0556640625;0.44970703125;-0.26953125;24.5625;13.8125;17.75;
1441975524647032;0.41229248046875;-0.66912841796875;-0.50323486328125;-0.3592529296875;15.35996917928756;15.098332915343116;1.2660740806071293;-1.0380859375;0.4755859375;-0.251953125;9.8125;19.375;19.5625;
1441975524663033;0.41326904296875;-0.670654296875;-0.5032958984375;-0.355224609375;15.317712138850142;15.11458607718634;1.2924851632638248;-1.12646484375;0.4365234375;-0.32421875;0.75;22.5625;20.4375;
1441975524684034;0.41485595703125;-0.67352294921875;-0.5;-0.35260009765625;15.284388624951324;15.171104071989982;1.343013707090642;-1.138671875;0.38916015625;-0.2548828125;-7.6875;24.8125;17.4375;
1441975524707035;0.41229248046875;-0.68255615234375;-0.49151611328125;-0.35009765625;15.20305538372263;15.270162182190347;1.3894978408967007;-1.07421875;0.22265625;-0.267578125;8.3125;30.5;16.4375;
1441975524731037;0.4085693359375;-0.69183349609375;-0.4849853515625;-0.34539794921875;15.094479634766516;15.340837304844744;1.4152631169273082;-1.10595703125;0.3486328125;-0.43310546875;53.0625;34.8125;29.4375;
1441975524744037;0.40521240234375;-0.6978759765625;-0.48370361328125;-0.33892822265625;14.988327862282423;15.35283775861862;1.4136893466324445;-1.2158203125;0.5302734375;-0.5419921875;43.875;33.125;37.1875;
1441975524767039;0.4058837890625;-0.7021484375;-0.4871826171875;-0.32391357421875;14.824780111664989;15.341675839249847;1.4452498689613944;-1.19091796875;0.67236328125;-0.42041015625;15.9375;31.0625;35.5;
1441975524783040;0.4161376953125;-0.7066650390625;-0.47900390625;-0.31317138671875;14.726930533850236;15.482424041237499;1.6098654508559207;-0.95068359375;0.83642578125;-0.21875;-26.5625;70.4375;33.3125;
1441975524804041;0.42425537109375;-0.69219970703125;-0.496826171875;-0.30670166015625;14.779322526255477;15.332986930812266;1.6008854754136645;-1.2900390625;0.45654296875;-1.0625;-18.8125;67.0;-4.625;
1441975524828042;0.42584228515625;-0.6849365234375;-0.520751953125;-0.27996826171875;14.579184497043935;15.11794286046483;1.5630600194931616;-2.20458984375;0.88818359375;0.67236328125;-141.8125;-20.0625;-18.0;
1441975524843043;0.4088134765625;-0.70684814453125;-0.50689697265625;-0.27642822265625;14.36239398279976;15.210022585066863;1.5062502595112315;-1.1904296875;0.79736328125;-0.154296875;-180.6875;43.8125;92.625;
1441975524866044;0.400146484375;-0.7061767578125;-0.515869140625;-0.274169921875;14.312981096082112;15.097351706288089;1.4030594560760734;-0.80810546875;0.77197265625;-0.5517578125;138.0625;28.9375;104.625;
1441975524887046;0.38677978515625;-0.7091064453125;-0.52484130859375;-0.2685546875;14.189260885304645;14.98009246355716;1.2798960346223074;-0.57666015625;1.1875;0.29296875;7.3125;-8.5;8.0;
1441975524903046;0.37945556640625;-0.71368408203125;-0.525634765625;-0.26531982421875;14.1041824235754;14.959458582733477;1.2348007485032073;-0.55859375;0.9638671875;-0.1904296875;-5.75;-31.4375;59.25;
1441975524924048;0.37628173828125;-0.71087646484375;-0.53118896484375;-0.26629638671875;14.111013814370754;14.895397774806018;1.18359010798957;-0.97705078125;0.78271484375;-0.7080078125;4.0;-21.6875;45.75;
1441975524947049;0.36688232421875;-0.70562744140625;-0.54498291015625;-0.26568603515625;14.078292539240778;14.738431760422559;1.0576203173502428;-1.560546875;0.78369140625;-0.515625;-28.4375;-25.4375;30.6875;
1441975524965050;0.35382080078125;-0.70037841796875;-0.560791015625;-0.26422119140625;14.007940322435717;14.556896650200438;0.9045234639909212;-1.3701171875;0.7197265625;-0.19775390625;-53.875;-48.9375;65.8125;
1441975524992052;0.34051513671875;-0.69573974609375;-0.57672119140625;-0.25970458984375;13.894629834610493;14.386191952814281;0.7693084956104277;-1.0126953125;0.59619140625;-0.05859375;-56.375;-62.625;80.9375;
1441975525007052;0.3271484375;-0.68878173828125;-0.594482421875;-0.25537109375;13.779158541556365;14.201234904428661;0.6320762278148564;-0.916015625;0.5126953125;-0.05224609375;-63.1875;-53.5625;95.6875;
1441975525023053;0.31304931640625;-0.6837158203125;-0.60821533203125;-0.2542724609375;13.675814294881027;14.05068702744862;0.4991519338192282;-0.94091796875;0.56103515625;0.1025390625;-71.75;-55.1875;94.3125;
1441975525044055;0.2955322265625;-0.68695068359375;-0.61334228515625;-0.25439453125;13.539248654300351;13.984987085051646;0.384445335495306;-0.79296875;0.498046875;0.16357421875;-41.0;-61.0625;82.0;
1441975525067056;0.276123046875;-0.6995849609375;-0.60821533203125;-0.2540283203125;13.372761967948676;14.022990362592449;0.30713694074840076;-0.67919921875;0.720703125;0.10009765625;27.625;-55.1875;78.3125;
1441975525083057;0.25982666015625;-0.70794677734375;-0.60589599609375;-0.25347900390625;13.23544160230264;14.03548389554534;0.23565172409483137;-0.65478515625;0.87939453125;-0.2890625;86.0625;-47.75;81.125;
1441975525104058;0.24908447265625;-0.70843505859375;-0.61053466796875;-0.2518310546875;13.13684469748013;13.990006748328616;0.1734605076310498;-0.58154296875;0.80859375;-0.38232421875;49.625;-51.25;68.5;
1441975525127059;0.238525390625;-0.70587158203125;-0.61859130859375;-0.24951171875;13.03388571222188;13.915754103504318;0.10542280688647072;-0.65234375;0.7197265625;-0.28466796875;-12.3125;-44.375;57.0625;
1441975525151061;0.22491455078125;-0.70361328125;-0.62677001953125;-0.2481689453125;12.913240490286615;13.83768326692448;0.02000096155410528;-0.74853515625;0.6689453125;-0.21337890625;-35.8125;-46.8125;68.25;
1441975525164061;0.20751953125;-0.7103271484375;-0.62548828125;-0.24737548828125;12.766191174777576;13.84532530911365;17.94699329921102;-0.6513671875;0.67236328125;-0.05615234375;-22.1875;-55.375;73.5625;
1441975525187063;0.1907958984375;-0.7177734375;-0.6221923828125;-0.2476806640625;12.636582577551;13.8678944277348;17.877895947365687;-0.55078125;0.7734375;-0.2470703125;44.6875;-55.25;76.875;
1441975525203064;0.176513671875;-0.72113037109375;-0.62255859375;-0.24774169921875;12.524029368557846;13.859476472473816;17.810869688531298;-0.53857421875;0.81201171875;-0.2626953125;55.125;-53.75;67.3125;
1441975525224065;0.16510009765625;-0.72064208984375;-0.62615966796875;-0.24786376953125;12.432915594197603;13.823524171812076;17.748372640349196;-0.458984375;0.84326171875;-0.2060546875;25.25;-51.75;54.625;
1441975525247066;0.15545654296875;-0.71832275390625;-0.63031005859375;-0.25030517578125;12.374634154416064;13.776754183421396;17.681706362464304;-0.35009765625;0.7509765625;-0.154296875;-4.1875;-49.6875;41.875;
1441975525263067;0.14678955078125;-0.71685791015625;-0.63153076171875;-0.25665283203125;12.35935099619902;13.743516589453305;17.607744687603535;-0.31591796875;0.55224609375;-0.095703125;-11.875;-53.75;31.375;
1441975525284068;0.13970947265625;-0.7166748046875;-0.62921142578125;-0.2664794921875;12.389954295948272;13.728797660533269;17.531679187186825;-0.31494140625;0.4599609375;-0.04833984375;7.25;-61.0;13.4375;
1441975525307070;0.1363525390625;-0.71429443359375;-0.626708984375;-0.28009033203125;12.4821897029862;13.701144668680659;17.451301539479626;-0.310546875;0.453125;-0.06005859375;26.375;-65.375;-9.8125;
1441975525323071;0.13812255859375;-0.7100830078125;-0.623779296875;-0.29608154296875;12.635346765261533;13.665596278930124;17.37902008670752;-0.34326171875;0.4833984375;-0.017578125;18.5;-69.0625;-40.4375;
1441975525344072;0.14544677734375;-0.70550537109375;-0.61920166015625;-0.31280517578125;12.841842726277124;13.637641311012727;17.327926461325383;-0.38037109375;0.39794921875;0.00341796875;8.0;-62.125;-68.0;
1441975525367073;0.1563720703125;-0.7020263671875;-0.61199951171875;-0.32904052734375;13.079248894507971;13.630511874560613;17.29993314240334;-0.42724609375;0.3193359375;0.0205078125;4.875;-44.125;-91.5625;
1441975525383074;0.16998291015625;-0.6986083984375;-0.60198974609375;-0.3475341796875;13.364230267853863;13.6337437556753;17.276190639536214;-0.52880859375;0.23681640625;-0.005859375;10.75;-27.0;-113.4375;
1441975525404075;0.1844482421875;-0.6943359375;-0.58990478515625;-0.3687744140625;13.68564974951867;13.634686359794712;17.24158754979566;-0.5810546875;0.1552734375;-0.033203125;19.0625;-24.0;-135.9375;
1441975525427076;0.20037841796875;-0.688720703125;-0.5765380859375;-0.3914794921875;14.03703930413116;13.629540526758614;17.20203704293728;-0.5615234375;0.1064453125;-0.00146484375;25.3125;-31.6875;-154.1875;
1441975525443077;0.2196044921875;-0.68084716796875;-0.56219482421875;-0.4150390625;14.429146693704766;13.615161193613146;17.16554673143596;-0.52685546875;0.197265625;0.0322265625;25.0625;-33.5;-171.3125;
1441975525466079;0.24224853515625;-0.6702880859375;-0.54632568359375;-0.4400634765625;14.870983382466449;13.587392052145521;17.125637735076303;-0.55078125;0.2587890625;0.02490234375;14.6875;-30.4375;-193.25;
1441975525487080;0.266845703125;-0.657470703125;-0.528564453125;-0.466064453125;15.349229980720452;13.544145902079823;17.073816142718073;-0.6591796875;0.2177734375;0.0078125;5.5625;-29.25;-217.4375;
1441975525503081;0.29119873046875;-0.64288330078125;-0.510498046875;-0.49139404296875;15.82749815747757;13.469195966562832;16.994427749108347;-0.814453125;0.1123046875;-0.03515625;1.875;-31.3125;-234.0625;
1441975525526082;0.31494140625;-0.62677001953125;-0.492919921875;-0.51483154296875;16.29005134027395;13.344110828972038;16.872647559636434;-0.88427734375;0.0615234375;-0.04736328125;-2.6875;-33.75;-234.4375;
1441975525547083;0.339599609375;-0.6087646484375;-0.47528076171875;-0.536865234375;16.75333977201512;13.124786435345067;16.66719020746579;-0.82861328125;0.0625;-0.0751953125;-10.75;-34.3125;-229.5625;
1441975525565084;0.3642578125;-0.58990478515625;-0.45623779296875;-0.55792236328125;17.210346446568305;12.68074872989419;16.236562200303187;-0.857421875;-0.05078125;-0.11865234375;-21.1875;-33.1875;-231.4375;
1441975525586086;0.386962890625;-0.5716552734375;-0.43487548828125;-0.57830810546875;17.607987436274787;11.327138399618445;14.88234423923167;-1.0185546875;-0.15283203125;-0.10986328125;-19.875;-29.75;-233.9375;
1441975525616087;0.407958984375;-0.5531005859375;-0.4119873046875;-0.5982666015625;17.632512316392216;7.482005239251712;11.027662607225784;-1.16455078125;-0.0869140625;-0.080078125;-5.5;-25.8125;-234.1875;
1441975525623088;0.42779541015625;-0.53277587890625;-0.388916015625;-0.6180419921875;17.24014462656425;6.006278681537098;9.542531389373256;-1.22802734375;-0.05224609375;-0.11474609375;3.3125;-26.9375;-235.6875;
1441975525645089;0.4434814453125;-0.51263427734375;-0.36566162109375;-0.637939453125;16.802710247371362;5.652054680041193;9.163741994448342;-1.31591796875;-0.19921875;-0.119140625;3.4375;-35.3125;-235.25;
1441975525675091;0.45458984375;-0.49517822265625;-0.3399658203125;-0.65777587890625;16.382745523902102;5.512265387273826;8.969523355586002;-1.29296875;-0.2255859375;-0.033203125;19.75;-42.5;-224.8125;
1441975525683091;0.46527099609375;-0.47808837890625;-0.31396484375;-0.67559814453125;15.97348167421729;5.425453379007079;8.829085199412832;-1.1943359375;-0.0771484375;-0.0302734375;49.0;-36.0625;-216.75;
1441975525706092;0.4749755859375;-0.45947265625;-0.28857421875;-0.69287109375;15.561409563546832;5.39295199201752;8.745821107533555;-1.220703125;-0.0791015625;-0.12548828125;47.25;-31.0;-213.375;
1441975525727094;0.48089599609375;-0.44140625;-0.26226806640625;-0.71075439453125;15.160140536662853;5.405563942724753;8.687837356231997;-1.30712890625;-0.15478515625;-0.07861328125;45.375;-38.1875;-212.125;
1441975525743095;0.4837646484375;-0.42449951171875;-0.235595703125;-0.728271484375;14.779558597569093;5.439366965684227;8.635895079083452;-1.25390625;-0.1015625;-0.017578125;65.0;-40.875;-207.125;
1441975525766096;0.48779296875;-0.40679931640625;-0.211181640625;-0.74298095703125;14.414254280087091;5.462804073951875;8.59243021467477;-1.119140625;0.02490234375;-0.05419921875;78.875;-39.375;-199.5;
1441975525787097;0.49200439453125;-0.3885498046875;-0.18853759765625;-0.75592041015625;14.061927418642302;5.4852183005848385;8.558937904983466;-0.99169921875;0.03955078125;-0.10595703125;60.1875;-41.125;-190.625;
1441975525803098;0.49334716796875;-0.37115478515625;-0.16632080078125;-0.7689208984375;13.7294452894268;5.525998937626253;8.531442327093002;-0.92138671875;-0.015625;-0.0361328125;49.3125;-43.6875;-182.375;
1441975525825099;0.4923095703125;-0.35491943359375;-0.14508056640625;-0.78143310546875;13.422876522096805;5.578108655154356;8.50695369077459;-0.830078125;-0.00244140625;-0.001953125;61.5625;-43.375;-171.625;
1441975525847100;0.49249267578125;-0.33892822265625;-0.1275634765625;-0.7913818359375;13.146063483941383;5.61819750579819;8.492990293891514;-0.75439453125;0.06201171875;-0.052734375;69.9375;-43.125;-158.75;
1441975525863101;0.48846435546875;-0.32525634765625;-0.11138916015625;-0.802001953125;12.908918614834281;5.681963058687938;8.4838633164757;-0.703125;0.00830078125;-0.0732421875;50.25;-46.5;-140.5;
1441975525885103;0.4783935546875;-0.31585693359375;-0.096435546875;-0.813720703125;12.732001206539177;5.776689076166413;8.473791187331418;-0.69091796875;-0.05859375;-0.0048828125;70.0625;-43.75;-120.0625;
1441975525907104;0.46795654296875;-0.31488037109375;-0.08953857421875;-0.8209228515625;12.692338653697188;5.853367766208348;8.467722581122258;-0.595703125;0.1611328125;-0.04833984375;100.75;-33.25;-92.6875;
1441975525923105;0.464111328125;-0.314697265625;-0.08795166015625;-0.82330322265625;12.685721041575519;5.881748025598459;8.469627618333629;-0.60009765625;0.3701171875;-0.1708984375;79.125;-26.0;-65.0;
1441975525946106;0.4603271484375;-0.316162109375;-0.08905029296875;-0.82476806640625;12.711998261350516;5.907967347827318;8.479128607236968;-0.55859375;0.3427734375;-0.1630859375;26.5;-23.6875;-43.9375;
1441975525968107;0.4549560546875;-0.3226318359375;-0.09368896484375;-0.82476806640625;12.812521558072328;5.935552358325305;8.49109590693236;-0.513671875;0.294921875;-0.1259765625;18.875;-19.0;-21.9375;
1441975525983108;0.4503173828125;-0.33380126953125;-0.1038818359375;-0.82159423828125;12.994460792733372;5.949599065515236;8.512125074425676;-0.52783203125;0.369140625;-0.2138671875;21.0625;-7.25;7.9375;
1441975526005110;0.44488525390625;-0.34844970703125;-0.11834716796875;-0.8165283203125;13.239953100229847;5.964872413225531;8.545111758145795;-0.6630859375;0.3671875;-0.26806640625;3.875;0.75;40.4375;
1441975526027111;0.44122314453125;-0.36151123046875;-0.13348388671875;-0.81048583984375;13.472784974395314;5.972523541950871;8.584697803554073;-0.70703125;0.3828125;-0.25244140625;-4.625;8.75;70.1875;
1441975526043112;0.43927001953125;-0.37689208984375;-0.152587890625;-0.80108642578125;13.75511313134954;5.963576592231889;8.631233119910672;-0.7041015625;0.5654296875;-0.27685546875;-19.75;24.4375;101.0625;
1441975526065113;0.43133544921875;-0.39825439453125;-0.173583984375;-0.790771484375;14.121649056875274;5.9871880476360415;8.683669315312384;-0.76171875;0.40185546875;-0.30224609375;-41.8125;32.6875;126.125;
1441975526088114;0.42132568359375;-0.42279052734375;-0.196044921875;-0.77801513671875;14.539285283897419;6.0204184217405965;8.741325439417794;-1.07861328125;0.39306640625;-0.23486328125;-16.0;51.75;161.0;
1441975526103115;0.417724609375;-0.4464111328125;-0.22760009765625;-0.7579345703125;15.009021378996703;6.021015042988206;8.839389730582326;-1.42431640625;0.89404296875;-0.30615234375;-12.9375;74.8125;198.1875;
1441975526126116;0.407958984375;-0.4764404296875;-0.2652587890625;-0.7322998046875;15.608912379009752;6.086717285866845;8.998315141636626;-1.64599609375;0.69384765625;-0.32568359375;-82.375;73.75;229.1875;
1441975526150118;0.3919677734375;-0.5115966796875;-0.30694580078125;-0.7003173828125;16.316782702207796;6.2887728917828065;9.285987479911713;-1.80322265625;0.4228515625;-0.1328125;-77.0;84.25;276.5625;
1441975526163119;0.376953125;-0.54534912109375;-0.3592529296875;-0.65692138671875;17.083714423950266;6.975223001024767;10.12333005007897;-2.134765625;0.46826171875;-0.0439453125;-69.1875;105.875;333.75;
1441975526186120;0.3494873046875;-0.57861328125;-0.41314697265625;-0.61029052734375;17.423622447605258;10.54331859500803;13.81117354431934;-2.82080078125;-0.19482421875;0.11962890625;-131.6875;119.3125;407.125;
1441975526209121;0.30426025390625;-0.61602783203125;-0.45916748046875;-0.56317138671875;16.670815133580138;12.796041609500124;16.087992062949372;-3.16650390625;-0.76904296875;0.40234375;-97.8125;97.9375;458.0625;
1441975526225122;0.244384765625;-0.65789794921875;-0.4927978515625;-0.51446533203125;15.659564474798579;13.39201224937265;16.608182444480946;-2.92041015625;-0.6650390625;0.2890625;-0.125;88.25;499.4375;
1441975526246123;0.2037353515625;-0.6839599609375;-0.5328369140625;-0.454833984375;14.70567153491939;13.597573808151465;16.887053890884395;-2.68115234375;0.46630859375;-0.0498046875;100.25;91.375;523.0;
1441975526275125;0.172607421875;-0.6962890625;-0.56756591796875;-0.40411376953125;13.934564933588616;13.628316631631176;17.020946304435377;-2.595703125;0.875;0.06494140625;-41.3125;131.125;478.0625;
1441975526283125;0.15093994140625;-0.70794677734375;-0.5791015625;-0.37518310546875;13.490821778743047;13.693682541134276;17.091723065164786;-2.80126953125;0.68115234375;0.07275390625;-76.875;95.625;382.3125;
1441975526306127;0.14190673828125;-0.7088623046875;-0.59716796875;-0.34765625;13.147555162322194;13.6727189072656;17.170143369963604;-3.21533203125;0.2021484375;0.22314453125;13.375;60.375;219.125;
1441975526327128;0.14788818359375;-0.6805419921875;-0.6407470703125;-0.32330322265625;12.90135351510374;13.38910143143401;17.20447021212212;-3.14208984375;-0.57421875;-0.39453125;-74.4375;68.0625;167.5625;
1441975526349129;0.15142822265625;-0.6522216796875;-0.6844482421875;-0.28857421875;12.570968934669185;13.134148901148494;17.29618747293458;-2.3955078125;-2.50244140625;-0.15771484375;-306.1875;27.6875;122.875;
1441975526365130;0.155517578125;-0.63568115234375;-0.71331787109375;-0.25103759765625;12.274918904105052;13.008635004780107;17.450271542155168;-1.57958984375;-1.96337890625;0.27294921875;-311.1875;58.9375;170.75;
