1441976012817954;0.151123046875;-0.6702880859375;-0.716796875;-0.11932373046875;11.212022387462689;13.327021352426433;0.09750729344152312;-0.4072265625;1.07080078125;0.0263671875;5.25;-19.1875;-16.125;
1441976012838955;0.14996337890625;-0.67047119140625;-0.7164306640625;-0.12164306640625;11.22073056635976;13.326475260487378;0.08291509761937656;-0.3515625;1.06396484375;0.06494140625;6.375;-12.0;-10.8125;
1441976012854956;0.14862060546875;-0.67095947265625;-0.71588134765625;-0.1236572265625;11.225366093099288;13.328106557953333;0.0693047684803786;-0.38134765625;1.01513671875;0.07373046875;5.75;-12.8125;-7.3125;
1441976012877957;0.147705078125;-0.67071533203125;-0.71600341796875;-0.12542724609375;11.231761166611339;13.324262938661132;0.05736251804321781;-0.390625;1.01171875;0.0546875;6.5;-12.4375;-5.0;
1441976012898958;0.1470947265625;-0.67010498046875;-0.7164306640625;-0.12713623046875;11.24025868122142;13.317824658307465;0.04638110288829503;-0.40234375;1.0068359375;0.0625;0.6875;-10.8125;-4.3125;
1441976012914959;0.1468505859375;-0.66839599609375;-0.7176513671875;-0.12933349609375;11.255937177617453;13.303081378076747;0.0331169946781827;-0.4130859375;1.015625;0.04931640625;-3.5;-10.5625;-5.5;
1441976012938961;0.146728515625;-0.6668701171875;-0.71868896484375;-0.1318359375;11.274840324882534;13.289691736888072;0.019256279474034188;-0.41650390625;0.96044921875;0.08056640625;-8.625;-11.25;-7.5625;
1441976012958962;0.1468505859375;-0.6651611328125;-0.7196044921875;-0.1348876953125;11.300311445076675;13.275629259982727;0.003818702799925404;-0.42529296875;0.96435546875;0.06640625;-8.375;-12.3125;-9.0625;
1441976012974963;0.14654541015625;-0.664794921875;-0.71942138671875;-0.13836669921875;11.325171562537147;13.271284915101514;17.986773108262845;-0.43310546875;0.90576171875;0.076171875;-7.875;-13.375;-10.875;
1441976012996964;0.145751953125;-0.66534423828125;-0.71826171875;-0.1422119140625;11.349041435804693;13.274257586246133;17.967701398738935;-0.421875;0.90283203125;0.0771484375;2.6875;-14.625;-11.5;
1441976013018965;0.1446533203125;-0.66619873046875;-0.71685791015625;-0.1463623046875;11.372726012405412;13.278982825213632;17.94646906539833;-0.43212890625;0.93359375;0.07666015625;10.625;-16.4375;-11.8125;
1441976013034966;0.14385986328125;-0.666748046875;-0.715576171875;-0.1510009765625;11.40293282285017;13.28149522719522;17.923876542946747;-0.419921875;0.9326171875;0.08154296875;13.9375;-18.5;-12.625;
1441976013047967;0.14385986328125;-0.66754150390625;-0.7137451171875;-0.156005859375;11.443164681519491;13.287547583343466;17.903604337392522;-0.45263671875;0.84375;0.080078125;12.625;-19.3125;-11.9375;
1441976013070968;0.14453125;-0.669921875;-0.71014404296875;-0.16156005859375;11.494214862045451;13.308026331242717;17.886832612378658;-0.49560546875;0.70654296875;0.08837890625;16.4375;-16.9375;-10.5;
1441976013093969;0.14581298828125;-0.67401123046875;-0.70465087890625;-0.16717529296875;11.55206474776362;13.34460606396166;17.87602788231982;-0.51171875;0.6044921875;0.09619140625;31.0625;-12.6875;-12.0625;
1441976013107970;0.148681640625;-0.67633056640625;-0.70037841796875;-0.1732177734375;11.626628786125023;13.368966000917638;17.86731897891448;-0.55029296875;0.7333984375;0.0302734375;40.5625;-9.0625;-16.6875;
1441976013130972;0.15338134765625;-0.67657470703125;-0.69732666015625;-0.180419921875;11.725847502136334;13.379007363921636;17.857914978093806;-0.5458984375;0.69580078125;0.00537109375;26.3125;-7.5;-25.0625;
1441976013153973;0.16033935546875;-0.67584228515625;-0.69427490234375;-0.18865966796875;11.852932966834508;13.385401259830012;17.852447294299893;-0.56689453125;0.56689453125;-0.0068359375;12.4375;-8.0;-32.8125;
1441976013168974;0.1700439453125;-0.67486572265625;-0.69049072265625;-0.1973876953125;12.007934248761924;13.396097879560884;17.85734965146931;-0.59033203125;0.4833984375;-0.033203125;5.6875;-4.75;-43.875;
1441976013190975;0.18231201171875;-0.67376708984375;-0.68572998046875;-0.20648193359375;12.188683905762101;13.413414587060593;17.87340980529462;-0.609375;0.43359375;-0.04248046875;4.8125;4.4375;-55.5625;
1441976013213976;0.1964111328125;-0.67303466796875;-0.67974853515625;-0.21551513671875;12.38545450835938;13.441521142637216;17.901294074785007;-0.6298828125;0.40478515625;-0.0654296875;4.375;13.25;-67.5;
1441976013227977;0.21112060546875;-0.66900634765625;-0.67608642578125;-0.2255859375;12.596111134196107;13.4439387019032;17.920190715671495;-0.66748046875;0.568359375;-0.12353515625;4.9375;20.1875;-81.125;
1441976013250978;0.22784423828125;-0.66143798828125;-0.67413330078125;-0.23699951171875;12.836671093005403;13.422491423001473;17.93375710518074;-0.72021484375;0.57275390625;-0.17236328125;-11.0;15.75;-100.875;
1441976013273980;0.24542236328125;-0.6531982421875;-0.671142578125;-0.25048828125;13.104209731510306;13.400180582488879;17.940717107200186;-0.77685546875;0.490234375;-0.15869140625;-31.9375;11.5625;-114.5;
1441976013287981;0.2635498046875;-0.64605712890625;-0.665283203125;-0.26580810546875;13.395178368679801;13.394904672055842;17.94771910128699;-0.74365234375;0.43603515625;-0.14599609375;-29.125;7.625;-128.8125;
1441976013310982;0.28192138671875;-0.6396484375;-0.65728759765625;-0.28179931640625;13.697553315075941;13.404225436527236;17.95891648277745;-0.68115234375;0.40966796875;-0.1416015625;-11.8125;8.375;-142.125;
1441976013333983;0.3006591796875;-0.6329345703125;-0.64825439453125;-0.298095703125;14.009266919217957;13.41920538997261;17.97370737707396;-0.6865234375;0.4033203125;-0.123046875;-0.6875;11.3125;-147.75;
1441976013347984;0.319580078125;-0.62451171875;-0.63946533203125;-0.314697265625;14.329347526636841;13.424251821602184;17.984122727953434;-0.7451171875;0.4921875;-0.16015625;2.125;12.5;-153.8125;
1441976013370985;0.33892822265625;-0.613525390625;-0.6317138671875;-0.33123779296875;14.657434553762501;13.409005054906268;17.98641227069898;-0.82861328125;0.58447265625;-0.158203125;-4.875;8.25;-159.3125;
1441976013393987;0.3580322265625;-0.602294921875;-0.62286376953125;-0.34814453125;14.991545533829006;13.395875120054555;17.986221245055507;-0.85693359375;0.49072265625;-0.125;-18.625;4.0625;-162.875;
1441976013407987;0.375244140625;-0.59368896484375;-0.6107177734375;-0.36578369140625;15.320390930246298;13.414208731697473;17.99221849435699;-0.8359375;0.32275390625;-0.04931640625;-13.5625;4.6875;-164.8125;
1441976013430989;0.390869140625;-0.58624267578125;-0.59637451171875;-0.3846435546875;15.651024146646865;13.44858188637884;17.9964433406147;-0.8798828125;0.35107421875;-0.0263671875;12.625;7.5;-162.6875;
1441976013453990;0.406494140625;-0.5772705078125;-0.5831298828125;-0.40191650390625;15.972732090570224;13.474381575318537;0.004754785845289579;-0.8720703125;0.5478515625;-0.06201171875;29.875;4.625;-168.125;
1441976013476991;0.422607421875;-0.56646728515625;-0.5709228515625;-0.4178466796875;16.29239445646128;13.489595108978982;0.016293458270746512;-1.00390625;0.6162109375;-0.06982421875;17.6875;4.1875;-164.875;
1441976013490992;0.43756103515625;-0.556640625;-0.55743408203125;-0.43365478515625;16.60503191828149;13.529935123270707;0.04349852223596286;-1.08349609375;0.50244140625;0.02294921875;4.3125;5.125;-162.875;
1441976013512993;0.44879150390625;-0.55023193359375;-0.541015625;-0.45074462890625;16.899114428531075;13.624556512278462;0.092410644681064;-1.078125;0.33447265625;0.03271484375;14.25;7.0625;-157.375;
1441976013536995;0.45703125;-0.54583740234375;-0.5228271484375;-0.4688720703125;17.178838287451455;13.773732661897888;0.17362996210864826;-1.1279296875;0.302734375;0.02197265625;47.0;7.4375;-148.625;
1441976013559996;0.46405029296875;-0.54150390625;-0.50506591796875;-0.48626708984375;17.442339592414044;14.004352731883394;0.3361055910498628;-1.1357421875;0.4130859375;0.01416015625;69.125;4.375;-144.875;
1441976013573997;0.4720458984375;-0.534912109375;-0.49041748046875;-0.5006103515625;17.684676465963175;14.446061693815613;0.7366451514852123;-1.0595703125;0.57666015625;-0.01318359375;69.375;1.5;-141.3125;
1441976013587998;0.48028564453125;-0.52716064453125;-0.4781494140625;-0.51275634765625;17.882012533041838;16.288534226576765;2.5550425247583743;-1.03466796875;0.56103515625;-0.0087890625;42.5;-0.625;-133.5625;
1441976013610999;0.48797607421875;-0.51959228515625;-0.46722412109375;-0.52313232421875;17.829420076027013;2.859459459108245;7.108620426830259;-1.03857421875;0.47021484375;0.0419921875;25.0625;-2.0625;-123.5625;
1441976013634000;0.495361328125;-0.51251220703125;-0.45794677734375;-0.53131103515625;17.660679816010227;3.713605959645834;7.954104315780561;-1.0048828125;0.455078125;0.0634765625;18.3125;-0.9375;-112.75;
1441976013657002;0.5001220703125;-0.50762939453125;-0.45440673828125;-0.5345458984375;17.57004384754523;3.9001179245773514;8.148776125405744;-0.98291015625;0.46337890625;0.076171875;9.375;1.875;-100.5625;
1441976013671002;0.50634765625;-0.502197265625;-0.45355224609375;-0.5345458984375;17.49814052467185;3.9350255312246465;8.214624459400358;-0.94384765625;0.4658203125;0.09130859375;-7.5;5.4375;-84.625;
1441976013694004;0.5140380859375;-0.496337890625;-0.455322265625;-0.53125;17.446306753882048;3.870282990119048;8.20326578007296;-0.89306640625;0.4443359375;0.1025390625;-30.875;10.0625;-73.0625;
1441976013717005;0.52178955078125;-0.4906005859375;-0.4593505859375;-0.5255126953125;17.420137482540103;3.760723716215061;8.160405509557764;-0.875;0.41796875;0.1005859375;-53.5;14.375;-60.1875;
1441976013731006;0.52899169921875;-0.48516845703125;-0.4649658203125;-0.518310546875;17.415588133313157;3.6320411038629734;8.10472926035976;-0.87060546875;0.3857421875;0.095703125;-66.8125;15.125;-44.6875;
1441976013753007;0.53509521484375;-0.4808349609375;-0.47210693359375;-0.509521484375;17.438960857740003;3.450129909471727;7.998447131067408;-0.8681640625;0.3251953125;0.08447265625;-73.3125;13.5;-29.375;
1441976013777008;0.539794921875;-0.477783203125;-0.47998046875;-0.50006103515625;17.48265739365733;3.2112650692043516;7.831514453577239;-0.859375;0.30419921875;0.0439453125;-75.8125;10.625;-12.5;
1441976013791009;0.5423583984375;-0.47637939453125;-0.4881591796875;-0.49053955078125;17.545976575190636;2.8909097876600667;7.5732786664632625;-0.85498046875;0.2802734375;0.02001953125;-71.9375;9.3125;1.75;
1441976013813011;0.54241943359375;-0.47698974609375;-0.4964599609375;-0.48150634765625;17.625747970928234;2.415402235524747;7.145861649398439;-0.8681640625;0.259765625;0.013671875;-62.625;6.9375;15.9375;
1441976013837012;0.53955078125;-0.4798583984375;-0.50469970703125;-0.4732666015625;17.71258189282763;1.5838661719051716;6.345083353624886;-0.88134765625;0.25732421875;-0.0048828125;-48.0;3.0;29.1875;
1441976013851013;0.53411865234375;-0.48419189453125;-0.5133056640625;-0.4656982421875;17.774392501782458;0.02906033924670511;4.808628796072787;-0.90478515625;0.26953125;-0.0341796875;-31.5;-3.125;42.375;
1441976013874014;0.52630615234375;-0.48980712890625;-0.521728515625;-0.45928955078125;17.749941567521528;16.03473242091544;2.8183441400793776;-0.9306640625;0.26416015625;-0.05224609375;-19.125;-10.75;54.8125;
1441976013897015;0.51629638671875;-0.49676513671875;-0.52947998046875;-0.4542236328125;17.639061011992016;14.753199506421119;1.5249818632812164;-0.947265625;0.236328125;-0.08447265625;-5.125;-20.0;65.375;
1441976013911016;0.504150390625;-0.50537109375;-0.53631591796875;-0.45037841796875;17.483613431259133;14.112314657914395;0.8553246558306133;-0.93896484375;0.2060546875;-0.095703125;10.3125;-25.75;73.875;
1441976013933017;0.4903564453125;-0.51519775390625;-0.54229736328125;-0.44732666015625;17.307087071516857;13.77802630334556;0.4793348748846373;-0.9501953125;0.189453125;-0.11572265625;26.375;-30.5;81.875;
1441976013957019;0.47540283203125;-0.52587890625;-0.54754638671875;-0.44464111328125;17.118808501725827;13.594331571793353;0.24498749549930163;-0.96337890625;0.18798828125;-0.12060546875;39.0;-33.0625;88.375;
1441976013971020;0.4595947265625;-0.53729248046875;-0.5518798828125;-0.4422607421875;16.925103310346007;13.49607656373304;0.08792882323662923;-0.98681640625;0.17822265625;-0.12109375;47.4375;-34.0625;93.9375;
1441976013993021;0.4422607421875;-0.549560546875;-0.55572509765625;-0.4400634765625;16.719723413411067;13.436978473820288;17.961082498034205;-0.99658203125;0.1611328125;-0.10791015625;55.375;-32.6875;98.9375;
1441976014025023;0.42431640625;-0.56317138671875;-0.55816650390625;-0.4373779296875;16.507460970098577;13.437234127622473;17.88503627739588;-1.0029296875;0.1474609375;-0.0791015625;64.75;-28.5625;103.6875;
1441976014031023;0.40631103515625;-0.57769775390625;-0.5594482421875;-0.43389892578125;16.291581814543726;13.476331811049585;17.843537338003387;-1.00537109375;0.158203125;-0.060546875;73.75;-21.875;107.4375;
1441976014054024;0.38909912109375;-0.59234619140625;-0.55999755859375;-0.42919921875;16.076604884634314;13.538808759723155;17.82826125006267;-1.01025390625;0.1923828125;-0.05224609375;78.375;-13.8125;109.625;
1441976014077026;0.373291015625;-0.606201171875;-0.56048583984375;-0.42315673828125;15.866277540389085;13.607257708680184;17.828516280472304;-1.015625;0.23291015625;-0.04931640625;76.9375;-5.375;109.4375;
1441976014091026;0.35955810546875;-0.61846923828125;-0.56170654296875;-0.4156494140625;15.663621240474944;13.669906156637229;17.839592758166347;-1.0087890625;0.27392578125;-0.0419921875;68.0625;2.3125;107.0;
1441976014113028;0.34893798828125;-0.62841796875;-0.56341552734375;-0.4073486328125;15.484096303831544;13.724595633994507;17.862112210660772;-0.9873046875;0.2880859375;-0.03125;52.25;9.125;103.3125;
1441976014137029;0.3408203125;-0.63653564453125;-0.56597900390625;-0.39794921875;15.317430369909156;13.771083662937901;17.89476985907995;-0.96875;0.29638671875;-0.02783203125;33.9375;15.5625;98.6875;
1441976014151030;0.3353271484375;-0.642822265625;-0.569580078125;-0.3873291015625;15.162572471654169;13.809329228634972;17.93900631473542;-0.94873046875;0.3125;-0.0361328125;16.9375;22.0;92.5;
1441976014173031;0.3328857421875;-0.6466064453125;-0.57421875;-0.3760986328125;15.029586451379041;13.834519238489122;17.991712338013752;-0.9248046875;0.34228515625;-0.05419921875;-1.5625;28.1875;84.3125;
1441976014197032;0.3331298828125;-0.64813232421875;-0.57952880859375;-0.36492919921875;14.921507035017445;13.847994964654724;0.049537567484706606;-0.92236328125;0.34619140625;-0.0693359375;-21.875;32.4375;74.0;
1441976014211033;0.335205078125;-0.64801025390625;-0.58489990234375;-0.35455322265625;14.838062109695393;13.853109425242776;0.10753248669510461;-0.923828125;0.33154296875;-0.0849609375;-38.0625;34.1875;63.0625;
1441976014233035;0.33843994140625;-0.64697265625;-0.58978271484375;-0.34515380859375;14.775196033776254;13.855987375089516;0.16539349462263864;-0.9150390625;0.3056640625;-0.087890625;-46.25;33.9375;52.9375;
1441976014257036;0.34234619140625;-0.6456298828125;-0.59368896484375;-0.3369140625;14.730139897468423;13.861884628193888;0.22301959346480363;-0.89306640625;0.2900390625;-0.0966796875;-48.25;32.8125;43.4375;
1441976014271037;0.34674072265625;-0.64422607421875;-0.59649658203125;-0.33013916015625;14.703261930251205;13.871947092152446;0.27894855189781337;-0.8671875;0.287109375;-0.1025390625;-45.125;31.5;34.0625;
1441976014293038;0.35174560546875;-0.642822265625;-0.5980224609375;-0.32476806640625;14.695025866347365;13.88905496713443;0.3357988208234569;-0.84912109375;0.291015625;-0.10009765625;-39.1875;30.1875;24.5;
1441976014317039;0.35736083984375;-0.6409912109375;-0.5987548828125;-0.3209228515625;14.706598798597128;13.907489145935035;0.3901682788788116;-0.84375;0.29736328125;-0.11962890625;-33.6875;28.5625;14.4375;
1441976014331040;0.36334228515625;-0.63873291015625;-0.59844970703125;-0.31915283203125;14.74149286999674;13.927119174104725;0.4387779710898184;-0.84619140625;0.3037109375;-0.11279296875;-29.5;26.5;4.0625;
1441976014353041;0.36907958984375;-0.63665771484375;-0.5970458984375;-0.31951904296875;14.793766331836913;13.949702740031118;0.47935547436453646;-0.85693359375;0.27294921875;-0.11083984375;-24.0625;21.875;-5.125;
1441976014377043;0.37408447265625;-0.6351318359375;-0.59417724609375;-0.322021484375;14.859795730025434;13.978257051642311;0.5113126408625014;-0.84765625;0.2666015625;-0.09765625;-13.625;16.5625;-13.75;
1441976014391044;0.37884521484375;-0.6337890625;-0.59039306640625;-0.32598876953125;14.937420353177696;14.010934111320026;0.5390333823997727;-0.8486328125;0.2744140625;-0.08935546875;-0.5625;11.125;-21.25;
1441976014413045;0.383544921875;-0.63232421875;-0.5860595703125;-0.3311767578125;15.02627424516336;14.044959240296087;0.5630495374422942;-0.84765625;0.29833984375;-0.08349609375;8.1875;7.8125;-28.9375;
1441976014437046;0.3883056640625;-0.63031005859375;-0.58148193359375;-0.33746337890625;15.127457285278235;14.076480237623937;0.5824363253317981;-0.85546875;0.3291015625;-0.0751953125;13.0;4.6875;-36.625;
1441976014451047;0.39306640625;-0.627685546875;-0.57659912109375;-0.34515380859375;15.243687299449078;14.104292367069169;0.5949309082510499;-0.86572265625;0.33837890625;-0.06103515625;14.5625;1.4375;-43.875;
1441976014473048;0.3975830078125;-0.6248779296875;-0.5712890625;-0.3538818359375;15.368917177070177;14.131568494116737;0.6024809462028914;-0.876953125;0.3291015625;-0.04638671875;17.6875;-3.0625;-50.875;
1441976014496050;0.40185546875;-0.62158203125;-0.56597900390625;-0.3631591796875;15.499725629698066;14.153829632150806;0.6042202597853684;-0.89208984375;0.3486328125;-0.037109375;21.8125;-6.3125;-56.5625;
1441976014511050;0.40625;-0.6175537109375;-0.5609130859375;-0.3729248046875;15.638316795664835;14.16899147422288;0.6007556664238898;-0.90478515625;0.37353515625;-0.02587890625;22.375;-9.4375;-61.6875;
1441976014533052;0.410888671875;-0.6124267578125;-0.55657958984375;-0.38262939453125;15.781559729463043;14.17153924592049;0.5910018736829697;-0.92138671875;0.384765625;-0.02197265625;20.1875;-12.75;-66.625;
1441976014557053;0.416015625;-0.60614013671875;-0.55316162109375;-0.3919677734375;15.92811568238505;14.160445991797978;0.5761935657239363;-0.94189453125;0.39990234375;-0.009765625;13.875;-15.25;-70.75;
1441976014571054;0.42181396484375;-0.5985107421875;-0.55084228515625;-0.400634765625;16.076949065837866;14.133131917162224;0.5561651847749383;-0.94775390625;0.3994140625;-0.0107421875;4.8125;-17.375;-73.5;
1441976014593055;0.42816162109375;-0.5899658203125;-0.5494384765625;-0.408447265625;16.224090813666784;14.092781919207948;0.5324355459254037;-0.95849609375;0.39208984375;0.00537109375;-6.3125;-18.3125;-75.375;
1441976014616056;0.43499755859375;-0.58056640625;-0.54901123046875;-0.41522216796875;16.367165403953877;14.037628551933548;0.5035379919114263;-0.970703125;0.3759765625;0.00146484375;-16.0625;-18.75;-75.0625;
1441976014631057;0.442138671875;-0.570556640625;-0.54931640625;-0.421142578125;16.505921573269678;13.967720645444551;0.4670152929981192;-0.98779296875;0.3583984375;4.8828125E-4;-26.125;-18.5625;-73.5625;
1441976014653059;0.4490966796875;-0.560546875;-0.5499267578125;-0.42633056640625;16.636604310146605;13.88669246293922;0.4217347777103142;-0.99755859375;0.30859375;0.0078125;-33.8125;-18.3125;-69.875;
1441976014676060;0.45513916015625;-0.55169677734375;-0.5504150390625;-0.43084716796875;16.750646214664403;13.804260654035103;0.3705718456259768;-0.99267578125;0.25048828125;0.01318359375;-36.3125;-17.6875;-63.9375;
1441976014691061;0.4599609375;-0.5443115234375;-0.55078125;-0.4345703125;16.84383335663299;13.723594919727123;0.315336256270215;-0.9814453125;0.23095703125;0.0087890625;-32.0625;-16.0625;-56.1875;
1441976014713062;0.46539306640625;-0.53729248046875;-0.55078125;-0.43756103515625;16.934679556110414;13.662078377863809;0.28097012007025207;-0.97705078125;0.23193359375;0.015625;-26.0625;-13.625;-47.875;
1441976014737063;0.4691162109375;-0.5321044921875;-0.55108642578125;-0.43951416015625;16.996748435176077;13.604213461659723;0.24394012372720114;-0.9765625;0.14990234375;-0.005859375;-27.75;-9.3125;-42.4375;
1441976014751064;0.4718017578125;-0.5284423828125;-0.551025390625;-0.44110107421875;17.04343257142911;13.56291012993723;0.2161046754028812;-0.95703125;0.20263671875;0.005859375;-21.3125;-7.4375;-33.375;
1441976014773065;0.473388671875;-0.52618408203125;-0.55096435546875;-0.442138671875;17.07223132792039;13.534085685534123;0.1951481410369042;-0.9501953125;0.21826171875;-0.0029296875;-13.9375;-5.5;-26.875;
1441976014797067;0.47418212890625;-0.5250244140625;-0.55108642578125;-0.44256591796875;17.08542088336479;13.516913916680364;0.18269567192058153;-0.95166015625;0.23828125;-0.01953125;-8.375;-4.8125;-20.3125;
1441976014811068;0.47430419921875;-0.5247802734375;-0.55120849609375;-0.44256591796875;17.08686842125364;13.511975185120653;0.17915959064951945;-0.951171875;0.265625;-0.02978515625;-4.9375;-4.1875;-14.5;
1441976014833069;0.47393798828125;-0.5250244140625;-0.5516357421875;-0.44219970703125;17.078864171832155;13.50761010554918;0.17532563345630736;-0.94775390625;0.27685546875;-0.04052734375;-2.25;-3.5625;-9.375;
1441976014857070;0.4732666015625;-0.52581787109375;-0.5521240234375;-0.44140625;17.063020804767216;13.51381636532533;0.1810212431190483;-0.94873046875;0.28515625;-0.04833984375;-1.125;-3.5625;-5.25;
1441976014871071;0.47222900390625;-0.5267333984375;-0.552978515625;-0.44024658203125;17.040144933734567;13.514534499255523;0.18195060444359565;-0.9306640625;0.28662109375;-0.06591796875;-0.125;-3.6875;-1.3125;
1441976014893072;0.47119140625;-0.52764892578125;-0.55413818359375;-0.43878173828125;17.01379362968732;13.51398576527162;0.1833674317851072;-0.923828125;0.287109375;-0.0576171875;-1.125;-3.6875;2.375;
1441976014917074;0.47003173828125;-0.52886962890625;-0.555419921875;-0.43701171875;16.98249440166705;13.51884832426661;0.19019635563438947;-0.91845703125;0.26220703125;-0.056640625;-2.5625;-3.5;6.0;
1441976014931074;0.46856689453125;-0.53033447265625;-0.55682373046875;-0.4349365234375;16.945469517808384;13.524843795772039;0.19782921310422685;-0.91796875;0.2470703125;-0.0537109375;-2.3125;-2.6875;9.75;
1441976014953076;0.467041015625;-0.5321044921875;-0.55828857421875;-0.4324951171875;16.90375030460517;13.538029403596472;0.21283421059054902;-0.9296875;0.24072265625;-0.04638671875;-2.25;-1.5625;13.5625;
1441976014976077;0.46539306640625;-0.5341796875;-0.559814453125;-0.4298095703125;16.857730642688338;13.555114754044187;0.2313889836389159;-0.9482421875;0.24072265625;-0.05126953125;-2.125;-0.3125;16.9375;
1441976014991078;0.46343994140625;-0.5367431640625;-0.56121826171875;-0.4268798828125;16.80616660120026;13.578631772074349;0.254459965970658;-0.9560546875;0.2255859375;-0.04248046875;-1.4375;1.25;20.75;
1441976015013079;0.461181640625;-0.53985595703125;-0.5626220703125;-0.42352294921875;16.746869912802605;13.608522324486911;0.282689501197638;-0.95361328125;0.21240234375;-0.03662109375;0.125;3.0625;25.0;
1441976015036080;0.45880126953125;-0.54345703125;-0.56396484375;-0.41973876953125;16.68144729095929;13.645826561795662;0.31763773169079296;-0.95654296875;0.2177734375;-0.03125;2.125;5.4375;28.9375;
1441976015059082;0.45654296875;-0.54718017578125;-0.56549072265625;-0.415283203125;16.61046188441508;13.68618468573171;0.35812260084115305;-0.95703125;0.22412109375;-0.025390625;2.8125;8.1875;32.3125;
1441976015073083;0.45458984375;-0.55072021484375;-0.56719970703125;-0.41033935546875;16.537826575205155;13.725501878890913;0.4009304649233257;-0.96630859375;0.2275390625;-0.03466796875;0.6875;10.1875;35.25;
1441976015096084;0.45269775390625;-0.5543212890625;-0.56903076171875;-0.405029296875;16.461834874819324;13.763484582587012;0.44383132868121034;-0.95556640625;0.22021484375;-0.033203125;-2.3125;11.9375;37.625;
1441976015111085;0.45111083984375;-0.55804443359375;-0.5706787109375;-0.39935302734375;16.384724064624884;13.806997101332772;0.4933409911865745;-0.9521484375;0.21826171875;-0.0400390625;-4.0;13.625;39.625;
1441976015133086;0.44964599609375;-0.5616455078125;-0.57232666015625;-0.39349365234375;16.307278055586192;13.847504737804671;0.5411113751859941;-0.9580078125;0.2236328125;-0.0498046875;-4.75;15.5;40.6875;
1441976015156087;0.4483642578125;-0.565185546875;-0.5738525390625;-0.38763427734375;16.231287254957305;13.886800979959483;0.5880386925264988;-0.958984375;0.22314453125;-0.05126953125;-5.5625;16.875;41.125;
1441976015171088;0.44720458984375;-0.568603515625;-0.57537841796875;-0.3817138671875;16.15585129251112;13.922944526237162;0.6327201975421023;-0.943359375;0.224609375;-0.0478515625;-6.0625;18.0;40.8125;
1441976015193089;0.44635009765625;-0.57183837890625;-0.57672119140625;-0.37591552734375;16.084349901734736;13.958541466928377;0.6773974658670839;-0.93359375;0.24462890625;-0.0498046875;-6.625;18.875;39.6875;
1441976015216091;0.44586181640625;-0.57470703125;-0.57781982421875;-0.3702392578125;16.018330297905766;13.993628115153207;0.7226607425266091;-0.93017578125;0.24609375;-0.05224609375;-7.0;19.625;37.8125;
1441976015231092;0.4456787109375;-0.57708740234375;-0.5789794921875;-0.3648681640625;15.958558068268527;14.022893670414046;0.7636995545334607;-0.9326171875;0.255859375;-0.064453125;-8.0625;19.8125;35.0;
1441976015253093;0.4459228515625;-0.5789794921875;-0.580078125;-0.35992431640625;15.907100570224959;14.048876176021604;0.8026816353594595;-0.927734375;0.26513671875;-0.0654296875;-9.625;19.1875;31.75;
1441976015276094;0.4464111328125;-0.5804443359375;-0.5809326171875;-0.35552978515625;15.864200906359352;14.072590442583884;0.839043453981763;-0.92724609375;0.2685546875;-0.06689453125;-10.8125;18.125;27.9375;
1441976015291095;0.44769287109375;-0.58154296875;-0.58135986328125;-0.3514404296875;15.830949019878943;14.102220944918706;0.8825407024687572;-0.9296875;0.27392578125;-0.07568359375;-10.75;16.9375;23.5625;
1441976015313096;0.44891357421875;-0.58197021484375;-0.58184814453125;-0.3482666015625;15.80813211413621;14.121675756670248;0.9151290866674564;-0.92626953125;0.26953125;-0.09228515625;-11.75;18.0;19.0625;
1441976015336098;0.45037841796875;-0.5819091796875;-0.5821533203125;-0.345947265625;15.796583970079045;14.13810219886255;0.9437438373831286;-0.92529296875;0.2685546875;-0.07861328125;-11.25;14.375;14.625;
1441976015351099;0.45172119140625;-0.58154296875;-0.582275390625;-0.3446044921875;15.79442278584911;14.1497867617048;0.9647164338399242;-0.91650390625;0.26025390625;-0.0830078125;-10.9375;11.5625;10.125;
1441976015373100;0.45306396484375;-0.5809326171875;-0.5821533203125;-0.3441162109375;15.801147837523422;14.159418957672955;0.9810872459881949;-0.92041015625;0.25390625;-0.07373046875;-8.125;8.625;6.25;
1441976015396101;0.4544677734375;-0.5802001953125;-0.5816650390625;-0.34429931640625;15.815212297635886;14.170389580628694;0.9962649900539473;-0.9208984375;0.25244140625;-0.06640625;-5.75;6.125;2.3125;
1441976015411102;0.4560546875;-0.57904052734375;-0.58111572265625;-0.3450927734375;15.837756801734265;14.178696976941655;1.0085486260430467;-0.92236328125;0.2578125;-0.0732421875;-3.5625;4.8125;-1.5;
1441976015433103;0.457763671875;-0.57769775390625;-0.58038330078125;-0.34637451171875;15.866371546439556;14.187284632187314;1.0200023376342355;-0.927734375;0.26025390625;-0.06396484375;-2.875;3.25;-5.5625;
1441976015456105;0.459716796875;-0.57586669921875;-0.57965087890625;-0.3480224609375;15.902039114055285;14.193602237521985;1.0302274202062591;-0.9326171875;0.27099609375;-0.07177734375;-2.4375;1.9375;-9.625;
1441976015471105;0.4617919921875;-0.57366943359375;-0.5789794921875;-0.35003662109375;15.943287783192176;14.19671946115399;1.0377481716840111;-0.9306640625;0.27783203125;-0.06396484375;-2.9375;0.625;-13.5;
1441976015493107;0.46405029296875;-0.57110595703125;-0.5782470703125;-0.3524169921875;15.990739855719852;14.198468854954253;1.0442283170160611;-0.927734375;0.28173828125;-0.05810546875;-3.6875;-0.8125;-17.125;
1441976015516108;0.466552734375;-0.56817626953125;-0.57745361328125;-0.35504150390625;16.043714562105063;14.199850458445297;1.0512083960670957;-0.927734375;0.27783203125;-0.0546875;-4.125;-1.9375;-20.4375;
1441976015531109;0.46917724609375;-0.56500244140625;-0.57684326171875;-0.35772705078125;16.098773483885505;14.198383051563045;1.0567242320914025;-0.9248046875;0.2783203125;-0.05908203125;-4.875;-2.75;-23.4375;
1441976015553110;0.47198486328125;-0.56134033203125;-0.5762939453125;-0.36065673828125;16.159506382043514;14.193436362090361;1.0601630447856816;-0.92431640625;0.29052734375;-0.05517578125;-6.375;-3.5625;-26.0625;
1441976015576111;0.474853515625;-0.5574951171875;-0.5758056640625;-0.36358642578125;16.22150587419237;14.186891462797249;1.0628836680192513;-0.92333984375;0.28125;-0.05419921875;-7.875;-4.6875;-28.375;
1441976015591112;0.477783203125;-0.55352783203125;-0.5753173828125;-0.36663818359375;16.285524727228953;14.179336423532568;1.0647429712467693;-0.92529296875;0.27978515625;-0.06005859375;-9.0625;-5.6875;-30.0;
1441976015613113;0.48046875;-0.54949951171875;-0.57476806640625;-0.36993408203125;16.35089898332257;14.167973611634455;1.0613921306899083;-0.9326171875;0.27490234375;-0.06103515625;-9.1875;-6.875;-31.1875;
1441976015636115;0.4830322265625;-0.54559326171875;-0.57421875;-0.373291015625;16.41540755203367;14.155293757825774;1.0558184737018093;-0.94189453125;0.27685546875;-0.0546875;-8.0;-7.875;-31.8125;
1441976015651116;0.48529052734375;-0.541748046875;-0.5736083984375;-0.37689208984375;16.48018562375224;14.138192937483145;1.043889185792444;-0.95068359375;0.27197265625;-0.0615234375;-7.1875;-9.0;-31.8125;
1441976015673117;0.48712158203125;-0.5382080078125;-0.572998046875;-0.3804931640625;16.540998911860164;14.117187545663423;1.0259627275552226;-0.9580078125;0.26318359375;-0.05517578125;-5.6875;-10.3125;-31.3125;
1441976015696118;0.488525390625;-0.5350341796875;-0.57232666015625;-0.3841552734375;16.598076218424612;14.09295155539846;1.0021784490720382;-0.955078125;0.25732421875;-0.056640625;-3.6875;-11.0625;-29.8125;
1441976015711119;0.48944091796875;-0.53216552734375;-0.5716552734375;-0.38787841796875;16.651274111529453;14.06265982051209;0.9699043166865832;-0.955078125;0.24267578125;-0.05419921875;-1.4375;-12.25;-27.5;
1441976015733120;0.48974609375;-0.530029296875;-0.5709228515625;-0.3916015625;16.696953975188606;14.029982756892668;0.931197057952851;-0.953125;0.2255859375;-0.04052734375;1.3125;-12.625;-24.625;
1441976015756122;0.48956298828125;-0.528564453125;-0.57000732421875;-0.39501953125;16.734175197326767;14.000677565368019;0.8929448426967238;-0.95166015625;0.22412109375;-0.0283203125;5.0;-12.4375;-21.25;
1441976015771123;0.489013671875;-0.52783203125;-0.569091796875;-0.3980712890625;16.762107745417392;13.975408773571692;0.8566290755324246;-0.94921875;0.2265625;-0.03564453125;8.0625;-11.5;-18.0625;
1441976015793124;0.48822021484375;-0.5274658203125;-0.568359375;-0.40057373046875;16.7816770840059;13.950981449470232;0.8215578087031928;-0.95166015625;0.240234375;-0.03662109375;10.3125;-10.5;-14.8125;
1441976015816125;0.4873046875;-0.52734375;-0.56787109375;-0.4024658203125;16.793602915540287;13.927880719939699;0.7892651009190471;-0.94677734375;0.24853515625;-0.03857421875;9.8125;-9.3125;-11.875;
1441976015831126;0.48638916015625;-0.5274658203125;-0.567626953125;-0.40380859375;16.79897924622042;13.90794326560612;0.7617273232532646;-0.94580078125;0.25439453125;-0.04150390625;8.375;-8.25;-8.75;
1441976015853127;0.48541259765625;-0.52783203125;-0.5675048828125;-0.40460205078125;16.798005200274904;13.892839032418356;0.7401193153815067;-0.94091796875;0.25439453125;-0.0419921875;7.0;-6.875;-5.5625;
1441976015876129;0.48443603515625;-0.52838134765625;-0.567626953125;-0.40496826171875;16.791823923663213;13.879743876284765;0.7219239893625057;-0.94287109375;0.259765625;-0.048828125;5.625;-5.875;-3.0625;
1441976015892129;0.48358154296875;-0.529052734375;-0.5677490234375;-0.40496826171875;16.782847966901343;13.873455435266855;0.7116090189582228;-0.93994140625;0.2607421875;-0.046875;4.6875;-4.75;-0.8125;
1441976015913131;0.4825439453125;-0.5299072265625;-0.5679931640625;-0.4046630859375;16.769117958912926;13.86762352930084;0.7019563171918916;-0.939453125;0.2529296875;-0.05810546875;3.1875;-3.9375;1.3125;
1441976015936132;0.4814453125;-0.531005859375;-0.56829833984375;-0.4041748046875;16.752020078800086;13.864683845454461;0.6950088637210815;-0.93701171875;0.2529296875;-0.060546875;3.25;-3.3125;3.4375;
1441976015952133;0.48028564453125;-0.53228759765625;-0.568603515625;-0.40350341796875;16.73217012749131;13.864843327920127;0.6909938950268393;-0.94384765625;0.25537109375;-0.05859375;3.625;-2.75;5.3125;
1441976015974134;0.47900390625;-0.53363037109375;-0.5689697265625;-0.40264892578125;16.709751159702915;13.864730605369209;0.6869106805715751;-0.94384765625;0.24951171875;-0.0615234375;3.4375;-2.125;7.125;
1441976015996135;0.47772216796875;-0.53509521484375;-0.5693359375;-0.4017333984375;16.686153759074806;13.866620326884407;0.6846423901077258;-0.94775390625;0.24755859375;-0.06103515625;3.3125;-1.6875;8.9375;
1441976016014136;0.47625732421875;-0.53680419921875;-0.56964111328125;-0.4007568359375;16.659920800139798;13.87038155847297;0.6830228863687644;-0.94140625;0.23876953125;-0.05615234375;3.875;-1.1875;10.3125;
1441976016033138;0.47467041015625;-0.538818359375;-0.56982421875;-0.399658203125;16.63079588491355;13.87882066556374;0.6848568783103661;-0.9345703125;0.234375;-0.05126953125;5.125;-0.0625;12.0625;
1441976016056139;0.47320556640625;-0.541015625;-0.5699462890625;-0.39825439453125;16.59921208328482;13.893861092642812;0.6938250868714761;-0.9375;0.2392578125;-0.04345703125;6.25;1.25;13.4375;
1441976016072140;0.47186279296875;-0.543212890625;-0.5701904296875;-0.39654541015625;16.56554642983533;13.910340965415235;0.7058216560456024;-0.93408203125;0.24169921875;-0.0517578125;6.125;3.0;14.6875;
1441976016093141;0.4708251953125;-0.54522705078125;-0.57049560546875;-0.39447021484375;16.531606562268202;13.929667401110112;0.723329550032696;-0.94482421875;0.24755859375;-0.0458984375;4.5;4.625;15.375;
1441976016116142;0.4700927734375;-0.54705810546875;-0.5709228515625;-0.3922119140625;16.49848632528451;13.949404693892422;0.7435275238314104;-0.9423828125;0.248046875;-0.04638671875;2.3125;6.125;15.9375;
1441976016132143;0.469482421875;-0.548828125;-0.57135009765625;-0.389892578125;16.465836890577023;13.969490005295086;0.7647786181377447;-0.94287109375;0.236328125;-0.04052734375;0.125;7.3125;16.375;
1441976016153144;0.4688720703125;-0.5506591796875;-0.5716552734375;-0.3875732421875;16.433166859888345;13.990994658450667;0.7869302470714086;-0.93994140625;0.234375;-0.03955078125;-0.4375;8.3125;16.625;
1441976016176146;0.4683837890625;-0.5526123046875;-0.57177734375;-0.3851318359375;16.39998188647013;14.017343019117385;0.8137588977693382;-0.94189453125;0.23486328125;-0.03662109375;0.125;9.375;16.75;
1441976016200147;0.468017578125;-0.554443359375;-0.5718994140625;-0.38275146484375;16.368485755738455;14.04249412794595;0.8399107636972655;-0.939453125;0.23876953125;-0.0478515625;0.5;10.0;16.625;
1441976016213148;0.46771240234375;-0.55615234375;-0.57208251953125;-0.38043212890625;16.338186409469685;14.06510790689585;0.8640462725648174;-0.9384765625;0.24365234375;-0.0498046875;-0.0625;10.125;16.0;
1441976016236149;0.46746826171875;-0.55767822265625;-0.57232666015625;-0.37811279296875;16.309013333006217;14.08516998823577;0.8865230647784961;-0.93408203125;0.25;-0.04736328125;-0.8125;10.125;15.0625;
1441976016252150;0.46734619140625;-0.55902099609375;-0.57244873046875;-0.37603759765625;16.283743584524828;14.104591976018781;0.908175643474608;-0.9306640625;0.2587890625;-0.0546875;-1.1875;9.5625;14.0625;
1441976016273151;0.46722412109375;-0.55999755859375;-0.57275390625;-0.37432861328125;16.262936244602727;14.116198128016203;0.9225155114409948;-0.93505859375;0.25927734375;-0.06298828125;-1.5;8.5;12.6875;
1441976016296153;0.467041015625;-0.5609130859375;-0.57281494140625;-0.373046875;16.24624435561084;14.127413830295122;0.9345135061690437;-0.92529296875;0.2470703125;-0.05322265625;-2.0625;6.9375;11.375;
1441976016312153;0.466796875;-0.56195068359375;-0.57257080078125;-0.3721923828125;16.232728092576803;14.140602996525514;0.9458064332900288;-0.9248046875;0.24609375;-0.05712890625;-0.125;5.6875;10.0625;
1441976016333155;0.466552734375;-0.562744140625;-0.572265625;-0.37176513671875;16.224217823816787;14.150414104083534;0.952995035514427;-0.93603515625;0.2548828125;-0.06787109375;2.125;4.75;8.0625;
1441976016356156;0.46624755859375;-0.5633544921875;-0.5718994140625;-0.371826171875;16.220542887846502;14.15654167824145;0.9552345769994657;-0.93603515625;0.25927734375;-0.06201171875;2.8125;3.1875;5.875;
1441976016372157;0.466064453125;-0.56365966796875;-0.57147216796875;-0.3721923828125;16.221909281336515;14.160817585146118;0.9557898156753103;-0.9404296875;0.25927734375;-0.06298828125;3.6875;1.625;3.75;
1441976016393158;0.466064453125;-0.563720703125;-0.57110595703125;-0.372802734375;16.22739790105745;14.163077217816667;0.9549996958820193;-0.93212890625;0.26318359375;-0.05859375;3.9375;0.6875;1.1875;
1441976016416159;0.46624755859375;-0.5633544921875;-0.5706787109375;-0.37359619140625;16.238019256092308;14.16374178447071;0.953693413468352;-0.9267578125;0.26953125;-0.0556640625;3.1875;-0.125;-1.25;
1441976016432160;0.46673583984375;-0.56280517578125;-0.57025146484375;-0.37457275390625;16.25266897549254;14.165192946850437;0.9540129595705684;-0.931640625;0.26220703125;-0.05126953125;2.0625;-0.5;-3.4375;
1441976016453162;0.4674072265625;-0.56195068359375;-0.56982421875;-0.37567138671875;16.271038844557076;14.165518383192305;0.9542671062163133;-0.9345703125;0.26123046875;-0.0517578125;1.3125;-0.8125;-5.5625;
1441976016476163;0.46820068359375;-0.560791015625;-0.569580078125;-0.3768310546875;16.291818923315837;14.16192437907288;0.9521821506183222;-0.935546875;0.265625;-0.05224609375;0.125;-0.9375;-7.6875;
1441976016492164;0.46905517578125;-0.55950927734375;-0.56927490234375;-0.37811279296875;16.314782466013675;14.158106667480064;0.9498726082441995;-0.93408203125;0.26708984375;-0.04541015625;-1.1875;-1.5;-9.3125;
1441976016513165;0.47003173828125;-0.55816650390625;-0.56890869140625;-0.37945556640625;16.339364715224185;14.155538646301103;0.9489793000410893;-0.93505859375;0.2666015625;-0.046875;-1.4375;-2.0625;-10.5;
1441976016536166;0.4710693359375;-0.55657958984375;-0.568603515625;-0.380859375;16.366049553174363;14.15036564882794;0.9463710596300605;-0.9306640625;0.2626953125;-0.0576171875;-1.625;-2.75;-11.5;
1441976016552167;0.4720458984375;-0.5550537109375;-0.5682373046875;-0.38250732421875;16.394145360361644;14.144403904364625;0.9417106004332634;-0.927734375;0.25537109375;-0.05712890625;-2.375;-3.5625;-12.1875;
1441976016573168;0.47271728515625;-0.55364990234375;-0.5677490234375;-0.38433837890625;16.421816425593995;14.136506401882052;0.933016411915675;-0.92724609375;0.248046875;-0.0625;-1.75;-4.5;-12.5625;
1441976016596170;0.47320556640625;-0.55255126953125;-0.56707763671875;-0.3863525390625;16.448682872490146;14.130458153641735;0.9236865970075279;-0.9287109375;0.25146484375;-0.05517578125;0.5;-5.1875;-12.8125;
1441976016612171;0.4735107421875;-0.551513671875;-0.56640625;-0.38836669921875;16.474281964870194;14.122514597403626;0.9117768120668116;-0.93017578125;0.2587890625;-0.05615234375;2.9375;-5.5;-13.0625;
1441976016633172;0.47393798828125;-0.5504150390625;-0.56585693359375;-0.39031982421875;16.49996921894081;14.113713165641675;0.9000505604736316;-0.9375;0.26953125;-0.05615234375;3.5;-5.875;-13.25;
1441976016656173;0.47442626953125;-0.549072265625;-0.5654296875;-0.39215087890625;16.526123004737673;14.101950658486734;0.8869761981461255;-0.93408203125;0.2705078125;-0.05859375;2.625;-6.25;-13.6875;
1441976016672174;0.47503662109375;-0.54766845703125;-0.56512451171875;-0.393798828125;16.551420834360314;14.090028504227135;0.8751512012513881;-0.93994140625;0.26708984375;-0.0556640625;0.875;-6.3125;-13.8125;
1441976016693175;0.4757080078125;-0.54620361328125;-0.56488037109375;-0.3953857421875;16.576701928512556;14.077334760501849;0.8632585091896061;-0.93701171875;0.26220703125;-0.06005859375;-0.6875;-6.25;-13.625;
1441976016716177;0.476318359375;-0.544921875;-0.5645751953125;-0.39691162109375;16.600261212055127;14.066632473384098;0.8526530752359649;-0.943359375;0.25244140625;-0.0576171875;-1.3125;-5.9375;-13.0;
1441976016738178;0.47674560546875;-0.5438232421875;-0.56427001953125;-0.3983154296875;16.620844578081435;14.055917700495053;0.8413490849119905;-0.9482421875;0.24365234375;-0.06201171875;-0.875;-6.0;-11.9375;
1441976016753179;0.4769287109375;-0.54302978515625;-0.56390380859375;-0.39971923828125;16.638523651962636;14.045781016397973;0.8288647567584473;-0.95166015625;0.23876953125;-0.056640625;0.375;-5.625;-10.375;
1441976016776180;0.47705078125;-0.54248046875;-0.5634765625;-0.40087890625;16.652743007411267;14.039919317995187;0.8203218754289598;-0.95458984375;0.236328125;-0.05615234375;1.625;-5.25;-8.75;
1441976016798181;0.47698974609375;-0.54217529296875;-0.563232421875;-0.40179443359375;16.662063794769217;14.032919184925593;0.8106412613304518;-0.94970703125;0.234375;-0.056640625;2.25;-4.5625;-7.125;
1441976016815182;0.47686767578125;-0.54205322265625;-0.56292724609375;-0.40240478515625;16.667867232474247;14.030271211719837;0.8053472988642087;-0.94775390625;0.23583984375;-0.05126953125;2.3125;-3.625;-5.25;
1441976016836183;0.47674560546875;-0.5421142578125;-0.56280517578125;-0.4027099609375;16.6696011261892;14.028919028668316;0.8022199564305668;-0.94287109375;0.23486328125;-0.05322265625;2.3125;-2.5625;-3.75;
1441976016858185;0.4765625;-0.5423583984375;-0.56268310546875;-0.4027099609375;16.667613215281893;14.031038574816169;0.8027653662634832;-0.94921875;0.2373046875;-0.04638671875;1.6875;-1.375;-2.0;
1441976016875186;0.4764404296875;-0.54278564453125;-0.56256103515625;-0.4024658203125;16.66295720801595;14.03778199965263;0.8082862137815394;-0.9404296875;0.23486328125;-0.05126953125;1.5;-0.25;-0.375;
1441976016896187;0.4764404296875;-0.5433349609375;-0.5625;-0.40185546875;16.65516856606607;14.049167663604198;0.8196884953283959;-0.943359375;0.2373046875;-0.05517578125;1.0625;0.875;1.0;
1441976016918188;0.47637939453125;-0.54388427734375;-0.5625;-0.401123046875;16.645932663286573;14.059524640452807;0.8304304729724725;-0.94287109375;0.2373046875;-0.0625;0.125;1.875;2.3125;
1441976016935189;0.47637939453125;-0.5445556640625;-0.56243896484375;-0.40032958984375;16.635957009445896;14.073222150259467;0.8443288465823346;-0.943359375;0.23193359375;-0.05712890625;-0.375;2.625;3.1875;
1441976016956190;0.47625732421875;-0.5452880859375;-0.5623779296875;-0.39947509765625;16.62451831253557;14.08615852564948;0.8571309514996838;-0.94091796875;0.22900390625;-0.05224609375;0.0;3.3125;4.0;
1441976016978192;0.47613525390625;-0.5462646484375;-0.56231689453125;-0.39849853515625;16.610588590673995;14.10216407794745;0.8726336669134045;-0.93798828125;0.22509765625;-0.05029296875;0.5;4.0625;4.8125;
1441976016995193;0.47601318359375;-0.5472412109375;-0.562255859375;-0.3974609375;16.596153567338337;14.11826924674783;0.888420161863388;-0.93115234375;0.23486328125;-0.052734375;1.0;4.5625;5.3125;
1441976017016194;0.4759521484375;-0.54815673828125;-0.56219482421875;-0.39630126953125;16.581414895092824;14.135055073773287;0.905607804005327;-0.9345703125;0.236328125;-0.0517578125;0.625;5.125;5.625;
1441976017038195;0.4759521484375;-0.54901123046875;-0.56207275390625;-0.39520263671875;16.567963017120437;14.152254428261587;0.9232091194129783;-0.935546875;0.236328125;-0.0576171875;0.125;5.1875;5.75;
1441976017055196;0.47607421875;-0.5498046875;-0.56201171875;-0.39410400390625;16.555221759999647;14.169173810427559;0.9412180999591868;-0.9404296875;0.228515625;-0.0576171875;-0.25;5.5625;5.8125;
1441976017076197;0.47607421875;-0.55059814453125;-0.5618896484375;-0.39306640625;16.542528250373728;14.18480950560435;0.9572561455730588;-0.951171875;0.232421875;-0.06201171875;-0.25;5.4375;5.6875;
1441976017098198;0.4761962890625;-0.5513916015625;-0.56170654296875;-0.39215087890625;16.531482955285224;14.201914266714926;0.9745621366654921;-0.95751953125;0.2373046875;-0.05908203125;-0.125;5.3125;5.375;
1441976017115199;0.476318359375;-0.552001953125;-0.56146240234375;-0.3914794921875;16.523645529127855;14.216636778385933;0.9891337007294249;-0.95458984375;0.228515625;-0.06689453125;0.125;5.125;5.0;
1441976017136201;0.476318359375;-0.55267333984375;-0.56121826171875;-0.39080810546875;16.514828972028646;14.230214493627699;1.0020404270347218;-0.9501953125;0.22265625;-0.05810546875;0.75;4.875;4.625;
1441976017158202;0.47637939453125;-0.55328369140625;-0.56097412109375;-0.3902587890625;16.507603334731623;14.243175729078098;1.0143138160307954;-0.93798828125;0.220703125;-0.05126953125;1.1875;4.8125;4.625;
1441976017175203;0.47650146484375;-0.5538330078125;-0.56072998046875;-0.38970947265625;16.50101400767918;14.256249653468469;1.0270521142407603;-0.9345703125;0.22021484375;-0.0537109375;1.125;4.75;4.125;
1441976017196204;0.4766845703125;-0.5543212890625;-0.56048583984375;-0.38909912109375;16.49457759380546;14.269783928207989;1.0407875592571567;-0.93408203125;0.22216796875;-0.05322265625;0.8125;4.9375;3.5625;
1441976017218205;0.47705078125;-0.55462646484375;-0.56024169921875;-0.3885498046875;16.49057651031544;14.283603829076577;1.055681224471874;-0.9384765625;0.23095703125;-0.05712890625;0.125;4.8125;2.75;
1441976017235206;0.47760009765625;-0.55462646484375;-0.56005859375;-0.38818359375;16.490593108668918;14.295176212315488;1.0693677227869525;-0.95068359375;0.23779296875;-0.0634765625;-0.5;4.625;1.375;
1441976017256207;0.47821044921875;-0.55450439453125;-0.559814453125;-0.387939453125;16.492773360872988;14.30678229675726;1.0830878475891206;-0.951171875;0.23291015625;-0.06591796875;-1.5;3.875;0.0;
1441976017278209;0.4788818359375;-0.55419921875;-0.5595703125;-0.38787841796875;16.4978335876847;14.316718041761892;1.0953051458847234;-0.9423828125;0.232421875;-0.06787109375;-1.5625;3.25;-1.25;
1441976017295210;0.4796142578125;-0.5537109375;-0.55938720703125;-0.387939453125;16.50513355421782;14.3244108391442;1.1057990348086968;-0.9423828125;0.2353515625;-0.06640625;-1.8125;2.5;-2.75;
1441976017316211;0.48040771484375;-0.55291748046875;-0.559326171875;-0.38818359375;16.5158029904623;14.327594116804057;1.112654728312933;-0.93896484375;0.2373046875;-0.0712890625;-2.5;1.625;-4.25;
1441976017338212;0.4813232421875;-0.55194091796875;-0.55926513671875;-0.38848876953125;16.52867051616659;14.330578518357408;1.1200149495470773;-0.939453125;0.2373046875;-0.06640625;-3.625;0.625;-5.4375;
1441976017355213;0.48211669921875;-0.55096435546875;-0.55914306640625;-0.38909912109375;16.543609678442657;14.331395251364448;1.1237799684223988;-0.9423828125;0.2294921875;-0.06884765625;-4.0;-0.25;-6.1875;
1441976017376214;0.48272705078125;-0.54998779296875;-0.55908203125;-0.389892578125;16.55906612373272;14.327873620854813;1.1223164736238749;-0.9423828125;0.22265625;-0.0703125;-3.0;-1.1875;-6.6875;
1441976017398216;0.4832763671875;-0.54901123046875;-0.55889892578125;-0.39080810546875;16.57556321254674;14.32477372093837;1.1204031343697674;-0.9462890625;0.22314453125;-0.0625;-2.0625;-1.875;-6.875;
1441976017415217;0.48370361328125;-0.54815673828125;-0.55877685546875;-0.3917236328125;16.5905741799324;14.320028417412265;1.116307068751634;-0.9462890625;0.2177734375;-0.06201171875;-1.3125;-2.5;-6.875;
1441976017436218;0.48394775390625;-0.54730224609375;-0.55865478515625;-0.39263916015625;16.60480723185454;14.312687740025591;1.1091149971193845;-0.94921875;0.22216796875;-0.0634765625;-0.6875;-3.0;-6.6875;
1441976017458219;0.4842529296875;-0.5465087890625;-0.55859375;-0.3935546875;16.618719456023975;14.305572534319696;1.102296919390044;-0.95947265625;0.22998046875;-0.0634765625;-0.375;-3.25;-6.5;
1441976017475220;0.48443603515625;-0.545654296875;-0.5587158203125;-0.39434814453125;16.631026569476166;14.29375252346967;1.0914956290655828;-0.95947265625;0.23291015625;-0.0615234375;-0.625;-3.375;-6.4375;
1441976017496221;0.484619140625;-0.5447998046875;-0.55889892578125;-0.39501953125;16.642179255705948;14.281452690956701;1.0807509508068165;-0.9580078125;0.23193359375;-0.05712890625;-1.3125;-3.6875;-5.9375;
1441976017518222;0.48480224609375;-0.54400634765625;-0.55908203125;-0.39556884765625;16.65195384341694;14.27028615699734;1.0713243057110073;-0.95166015625;0.23046875;-0.05859375;-1.6875;-3.625;-5.4375;
1441976017535223;0.48504638671875;-0.543212890625;-0.55938720703125;-0.39605712890625;16.661141654078797;14.25815876056119;1.0616211166313423;-0.95068359375;0.22900390625;-0.06298828125;-1.875;-3.625;-4.875;
1441976017556225;0.48504638671875;-0.54248046875;-0.559814453125;-0.3963623046875;16.667056891695925;14.242106272730028;1.0480297056407608;-0.9482421875;0.2216796875;-0.0625;-2.75;-3.75;-4.0625;
1441976017578226;0.48504638671875;-0.5418701171875;-0.56024169921875;-0.3966064453125;16.671666742376438;14.227489902096378;1.0356890550147946;-0.9501953125;0.22802734375;-0.05859375;-2.875;-3.9375;-2.9375;
1441976017595227;0.48480224609375;-0.5413818359375;-0.56072998046875;-0.3968505859375;16.674185262846642;14.20946508716112;1.0190704157035944;-0.9580078125;0.22705078125;-0.05859375;-2.4375;-3.5;-2.0;
1441976017616228;0.484375;-0.54107666015625;-0.5611572265625;-0.397216796875;16.67578046157234;14.190782579141167;1.000202636237232;-0.9609375;0.228515625;-0.05615234375;-1.8125;-3.875;-0.9375;
1441976017638229;0.483642578125;-0.5411376953125;-0.56158447265625;-0.3974609375;16.672633806885493;14.172219565196698;0.9798819448997861;-0.96435546875;0.22216796875;-0.05322265625;-0.4375;-4.375;0.3125;
1441976017654230;0.4827880859375;-0.54132080078125;-0.56207275390625;-0.39752197265625;16.66648384087109;14.153512935856645;0.9594363687673696;-0.95166015625;0.2275390625;-0.05322265625;1.0625;-4.25;1.6875;
1441976017679232;0.48199462890625;-0.54150390625;-0.56268310546875;-0.39739990234375;16.65876009013036;14.135086966598177;0.9403259940332339;-0.94482421875;0.236328125;-0.052734375;1.25;-3.875;2.75;
1441976017698233;0.48114013671875;-0.541748046875;-0.5634765625;-0.39697265625;16.6473786730663;14.115801636417448;0.9214298088079429;-0.93701171875;0.23291015625;-0.0439453125;0.375;-3.25;3.9375;
1441976017715234;0.48040771484375;-0.54193115234375;-0.56427001953125;-0.3963623046875;16.635509019534982;14.099140763207545;0.906232075971459;-0.93798828125;0.23876953125;-0.0498046875;-0.9375;-3.0;5.0;
1441976017736235;0.4796142578125;-0.54229736328125;-0.56512451171875;-0.39569091796875;16.62148525725999;14.083234326362593;0.8914185883810729;-0.9365234375;0.2333984375;-0.0517578125;-2.0;-2.8125;5.75;
1441976017758236;0.47869873046875;-0.54266357421875;-0.56591796875;-0.3951416015625;16.60796594201564;14.066156147694485;0.8745636533376194;-0.94287109375;0.23681640625;-0.05615234375;-1.5625;-2.75;6.625;
1441976017775237;0.47760009765625;-0.543212890625;-0.566650390625;-0.39459228515625;16.592572460705828;14.049838545474518;0.8572473632165099;-0.951171875;0.23828125;-0.0517578125;-0.6875;-2.875;7.125;
1441976017797238;0.4764404296875;-0.54388427734375;-0.5673828125;-0.3941650390625;16.576994660783377;14.033483578886075;0.838985317968516;-0.9453125;0.2392578125;-0.048828125;0.25;-2.9375;7.75;
1441976017818240;0.47528076171875;-0.5445556640625;-0.5679931640625;-0.3936767578125;16.56133122438616;14.019777639261049;0.8232238913714677;-0.94384765625;0.23974609375;-0.04638671875;1.25;-2.9375;8.0;
1441976017835241;0.47412109375;-0.54534912109375;-0.5687255859375;-0.39300537109375;16.543080124042167;14.00704483812651;0.8089535667794044;-0.935546875;0.23876953125;-0.0458984375;1.6875;-2.625;8.3125;
1441976017857242;0.47308349609375;-0.5458984375;-0.569580078125;-0.39215087890625;16.52510611055487;13.99315165296324;0.7954867995747726;-0.9267578125;0.24658203125;-0.04296875;1.0;-2.1875;8.75;
1441976017878243;0.47235107421875;-0.54638671875;-0.57049560546875;-0.39105224609375;16.506976136989927;13.983364858697524;0.788054391760803;-0.923828125;0.2490234375;-0.044921875;-1.0625;-1.6875;8.9375;
1441976017894244;0.47174072265625;-0.5467529296875;-0.5714111328125;-0.3900146484375;16.490654371701922;13.973597103373594;0.7811608446554464;-0.92822265625;0.24365234375;-0.04931640625;-2.5625;-1.0;9.0625;
1441976017917245;0.4710693359375;-0.547119140625;-0.572265625;-0.3890380859375;16.47468059419416;13.963764008283173;0.7736839782577525;-0.93701171875;0.2392578125;-0.04443359375;-3.3125;-0.8125;9.0625;
1441976017938246;0.4703369140625;-0.5477294921875;-0.5728759765625;-0.38812255859375;16.458226980557562;13.958811730768492;0.7693270312892749;-0.9375;0.24072265625;-0.0439453125;-2.6875;-0.625;9.0625;
1441976017954247;0.4696044921875;-0.54833984375;-0.57342529296875;-0.3873291015625;16.442897676460625;13.954004028425338;0.7645766855845367;-0.93310546875;0.2412109375;-0.05126953125;-1.375;-0.5;8.9375;
1441976017977249;0.46893310546875;-0.5489501953125;-0.57391357421875;-0.38653564453125;16.428096226445923;13.950807072712934;0.7614371076828821;-0.93798828125;0.24560546875;-0.0498046875;-0.375;-0.6875;8.625;
1441976017998250;0.46832275390625;-0.54949951171875;-0.57440185546875;-0.3858642578125;16.414888582587185;13.946968224898557;0.7576365235105371;-0.93408203125;0.25048828125;-0.05419921875;-0.1875;-0.625;8.0625;
1441976018015251;0.4677734375;-0.54986572265625;-0.5748291015625;-0.38531494140625;16.404220056690463;13.942165527351893;0.75305796596954;-0.9365234375;0.2490234375;-0.05078125;-0.5;-0.5;7.4375;
1441976018037252;0.46734619140625;-0.55023193359375;-0.57513427734375;-0.384765625;16.39461693341215;13.940390117982425;0.7515067648339648;-0.9345703125;0.25048828125;-0.04296875;-0.5625;-0.4375;6.4375;
1441976018058253;0.467041015625;-0.550537109375;-0.575439453125;-0.38427734375;16.386471290256978;13.938980693988361;0.7506551110383839;-0.935546875;0.248046875;-0.04736328125;-0.5625;-0.25;5.8125;
1441976018075254;0.46685791015625;-0.55078125;-0.57574462890625;-0.3837890625;16.379327981048025;13.93831258418822;0.7510642872918522;-0.93505859375;0.2529296875;-0.04345703125;-0.625;0.0625;4.9375;
1441976018097256;0.46685791015625;-0.55078125;-0.5760498046875;-0.38330078125;16.37459735467608;13.937310319033198;0.752383578282892;-0.93310546875;0.25927734375;-0.04638671875;-1.3125;0.375;4.0;
1441976018118257;0.46697998046875;-0.55078125;-0.5762939453125;-0.3828125;16.37072067136711;13.938416392631451;0.7559781114018076;-0.93310546875;0.25390625;-0.041015625;-2.125;0.625;3.25;
1441976018135258;0.46722412109375;-0.55059814453125;-0.57659912109375;-0.38238525390625;16.368815287426543;13.937907092722378;0.7588293544259854;-0.93408203125;0.25830078125;-0.0458984375;-2.8125;0.9375;2.625;
1441976018159259;0.4674072265625;-0.5504150390625;-0.5767822265625;-0.38201904296875;16.367477077049344;13.93799358891578;0.7615909409750329;-0.93505859375;0.25244140625;-0.03955078125;-3.0625;1.1875;2.0625;
1441976018180260;0.46771240234375;-0.55035400390625;-0.576904296875;-0.381591796875;16.36580396364533;13.941697430131496;0.7679501202291095;-0.93212890625;0.2509765625;-0.03564453125;-2.6875;1.375;1.625;
1441976018194261;0.468017578125;-0.55023193359375;-0.57696533203125;-0.3812255859375;16.365161886218154;13.945262687022197;0.7740045187091207;-0.9306640625;0.25390625;-0.0439453125;-2.25;1.625;1.375;
1441976018225263;0.46844482421875;-0.550048828125;-0.57696533203125;-0.38092041015625;16.366185344835916;13.949997241327104;0.7813945430555591;-0.93505859375;0.259765625;-0.04296875;-2.375;1.75;0.875;
1441976018238264;0.46881103515625;-0.54986572265625;-0.57708740234375;-0.38067626953125;16.36692250637119;13.952080396666448;0.786112604636332;-0.93505859375;0.25390625;-0.044921875;-2.5625;1.75;0.25;
1441976018254265;0.46923828125;-0.5496826171875;-0.57708740234375;-0.38043212890625;16.368394863228744;13.956452588150569;0.7929534438097634;-0.93701171875;0.2626953125;-0.03759765625;-2.375;1.8125;-0.125;
1441976018277266;0.46966552734375;-0.54937744140625;-0.57708740234375;-0.38031005859375;16.3715144479008;13.958964194922494;0.7979335731970543;-0.935546875;0.2626953125;-0.04052734375;-2.0625;1.625;-0.5625;
1441976018298267;0.4700927734375;-0.54913330078125;-0.5770263671875;-0.38018798828125;16.374474071483984;13.962873306036206;0.8039584606021635;-0.9326171875;0.2607421875;-0.0400390625;-2.125;1.625;-1.125;
1441976018314268;0.4705810546875;-0.5487060546875;-0.57708740234375;-0.38006591796875;16.378427807875827;13.964127472324522;0.8083861165337783;-0.93310546875;0.2646484375;-0.03955078125;-2.1875;1.5625;-1.5625;
1441976018337269;0.47113037109375;-0.54827880859375;-0.57720947265625;-0.3798828125;16.38202438249338;13.965604950359163;0.8135550129805779;-0.92919921875;0.26318359375;-0.03515625;-2.75;1.5;-1.875;
1441976018358271;0.4716796875;-0.54779052734375;-0.5772705078125;-0.37969970703125;16.38619637371617;13.967363612827656;0.819026240514191;-0.9228515625;0.26171875;-0.0380859375;-3.25;1.5;-2.0625;
1441976018375271;0.47222900390625;-0.54730224609375;-0.57745361328125;-0.37957763671875;16.390411182324055;13.967103943928432;0.8226224795204905;-0.92578125;0.2626953125;-0.0390625;-3.5625;1.375;-2.25;
1441976018397273;0.47271728515625;-0.54681396484375;-0.5775146484375;-0.37957763671875;16.395651656016792;13.967098216962974;0.8256017933058459;-0.9287109375;0.26025390625;-0.04052734375;-3.625;0.875;-2.25;
1441976018418274;0.47308349609375;-0.54644775390625;-0.57745361328125;-0.3797607421875;16.401328242327768;13.967429163629212;0.8273203826429032;-0.93115234375;0.25927734375;-0.04248046875;-3.0;0.375;-2.3125;
1441976018434275;0.47320556640625;-0.5462646484375;-0.577392578125;-0.37994384765625;16.40464999471337;13.966775078428558;0.8268314217731264;-0.9326171875;0.255859375;-0.04443359375;-1.5;-0.1875;-2.1875;
1441976018457276;0.47332763671875;-0.54608154296875;-0.57720947265625;-0.38031005859375;16.409770103852452;13.966655462383455;0.8259848427493157;-0.939453125;0.26806640625;-0.05078125;-0.125;-0.6875;-2.25;
1441976018478277;0.47332763671875;-0.5458984375;-0.57708740234375;-0.38079833984375;16.41497788738464;13.96357070131479;0.8216335970075065;-0.9453125;0.2646484375;-0.0517578125;0.5;-1.375;-2.4375;
1441976018494278;0.4732666015625;-0.54571533203125;-0.5770263671875;-0.38128662109375;16.419660339463814;13.95894000657159;0.8157366171274567;-0.9462890625;0.2685546875;-0.05078125;0.8125;-2.0625;-2.5;
1441976018517280;0.47314453125;-0.54547119140625;-0.5770263671875;-0.3817138671875;16.42372302488802;13.952568009207173;0.8084727749981672;-0.94580078125;0.26611328125;-0.046875;1.0;-2.25;-2.4375;
1441976018538281;0.4730224609375;-0.54534912109375;-0.5770263671875;-0.38214111328125;16.42704050543916;13.94731933007388;0.8019581074975934;-0.9365234375;0.26220703125;-0.041015625;0.875;-2.25;-1.8125;
1441976018554282;0.47283935546875;-0.54522705078125;-0.5770263671875;-0.3824462890625;16.429121844965845;13.942155508275428;0.795737300442075;-0.93701171875;0.255859375;-0.0419921875;0.75;-2.125;-1.125;
1441976018577283;0.47271728515625;-0.5452880859375;-0.57696533203125;-0.38262939453125;16.429709802265272;13.941039460718471;0.7933772257404765;-0.93896484375;0.25439453125;-0.037109375;0.8125;-1.4375;-0.375;
1441976018598284;0.472412109375;-0.5455322265625;-0.576904296875;-0.3826904296875;16.42733486828608;13.940422473890068;0.7908331659843175;-0.9365234375;0.2509765625;-0.04052734375;1.125;-0.9375;0.375;
1441976018614285;0.47222900390625;-0.5458984375;-0.57672119140625;-0.3826904296875;16.424825228043627;13.944403222017677;0.7926997278573715;-0.931640625;0.25927734375;-0.0400390625;1.9375;-0.375;1.0;
1441976018637286;0.4720458984375;-0.5462646484375;-0.57666015625;-0.38250732421875;16.420514953228878;13.947865522349923;0.794939394953387;-0.9375;0.26416015625;-0.044921875;2.0625;0.1875;1.25;
1441976018658288;0.4720458984375;-0.54638671875;-0.57666015625;-0.38226318359375;16.41794716818098;13.950580556625138;0.7980282157433025;-0.9306640625;0.267578125;-0.0498046875;1.125;0.5;1.3125;
1441976018675289;0.4720458984375;-0.54644775390625;-0.57666015625;-0.38226318359375;16.417579212589136;13.951156765643397;0.7984175261054911;-0.92919921875;0.26220703125;-0.04443359375;-0.4375;0.75;1.0625;
1441976018697290;0.47210693359375;-0.54638671875;-0.57666015625;-0.38226318359375;16.418261354180615;13.951255508734262;0.7988686696818611;-0.93115234375;0.25732421875;-0.0537109375;-0.8125;0.8125;0.75;
1441976018720291;0.47210693359375;-0.54644775390625;-0.57659912109375;-0.3822021484375;16.417647036447395;13.953061005695517;0.8005086648136838;-0.9326171875;0.2568359375;-0.04248046875;-0.625;0.875;0.5625;
1441976018734292;0.47210693359375;-0.54644775390625;-0.57659912109375;-0.3822021484375;16.417647036447395;13.953061005695517;0.8005086648136838;-0.9345703125;0.2626953125;-0.0546875;0.0;0.8125;0.25;
1441976018757293;0.47216796875;-0.54669189453125;-0.5762939453125;-0.38226318359375;16.418003195722093;13.959854057252869;0.8057051894936411;-0.93994140625;0.25537109375;-0.0546875;0.8125;0.5;0.125;
1441976018779295;0.47216796875;-0.546875;-0.5760498046875;-0.38238525390625;16.418658414858275;13.964170448837049;0.8084250989859192;-0.93603515625;0.2548828125;-0.05419921875;1.4375;0.4375;0.0625;
1441976018794295;0.47216796875;-0.547119140625;-0.57574462890625;-0.38250732421875;16.41915206620623;13.969905740912447;0.8122115385275698;-0.93603515625;0.25048828125;-0.04736328125;1.5625;0.375;0.125;
1441976018817297;0.4722900390625;-0.54730224609375;-0.57537841796875;-0.38262939453125;16.420842570519117;13.977277321086447;0.8179867260702799;-0.9345703125;0.2548828125;-0.0478515625;1.75;0.75;0.125;
1441976018840298;0.47235107421875;-0.54754638671875;-0.5750732421875;-0.3826904296875;16.42117539830678;13.984086520435783;0.8231995783665974;-0.935546875;0.248046875;-0.0458984375;1.75;1.0625;-0.0625;
1441976018856299;0.47247314453125;-0.54779052734375;-0.57476806640625;-0.3826904296875;16.42134887682463;13.991961429302302;0.8298306038577965;-0.9375;0.2548828125;-0.0478515625;1.75;1.375;-0.0625;
1441976018877300;0.47259521484375;-0.5479736328125;-0.574462890625;-0.3826904296875;16.421884350846373;13.999271941534786;0.8360838548617854;-0.9375;0.2548828125;-0.048828125;1.4375;1.375;-0.1875;
1441976018899301;0.47283935546875;-0.548095703125;-0.57415771484375;-0.3826904296875;16.42339707262172;14.00739398303333;0.8436669031135563;-0.93408203125;0.2578125;-0.04736328125;1.1875;1.6875;-0.375;
1441976018916302;0.47314453125;-0.54815673828125;-0.5738525390625;-0.3826904296875;16.425576835619808;14.0156562739649;0.85174263711536;-0.9404296875;0.25537109375;-0.04833984375;0.5625;1.625;-0.6875;
1441976018937304;0.47332763671875;-0.5482177734375;-0.573486328125;-0.3828125;16.428266817541232;14.022666688742813;0.8576958172392687;-0.93798828125;0.25146484375;-0.05322265625;0.625;1.4375;-0.9375;
1441976018959305;0.47357177734375;-0.54833984375;-0.5731201171875;-0.38299560546875;16.43134203210054;14.030579285093337;0.864344114779216;-0.93994140625;0.25146484375;-0.0498046875;1.0;1.375;-0.9375;
1441976018976306;0.4737548828125;-0.54852294921875;-0.57269287109375;-0.38311767578125;16.433465572049677;14.039617392088715;0.8717862063611651;-0.9384765625;0.24609375;-0.048828125;1.5625;1.375;-1.0;
1441976018997307;0.47393798828125;-0.54864501953125;-0.57232666015625;-0.38323974609375;16.435752687617864;14.047256454497383;0.8781816918576895;-0.9404296875;0.2490234375;-0.05322265625;1.75;1.4375;-1.0625;
1441976019020308;0.4742431640625;-0.54864501953125;-0.572021484375;-0.38330078125;16.43871818766236;14.054707457667035;0.8854463173481469;-0.9384765625;0.255859375;-0.05322265625;1.25;1.375;-1.375;
1441976019036309;0.47454833984375;-0.548583984375;-0.57183837890625;-0.38330078125;16.441187591812913;14.060262103880103;0.891519334207735;-0.93505859375;0.2587890625;-0.05078125;0.4375;1.5625;-1.6875;
1441976019057310;0.47491455078125;-0.54840087890625;-0.5716552734375;-0.3834228515625;16.445639273562243;14.064692171025314;0.8966336920192399;-0.93505859375;0.2548828125;-0.04736328125;-0.3125;1.4375;-1.875;
1441976019087312;0.4752197265625;-0.54833984375;-0.57135009765625;-0.383544921875;16.44942645105784;14.071300572429045;0.903055711218025;-0.94091796875;0.25244140625;-0.048828125;-0.3125;1.375;-2.0625;
1441976019096313;0.47552490234375;-0.54827880859375;-0.57098388671875;-0.3837890625;16.4543382755584;14.078082519485072;0.9091126139833958;-0.9365234375;0.25244140625;-0.052734375;0.3125;1.1875;-2.3125;
1441976019117314;0.47576904296875;-0.54827880859375;-0.570556640625;-0.38409423828125;16.45923165300146;14.085257423368077;0.9148579535474568;-0.943359375;0.24951171875;-0.0517578125;1.125;1.0;-2.375;
1441976019140315;0.4759521484375;-0.5482177734375;-0.5703125;-0.38433837890625;16.46315086305208;14.088913722995898;0.917789399788859;-0.9453125;0.25634765625;-0.05224609375;1.375;0.9375;-2.5625;
1441976019156316;0.4761962890625;-0.548095703125;-0.57000732421875;-0.38470458984375;16.468875128139246;14.092902901012456;0.9208675755344603;-0.94970703125;0.2578125;-0.05224609375;1.0;0.4375;-2.625;
1441976019177317;0.476318359375;-0.5479736328125;-0.56976318359375;-0.385009765625;16.47334787742952;14.094947292735574;0.9220212461006616;-0.9443359375;0.25146484375;-0.0546875;0.8125;-0.25;-2.75;
1441976019199319;0.4764404296875;-0.5478515625;-0.56964111328125;-0.38531494140625;16.477430789311168;14.095215338212672;0.9217307627182241;-0.935546875;0.2509765625;-0.05322265625;0.8125;-0.125;-2.5;
1441976019221320;0.4765625;-0.5477294921875;-0.56951904296875;-0.38543701171875;16.480106934858274;14.09659922674773;0.9231146512532826;-0.935546875;0.2548828125;-0.04931640625;0.6875;-0.125;-2.1875;
1441976019236321;0.476806640625;-0.54766845703125;-0.5693359375;-0.385498046875;16.48270990025161;14.101273710200923;0.9279551951111406;-0.939453125;0.25390625;-0.05224609375;0.25;0.0625;-1.875;
1441976019259322;0.47698974609375;-0.547607421875;-0.5692138671875;-0.3856201171875;16.48529342085495;14.103962920743655;0.9306243030357437;-0.939453125;0.25048828125;-0.06005859375;-0.125;0.3125;-1.625;
1441976019281323;0.47698974609375;-0.547607421875;-0.5692138671875;-0.3856201171875;16.48529342085495;14.103962920743655;0.9306243030357437;-0.9365234375;0.2421875;-0.05517578125;-0.125;0.4375;-1.125;
1441976019296324;0.47698974609375;-0.547607421875;-0.5692138671875;-0.3856201171875;16.48529342085495;14.103962920743655;0.9306243030357437;-0.93896484375;0.244140625;-0.05126953125;0.5;0.375;-0.6875;
1441976019319325;0.47698974609375;-0.547607421875;-0.56915283203125;-0.3856201171875;16.485487270464308;14.104861268843209;0.9313566002854455;-0.93603515625;0.24755859375;-0.05712890625;0.8125;0.5;-0.5625;
1441976019341327;0.47698974609375;-0.547607421875;-0.56915283203125;-0.38555908203125;16.485017756593667;14.10523201511143;0.9319135000216476;-0.93701171875;0.24853515625;-0.05908203125;0.25;0.3125;-0.6875;
1441976019357328;0.47723388671875;-0.54754638671875;-0.56903076171875;-0.38568115234375;16.48788979622963;14.108666158427994;0.9354935807807202;-0.935546875;0.25146484375;-0.05810546875;-0.0625;0.3125;-0.9375;
1441976019379329;0.47747802734375;-0.54736328125;-0.56890869140625;-0.38580322265625;16.49152619605101;14.110999719375993;0.9383453380072383;-0.94140625;0.24462890625;-0.0625;-0.375;0.0625;-1.375;
1441976019401330;0.4776611328125;-0.54718017578125;-0.5687255859375;-0.38604736328125;16.496004716578213;14.112768846835177;0.9399283169446216;-0.93896484375;0.24560546875;-0.0615234375;-0.375;-0.1875;-1.875;
1441976019416331;0.4779052734375;-0.54705810546875;-0.5684814453125;-0.38629150390625;16.500580455658078;14.11675724331746;0.9435444487434634;-0.93701171875;0.2431640625;-0.0576171875;0.0;-0.25;-2.0625;
1441976019439332;0.47808837890625;-0.54693603515625;-0.5682373046875;-0.3865966796875;16.50533560502243;14.119650482560349;0.9457133471936717;-0.9306640625;0.23974609375;-0.05615234375;0.5;-0.25;-2.3125;
1441976019461334;0.4783935546875;-0.54681396484375;-0.5679931640625;-0.38677978515625;16.509723896603873;14.124803456729895;0.950846262214402;-0.93408203125;0.24169921875;-0.0595703125;0.6875;-0.125;-2.25;
1441976019476334;0.47882080078125;-0.546630859375;-0.5677490234375;-0.38690185546875;16.514594936377687;14.131305202065683;0.9580321006360306;-0.9375;0.2421875;-0.0625;-0.0625;0.1875;-2.5;
1441976019499336;0.47918701171875;-0.54644775390625;-0.56744384765625;-0.38714599609375;16.520305179696688;14.13727356747729;0.9639803687031052;-0.9384765625;0.23779296875;-0.0673828125;-0.5625;0.3125;-2.5625;
1441976019521337;0.47955322265625;-0.54632568359375;-0.5670166015625;-0.38739013671875;16.526000278735292;14.145700339667796;0.9718690302602276;-0.939453125;0.23486328125;-0.060546875;-0.25;0.375;-2.6875;
1441976019536338;0.47991943359375;-0.54632568359375;-0.5665283203125;-0.38763427734375;16.531095081214623;14.156236040799831;0.9813285923624708;-0.94091796875;0.23095703125;-0.0634765625;0.6875;0.6875;-2.625;
1441976019559339;0.480224609375;-0.54632568359375;-0.566162109375;-0.38787841796875;16.53551818481922;14.164198539291903;0.9883810997006655;-0.94140625;0.23779296875;-0.06591796875;1.3125;1.0625;-2.6875;
1441976019581340;0.480712890625;-0.54620361328125;-0.56573486328125;-0.3880615234375;16.541261153771753;14.174727703683722;0.9988903274978611;-0.94189453125;0.23828125;-0.05859375;1.0;1.25;-2.75;
1441976019596341;0.48126220703125;-0.54608154296875;-0.56536865234375;-0.38812255859375;16.546128614721123;14.185906503694502;1.0107531090385222;-0.93896484375;0.232421875;-0.0625;0.25;1.625;-2.875;
1441976019619343;0.48187255859375;-0.5458984375;-0.56494140625;-0.38818359375;16.55182247783049;14.198346699422528;1.0240631709128418;-0.93701171875;0.23046875;-0.0634765625;-0.5;1.8125;-3.0;
1441976019641344;0.48248291015625;-0.5457763671875;-0.56451416015625;-0.3883056640625;16.557570136910915;14.21107437213279;1.037288659846377;-0.935546875;0.228515625;-0.06494140625;-0.625;2.125;-3.125;
1441976019656345;0.4830322265625;-0.54571533203125;-0.56396484375;-0.388427734375;16.562978983020177;14.225577485177455;1.0516057984033889;-0.9384765625;0.22998046875;-0.0625;-0.125;2.25;-3.3125;
1441976019679346;0.483642578125;-0.54559326171875;-0.56329345703125;-0.38873291015625;16.570804679293808;14.24131549261649;1.0666200141146018;-0.9423828125;0.2314453125;-0.06689453125;0.5;2.25;-3.375;
1441976019701347;0.48419189453125;-0.54559326171875;-0.56256103515625;-0.38916015625;16.578661407078407;14.257760151720415;1.081265481906223;-0.94775390625;0.216796875;-0.0693359375;1.125;2.0625;-3.5625;
1441976019716348;0.48455810546875;-0.5457763671875;-0.561767578125;-0.3896484375;16.585141908268806;14.274168511384822;1.0944677520355222;-0.94873046875;0.212890625;-0.06689453125;2.0;2.0625;-3.4375;
1441976019739349;0.48492431640625;-0.5460205078125;-0.56085205078125;-0.39019775390625;16.592005601000842;14.292875963676513;1.1092660934421248;-0.94091796875;0.21044921875;-0.068359375;3.5;2.125;-3.125;
1441976019761351;0.4852294921875;-0.54632568359375;-0.5599365234375;-0.39068603515625;16.59767931822616;14.311792014341027;1.1241074032284473;-0.9375;0.2080078125;-0.0712890625;4.0;2.125;-2.9375;
1441976019778352;0.48553466796875;-0.54656982421875;-0.55908203125;-0.39111328125;16.603059783004095;14.329656168161799;1.1384344345895658;-0.93603515625;0.21533203125;-0.0732421875;4.1875;2.0;-2.8125;
1441976019799353;0.4859619140625;-0.5467529296875;-0.5582275390625;-0.39154052734375;16.60930578439895;14.348805085832335;1.1545647405430834;-0.935546875;0.212890625;-0.07421875;3.8125;2.1875;-3.1875;
1441976019821354;0.48651123046875;-0.5469970703125;-0.55718994140625;-0.39202880859375;16.616555366153193;14.373046717213441;1.1752511907186227;-0.92431640625;0.21337890625;-0.068359375;3.375;2.5;-3.8125;
1441976019838355;0.48699951171875;-0.54754638671875;-0.5557861328125;-0.39263916015625;16.62334277978113;14.404724450481403;1.2009120706969925;-0.91064453125;0.2041015625;-0.06884765625;3.9375;3.5;-4.375;
1441976019859356;0.48748779296875;-0.5487060546875;-0.55389404296875;-0.39312744140625;16.626096074821604;14.450599291116113;1.2379567230792217;-0.89208984375;0.2060546875;-0.06640625;7.0;5.125;-4.9375;
1441976019881358;0.48828125;-0.54974365234375;-0.55218505859375;-0.39312744140625;16.626164559730558;14.499302421993336;1.2810138017657349;-0.8681640625;0.22412109375;-0.07568359375;9.8125;7.375;-5.5625;
1441976019898359;0.48968505859375;-0.55035400390625;-0.550537109375;-0.39276123046875;16.627906088684348;14.554182458339909;1.3344866537673419;-0.84716796875;0.23681640625;-0.0751953125;7.0;9.25;-6.875;
1441976019920360;0.4915771484375;-0.55084228515625;-0.54888916015625;-0.39202880859375;16.628686214712925;14.616978849976194;1.3986902297485915;-0.8291015625;0.23681640625;-0.08935546875;3.125;10.5625;-8.4375;
1441976019943361;0.49395751953125;-0.5511474609375;-0.5472412109375;-0.390869140625;16.62813484170458;14.68739308509618;1.4736951702078875;-0.8271484375;0.24951171875;-0.1015625;0.125;12.3125;-10.125;
1441976019958362;0.4969482421875;-0.55047607421875;-0.5460205078125;-0.3897705078125;16.635275794486613;14.75273259567107;1.5492355419731354;-0.86962890625;0.27587890625;-0.1328125;-2.4375;13.125;-12.625;
1441976019979363;0.500244140625;-0.54913330078125;-0.54498291015625;-0.388916015625;16.64902908903151;14.81524720179339;1.6245769801453007;-0.87451171875;0.25390625;-0.12744140625;-8.3125;12.1875;-14.9375;
1441976020001364;0.50347900390625;-0.5479736328125;-0.54339599609375;-0.38861083984375;16.66584667446917;14.887764051767393;1.7060302455363558;-0.85400390625;0.20751953125;-0.11669921875;-10.875;11.125;-15.5;
1441976020018365;0.50628662109375;-0.54730224609375;-0.54144287109375;-0.38861083984375;16.680084122588827;14.964111298216991;1.7867417706464268;-0.84130859375;0.16796875;-0.11474609375;-7.375;11.4375;-15.5;
1441976020039367;0.50897216796875;-0.546875;-0.539306640625;-0.38873291015625;16.692460976004355;15.04455167112192;1.8696024716796071;-0.82080078125;0.166015625;-0.10546875;-2.375;12.125;-15.125;
1441976020061368;0.51141357421875;-0.54681396484375;-0.5367431640625;-0.38909912109375;16.70294290039409;15.131904456613624;1.9556954771070938;-0.802734375;0.15283203125;-0.10400390625;-0.4375;12.5625;-14.3125;
1441976020078369;0.513427734375;-0.54730224609375;-0.5338134765625;-0.38983154296875;16.7107201244008;15.222386904038924;2.0399794981218706;-0.80126953125;0.1396484375;-0.109375;3.25;12.9375;-13.5;
1441976020099370;0.51507568359375;-0.54815673828125;-0.53057861328125;-0.390869140625;16.71671179967632;15.314778309807686;2.122308481628167;-0.8037109375;0.14697265625;-0.1162109375;8.0625;13.0;-13.4375;
1441976020121371;0.51678466796875;-0.54864501953125;-0.52734375;-0.392333984375;16.727998887073618;15.408046742060481;2.205497427875972;-0.79296875;0.15380859375;-0.12890625;11.75;11.5;-13.6875;
1441976020138372;0.51806640625;-0.5496826171875;-0.52337646484375;-0.3944091796875;16.738577524605756;15.511719130039221;2.2924164459481897;-0.77587890625;0.10400390625;-0.11279296875;12.0625;10.875;-13.5;
1441976020159374;0.51849365234375;-0.5517578125;-0.5186767578125;-0.39715576171875;16.74479298026364;15.619386348551465;2.373827735216037;-0.74169921875;0.0791015625;-0.10791015625;18.25;11.25;-12.75;
1441976020181375;0.51800537109375;-0.55499267578125;-0.5130615234375;-0.400634765625;16.746174115076464;15.732992920715969;2.4504539825232072;-0.71875;0.0673828125;-0.09521484375;28.0;12.3125;-10.6875;
1441976020198376;0.5162353515625;-0.55926513671875;-0.507080078125;-0.404541015625;16.741611291226793;15.83354914936938;2.5050842835089875;-0.71044921875;0.06201171875;-0.103515625;38.0;12.0;-8.625;
1441976020220377;0.51416015625;-0.56353759765625;-0.5015869140625;-0.40814208984375;16.734232853439373;15.917778961541027;2.5448005677517367;-0.72509765625;0.12744140625;-0.12255859375;47.25;9.625;-7.9375;
1441976020241378;0.51275634765625;-0.56634521484375;-0.4970703125;-0.41156005859375;16.736899323801154;15.993329659838333;2.5853341952691786;-0.78369140625;0.20849609375;-0.14697265625;46.5;7.5625;-10.1875;
1441976020258379;0.51116943359375;-0.56805419921875;-0.4932861328125;-0.4156494140625;16.75420906153783;16.054725516190132;2.614527375434843;-0.81787109375;0.18017578125;-0.1640625;36.5;3.1875;-12.0;
1441976020279380;0.50897216796875;-0.57000732421875;-0.4892578125;-0.42041015625;16.775073502376486;16.114112925930844;2.636621740764123;-0.86474609375;0.12255859375;-0.12841796875;33.0;-1.25;-10.625;
1441976020301382;0.505615234375;-0.57293701171875;-0.484619140625;-0.42584228515625;16.79386821670381;16.168479502955897;2.6438650443075553;-0.8505859375;0.087890625;-0.1162109375;37.875;-3.375;-8.5625;
1441976020324383;0.5015869140625;-0.57623291015625;-0.47943115234375;-0.43194580078125;16.815088788093504;16.225602125825787;2.6473748925921434;-0.84521484375;0.09375;-0.10595703125;47.1875;-3.75;-5.875;
1441976020339384;0.496337890625;-0.580322265625;-0.4737548828125;-0.438720703125;16.836150343567734;16.273553652357656;2.632584205764192;-0.86083984375;0.0576171875;-0.09912109375;53.75;-4.9375;-3.75;
1441976020361385;0.4903564453125;-0.58544921875;-0.4678955078125;-0.44488525390625;16.844654580036657;16.307729410707733;2.6001338710832185;-0.8291015625;0.05419921875;-0.072265625;62.3125;-5.5625;-0.5;
1441976020378386;0.48455810546875;-0.59075927734375;-0.4619140625;-0.45050048828125;16.846906131979143;16.345056284145812;2.5720406829821236;-0.80322265625;0.0869140625;-0.04638671875;66.6875;-1.125;3.125;
1441976020399387;0.47845458984375;-0.59637451171875;-0.45587158203125;-0.45574951171875;16.84404046716524;16.375847728898417;2.5364772825615813;-0.82421875;0.087890625;-0.0478515625;65.5;2.375;4.5;
1441976020421389;0.471923828125;-0.60211181640625;-0.450439453125;-0.4603271484375;16.836053240903283;16.382664251994676;2.478973630066405;-0.86865234375;0.0966796875;-0.05322265625;66.375;3.9375;6.5625;
1441976020444390;0.4661865234375;-0.607177734375;-0.44659423828125;-0.4632568359375;16.82102424246775;16.364863461123313;2.410351925059696;-0.89306640625;0.13623046875;-0.064453125;64.3125;3.625;9.375;
1441976020459391;0.4620361328125;-0.61090087890625;-0.44439697265625;-0.46466064453125;16.80432571198596;16.3377516219718;2.350014362107296;-0.8916015625;0.1708984375;-0.0810546875;50.6875;3.9375;10.75;
1441976020481392;0.458740234375;-0.61383056640625;-0.44305419921875;-0.46527099609375;16.787293434188044;16.307110864299638;2.295627705494333;-0.884765625;0.15625;-0.08544921875;33.1875;5.0625;11.625;
1441976020504393;0.45556640625;-0.6165771484375;-0.442138671875;-0.46563720703125;16.76977270577914;16.270386424396168;2.237983015138323;-0.8955078125;0.1171875;-0.08935546875;23.125;5.625;13.25;
1441976020519394;0.45233154296875;-0.619384765625;-0.4415283203125;-0.4656982421875;16.749186012969766;16.227011171680736;2.1750817089847954;-0.92041015625;0.11083984375;-0.09814453125;20.0;5.125;15.25;
1441976020541395;0.44891357421875;-0.62176513671875;-0.4417724609375;-0.465576171875;16.730532551668567;16.164773961612916;2.0970056773598222;-0.9404296875;0.119140625;-0.125;18.375;3.5625;17.25;
1441976020564397;0.445556640625;-0.62384033203125;-0.44232177734375;-0.465576171875;16.714717463589114;16.099539144832185;2.0175550909386297;-0.953125;0.12646484375;-0.12353515625;14.4375;1.0;19.0625;
1441976020579398;0.441650390625;-0.6260986328125;-0.442626953125;-0.4659423828125;16.69951343688105;16.03259542163237;1.9324685604173517;-0.95068359375;0.10009765625;-0.123046875;12.1875;-1.25;21.0;
1441976020601399;0.43731689453125;-0.62860107421875;-0.4427490234375;-0.46649169921875;16.682834242979965;15.964693182274653;1.8433859946830164;-0.96142578125;0.09521484375;-0.1240234375;15.9375;-2.8125;22.6875;
1441976020624400;0.4326171875;-0.63140869140625;-0.44256591796875;-0.46722412109375;16.664172375698563;15.899559859659576;1.753681522363221;-0.9541015625;0.09619140625;-0.13330078125;18.6875;-4.0625;24.0625;
1441976020639401;0.4273681640625;-0.63482666015625;-0.4425048828125;-0.46759033203125;16.636221076335023;15.827632075489504;1.6551876022456957;-0.97021484375;0.0869140625;-0.14501953125;21.5625;-4.9375;26.3125;
1441976020661402;0.42242431640625;-0.637939453125;-0.44305419921875;-0.46728515625;16.603737646328053;15.752168616119432;1.5585446827947624;-1.00537109375;0.12841796875;-0.1748046875;23.1875;-5.1875;28.875;
1441976020684404;0.41827392578125;-0.64013671875;-0.44476318359375;-0.4664306640625;16.572597565514123;15.668900684519993;1.4640486818687122;-1.08154296875;0.1796875;-0.216796875;18.0;-6.25;28.75;
1441976020699404;0.4154052734375;-0.64105224609375;-0.44769287109375;-0.46490478515625;16.545073224856313;15.582214349237526;1.3790919446416527;-1.1298828125;0.1943359375;-0.23779296875;7.75;-8.5;28.0625;
1441976020721406;0.41351318359375;-0.64080810546875;-0.45074462890625;-0.46392822265625;16.53136660657508;15.503826807249078;1.307506671524341;-1.15380859375;0.201171875;-0.26611328125;-5.375;-10.75;25.875;
1441976020745407;0.41143798828125;-0.6405029296875;-0.45294189453125;-0.464111328125;16.527706205210016;15.435784074977821;1.2401639335034589;-1.1611328125;0.13671875;-0.265625;-11.3125;-14.0625;23.5;
1441976020760408;0.408203125;-0.64141845703125;-0.45330810546875;-0.46533203125;16.523098948511;15.386736801000907;1.1765094849160782;-1.14599609375;0.08740234375;-0.25634765625;-5.5625;-16.625;22.25;
1441976020781409;0.40423583984375;-0.64312744140625;-0.4522705078125;-0.46746826171875;16.52036509252599;15.353312560075489;1.1173018439712719;-1.10400390625;0.09619140625;-0.2626953125;9.8125;-17.3125;20.9375;
1441976020797410;0.3997802734375;-0.6456298828125;-0.44989013671875;-0.4700927734375;16.51672926738877;15.338847075102578;1.0679290273399489;-1.087890625;0.103515625;-0.26123046875;20.9375;-17.0;18.6875;
1441976020820411;0.39501953125;-0.64862060546875;-0.4471435546875;-0.47259521484375;16.50828901858272;15.32971560814184;1.0207952913519343;-1.06689453125;0.11328125;-0.26318359375;30.75;-15.875;16.75;
1441976020841413;0.39111328125;-0.6512451171875;-0.445068359375;-0.4742431640625;16.496376998262903;15.321841265913807;0.9828919726903953;-1.0234375;0.16552734375;-0.26806640625;34.4375;-14.0625;13.9375;
1441976020864414;0.3887939453125;-0.65252685546875;-0.44390869140625;-0.4754638671875;16.49310290333278;15.313735062166542;0.95727479296943;-0.99169921875;0.2099609375;-0.2744140625;26.8125;-12.25;10.875;
1441976020880415;0.38720703125;-0.65313720703125;-0.443115234375;-0.4766845703125;16.49593717082972;15.305336709756356;0.9366068182976448;-0.97314453125;0.18017578125;-0.26171875;14.625;-11.75;7.4375;
1441976020901416;0.38543701171875;-0.654296875;-0.4417724609375;-0.47772216796875;16.493891037826792;15.30739513858995;0.9230974999292236;-0.95849609375;0.1435546875;-0.23779296875;9.8125;-10.9375;6.375;
1441976020917417;0.3841552734375;-0.6552734375;-0.44061279296875;-0.47857666015625;16.492702585277307;15.312407072979852;0.915639524657718;-0.96337890625;0.1806640625;-0.25390625;13.1875;-9.25;4.8125;
1441976020940418;0.38330078125;-0.65594482421875;-0.43963623046875;-0.47918701171875;16.492492385939034;15.319055689570948;0.9131558116671901;-0.984375;0.19873046875;-0.25;10.75;-7.625;2.5625;
1441976020961419;0.382568359375;-0.65625;-0.4383544921875;-0.48046875;16.50141674433152;15.327814048579672;0.9114445520810994;-1.013671875;0.19775390625;-0.26708984375;7.0625;-7.8125;1.9375;
1441976020978420;0.38104248046875;-0.6572265625;-0.43597412109375;-0.48260498046875;16.51262708614704;15.345262170644983;0.908508942434251;-1.0322265625;0.1376953125;-0.265625;7.9375;-9.6875;2.375;
1441976021000422;0.37835693359375;-0.6593017578125;-0.43218994140625;-0.4852294921875;16.519545680828227;15.375482029516807;0.9060607741208617;-1.05322265625;0.095703125;-0.25927734375;17.6875;-10.375;4.5625;
1441976021021423;0.37457275390625;-0.6624755859375;-0.427490234375;-0.48797607421875;16.518382366508522;15.4123391144414;0.9006530351948662;-1.068359375;0.1103515625;-0.25732421875;29.9375;-8.4375;5.1875;
1441976021044424;0.37042236328125;-0.66583251953125;-0.4222412109375;-0.4912109375;16.520061728392484;15.452882001776855;0.894295643925352;-1.06982421875;0.15966796875;-0.2626953125;40.1875;-6.8125;5.5625;
1441976021060425;0.36566162109375;-0.66949462890625;-0.41619873046875;-0.49493408203125;16.523479393779187;15.498708512806676;0.8866630366126235;-1.064453125;0.14453125;-0.25537109375;44.75;-7.125;5.25;
1441976021081426;0.360107421875;-0.67352294921875;-0.4093017578125;-0.499267578125;16.528887800492207;15.548406407520755;0.8750940085551455;-1.0712890625;0.12890625;-0.2421875;51.3125;-7.0;5.875;
1441976021104428;0.3543701171875;-0.67791748046875;-0.40142822265625;-0.50372314453125;16.533960010100074;15.61394312231313;0.8743135100873602;-1.0439453125;0.1279296875;-0.22998046875;59.375;-7.25;5.25;
1441976021120428;0.34881591796875;-0.68212890625;-0.39276123046875;-0.50872802734375;16.546674625922055;15.693362988578835;0.8845210422962566;-1.05078125;0.142578125;-0.2451171875;64.8125;-6.25;2.3125;
1441976021141430;0.34234619140625;-0.6871337890625;-0.38299560546875;-0.51385498046875;16.554059925876977;15.78338465370918;0.8963885481155427;-1.07861328125;0.1220703125;-0.25634765625;67.6875;-6.8125;-1.125;
1441976021164431;0.335205078125;-0.6917724609375;-0.373779296875;-0.51910400390625;16.562705815113535;15.852866559535897;0.887820966411792;-1.1123046875;0.15576171875;-0.29833984375;76.75;-6.8125;-1.6875;
1441976021180432;0.32843017578125;-0.69549560546875;-0.36474609375;-0.52484130859375;16.58269573796646;15.91944885095551;0.8791947528029024;-1.12353515625;0.2158203125;-0.27734375;76.9375;-9.1875;-3.0625;
1441976021203433;0.32122802734375;-0.69879150390625;-0.35552978515625;-0.53118896484375;16.610430740708285;15.980654978998308;0.8626947250518386;-1.15869140625;0.201171875;-0.2880859375;74.25;-13.625;-5.875;
1441976021224434;0.31329345703125;-0.70184326171875;-0.3455810546875;-0.53839111328125;16.646856209362447;16.042321657669948;0.8402690965179648;-1.1982421875;0.19580078125;-0.27490234375;77.0625;-16.4375;-6.3125;
1441976021240435;0.304443359375;-0.70501708984375;-0.3341064453125;-0.54656982421875;16.691042179068717;16.118300957764326;0.8213326897057631;-1.20361328125;0.17919921875;-0.25634765625;82.75;-19.625;-7.25;
1441976021261437;0.29486083984375;-0.70794677734375;-0.32147216796875;-0.5555419921875;16.743954222280575;16.20461132801587;0.8049350062663857;-1.21484375;0.1787109375;-0.2763671875;94.0625;-23.75;-11.0;
1441976021284438;0.2852783203125;-0.7105712890625;-0.30938720703125;-0.56396484375;16.7939331634069;16.282448224517033;0.7837019555044171;-1.22998046875;0.15966796875;-0.30224609375;102.0625;-24.875;-12.875;
1441976021300439;0.2742919921875;-0.71331787109375;-0.2952880859375;-0.57342529296875;16.851896248921086;16.379382416080738;0.7670520676473195;-1.298828125;0.19921875;-0.27685546875;98.875;-26.0625;-13.875;
1441976021321440;0.26104736328125;-0.717041015625;-0.279541015625;-0.58282470703125;16.90057101565656;16.47865822927016;0.7368039742444061;-1.31591796875;0.16357421875;-0.2578125;113.0625;-26.75;-13.625;
1441976021344441;0.2486572265625;-0.719970703125;-0.26483154296875;-0.5914306640625;16.948832906763997;16.572246051136787;0.7105649959444432;-1.2919921875;0.2197265625;-0.27099609375;129.0;-24.625;-9.25;
1441976021360442;0.23876953125;-0.7213134765625;-0.25567626953125;-0.59783935546875;16.988904882232085;16.582810050331748;0.6375139099655951;-1.27392578125;0.3232421875;-0.20166015625;119.875;-23.375;-11.125;
1441976021389444;0.2310791015625;-0.72332763671875;-0.24755859375;-0.601806640625;17.00509998246823;16.620876371964847;0.6068452589081997;-1.25390625;0.283203125;-0.09716796875;84.9375;-16.6875;-10.3125;
1441976021404445;0.217041015625;-0.73114013671875;-0.23187255859375;-0.60382080078125;16.959966721421694;16.738451089437792;0.5971000187634757;-1.25146484375;0.18115234375;-0.03076171875;70.3125;1.8125;-4.8125;
1441976021420446;0.2073974609375;-0.7373046875;-0.23468017578125;-0.5986328125;16.85294705404536;16.527981088379036;0.35898057996838717;-1.38623046875;-0.08544921875;0.13623046875;126.9375;25.75;15.3125;
1441976021441447;0.20574951171875;-0.733154296875;-0.2181396484375;-0.6104736328125;16.999665955975104;16.836173388452053;0.5871232293371363;-0.98779296875;0.13427734375;0.13525390625;25.75;48.1875;62.375;
1441976021464448;0.186279296875;-0.74755859375;-0.2093505859375;-0.60223388671875;16.80558170910798;16.732155162081742;0.3657635645764862;-1.79833984375;-0.54638671875;0.29736328125;79.3125;-6.0;-22.75;
1441976021480449;0.15008544921875;-0.7730712890625;-0.191162109375;-0.5859375;16.44281929690269;16.676205695848182;0.08576209523815548;-1.40380859375;-0.2353515625;-0.27490234375;112.1875;70.75;84.25;
1441976021503450;0.13922119140625;-0.788818359375;-0.20355224609375;-0.56304931640625;16.089038499098464;16.493385783494944;17.916167035238857;-1.34228515625;1.30224609375;-0.6455078125;219.9375;129.4375;120.0;
1441976021531452;0.13983154296875;-0.80084228515625;-0.21435546875;-0.54150390625;15.800175383965726;16.459318673608397;17.937418756566434;-0.69677734375;0.96826171875;-0.65966796875;-18.0;124.625;114.4375;
1441976021539452;0.1375732421875;-0.8128662109375;-0.21990966796875;-0.5216064453125;15.528498890844014;16.4609209839559;17.960568617225054;-1.025390625;0.15771484375;-0.53564453125;-55.0;125.0625;67.75;
1441976021561454;0.132568359375;-0.82427978515625;-0.22259521484375;-0.50347900390625;15.274631806073872;16.467434677938567;17.964985199779683;-1.1474609375;0.09228515625;-0.58251953125;-21.1875;119.5;64.375;
1441976021584455;0.12872314453125;-0.83404541015625;-0.22723388671875;-0.486083984375;15.036968014408302;16.455125256859656;17.9641493399569;-0.9326171875;0.27685546875;-0.59716796875;2.125;107.375;62.6875;
1441976021599456;0.1275634765625;-0.83941650390625;-0.23529052734375;-0.47308349609375;14.867191466739676;16.40795204560483;17.953352338348306;-0.80810546875;0.3759765625;-0.59619140625;-11.125;89.3125;52.6875;
1441976021621457;0.12908935546875;-0.84185791015625;-0.24322509765625;-0.46429443359375;14.761166386357385;16.36350704330032;17.954509857328674;-0.76806640625;0.349609375;-0.5205078125;-37.0625;62.0625;42.5;
1441976021644458;0.1329345703125;-0.842041015625;-0.25018310546875;-0.45916748046875;14.71065172828395;16.328377676482106;17.96899031475954;-0.67431640625;0.259765625;-0.501953125;-47.5;36.625;26.1875;
1441976021685461;0.136962890625;-0.84039306640625;-0.25592041015625;-0.45770263671875;14.707662077052296;16.294667872571505;17.97857100499862;-0.6748046875;0.2421875;-0.478515625;-49.875;18.9375;7.0625;
1441976021697461;0.1412353515625;-0.837890625;-0.25946044921875;-0.4591064453125;14.74116736600388;16.274894057020116;17.99170129505856;-0.6142578125;0.23388671875;-0.4638671875;-44.0625;-3.9375;-4.3125;
1441976021704462;0.145263671875;-0.835693359375;-0.26190185546875;-0.46044921875;14.773643018472372;16.264682072228425;0.008622135204790157;-0.57763671875;0.25390625;-0.4775390625;-33.0625;-20.3125;-17.75;
1441976021726463;0.151123046875;-0.833251953125;-0.2664794921875;-0.46038818359375;14.79605584163651;16.245914891997803;0.0349850172637476;-0.55419921875;0.38623046875;-0.52294921875;-23.8125;-21.9375;-27.75;
1441976021743464;0.1610107421875;-0.8289794921875;-0.27471923828125;-0.45989990234375;14.830609951223272;16.209891962700755;0.077771339355132;-0.587890625;0.53369140625;-0.52880859375;-36.25;-15.1875;-37.3125;
1441976021764465;0.1751708984375;-0.8228759765625;-0.283203125;-0.46051025390625;14.89849569487722;16.187219808623038;0.15268852197022775;-0.6044921875;0.51025390625;-0.53271484375;-68.625;-14.9375;-45.8125;
1441976021779466;0.18896484375;-0.81695556640625;-0.289794921875;-0.4615478515625;14.9716023408586;16.181593134502098;0.23452936208866845;-0.65966796875;0.32275390625;-0.5009765625;-87.9375;-15.5625;-56.5;
1441976021803468;0.20343017578125;-0.81103515625;-0.29638671875;-0.4615478515625;15.036836433561977;16.183126454766484;0.32740694921279334;-0.681640625;0.33740234375;-0.49072265625;-76.9375;-14.9375;-61.3125;
1441976021824469;0.21929931640625;-0.8048095703125;-0.30426025390625;-0.46014404296875;15.09270953971827;16.18340155707984;0.43184961825648494;-0.681640625;0.3623046875;-0.525390625;-79.875;-12.125;-64.625;
1441976021839470;0.23675537109375;-0.7974853515625;-0.31280517578125;-0.45849609375;15.15598409899448;16.186172711792207;0.5493733926142936;-0.70361328125;0.36181640625;-0.5517578125;-92.125;-6.6875;-65.5625;
1441976021863471;0.25494384765625;-0.79046630859375;-0.32135009765625;-0.45501708984375;15.201620952638711;16.198603375433848;0.6816346833216602;-0.732421875;0.3125;-0.533203125;-100.875;4.6875;-65.5625;
1441976021885472;0.27410888671875;-0.7825927734375;-0.330078125;-0.451171875;15.250341295404986;16.216153267022626;0.825299111476719;-0.7236328125;0.27587890625;-0.50146484375;-104.8125;15.375;-64.8125;
1441976021899473;0.29248046875;-0.7738037109375;-0.3382568359375;-0.44873046875;15.31563432466175;16.23470010214968;0.9637391614008614;-0.720703125;0.24267578125;-0.4619140625;-110.375;16.9375;-69.0;
1441976021923474;0.30865478515625;-0.76422119140625;-0.34735107421875;-0.4473876953125;15.391339089123466;16.230204540297088;1.0734652105560298;-0.78125;0.19775390625;-0.46240234375;-105.625;8.1875;-69.875;
1441976021944476;0.32269287109375;-0.75531005859375;-0.35528564453125;-0.44635009765625;15.462056630597369;16.227313681619712;1.1704895180283001;-0.80126953125;0.18359375;-0.44140625;-103.625;-4.5625;-61.0625;
1441976021959476;0.3349609375;-0.747314453125;-0.36151123046875;-0.44573974609375;15.527866907995968;16.23467559128135;1.2621961192074407;-0.779296875;0.18701171875;-0.44970703125;-93.6875;-13.75;-52.9375;
1441976021983478;0.34625244140625;-0.74041748046875;-0.366943359375;-0.44427490234375;15.576694607454899;16.247750857617895;1.3525839264343973;-0.76171875;0.16650390625;-0.4541015625;-79.3125;-15.25;-48.25;
1441976022004479;0.35736083984375;-0.73382568359375;-0.3729248046875;-0.44140625;15.61006945010205;16.254831151820607;1.4405007067037006;-0.75390625;0.1904296875;-0.46044921875;-72.375;-10.0;-44.5;
1441976022019480;0.36834716796875;-0.72674560546875;-0.3797607421875;-0.438232421875;15.643951229011448;16.251370593394107;1.5220855787525418;-0.74755859375;0.2255859375;-0.4638671875;-75.875;-5.4375;-41.1875;
1441976022042481;0.3787841796875;-0.7191162109375;-0.386962890625;-0.435546875;15.685678499904082;16.239823657377944;1.5949695710679501;-0.74853515625;0.22265625;-0.44677734375;-80.0625;-6.6875;-38.75;
1441976022064482;0.38702392578125;-0.7122802734375;-0.39306640625;-0.43408203125;15.730530310160743;16.22603779580943;1.6495350335540213;-0.78515625;0.17138671875;-0.42578125;-81.3125;-10.3125;-34.1875;
1441976022079483;0.39288330078125;-0.70660400390625;-0.3978271484375;-0.43377685546875;15.775090916915733;16.211271723549537;1.6849150713782364;-0.783203125;0.146484375;-0.396484375;-67.125;-14.4375;-27.4375;
1441976022102485;0.3966064453125;-0.7021484375;-0.402099609375;-0.43365478515625;15.810742252110852;16.185636991915885;1.697156805468015;-0.796875;0.14990234375;-0.3876953125;-50.625;-18.3125;-21.375;
1441976022124486;0.399169921875;-0.6983642578125;-0.40716552734375;-0.43267822265625;15.833372878807555;16.13953335058346;1.688091679020328;-0.80029296875;0.18359375;-0.39990234375;-39.375;-20.6875;-13.5625;
1441976022139487;0.4010009765625;-0.69500732421875;-0.4124755859375;-0.43133544921875;15.848898654750247;16.083513258409667;1.6673012256612338;-0.79150390625;0.20654296875;-0.38720703125;-39.375;-20.25;-5.4375;
1441976022163488;0.40167236328125;-0.69244384765625;-0.41748046875;-0.43011474609375;15.858197658496694;16.021626833192997;1.6335224598410902;-0.78369140625;0.21337890625;-0.3681640625;-38.125;-19.0625;0.125;
1441976022184489;0.400634765625;-0.69085693359375;-0.42120361328125;-0.42999267578125;15.867512765886303;15.962085305994377;1.5870768050287611;-0.814453125;0.2109375;-0.3583984375;-32.375;-18.625;6.1875;
1441976022199490;0.39697265625;-0.691162109375;-0.42364501953125;-0.430419921875;15.863901709721748;15.898391366254492;1.5175387383026429;-0.87939453125;0.17578125;-0.33349609375;-18.4375;-19.25;12.875;
1441976022223492;0.39141845703125;-0.693359375;-0.425048828125;-0.4306640625;15.841405179165228;15.835538757184146;1.4349263531590706;-0.89404296875;0.21484375;-0.328125;-0.5;-19.9375;21.5625;
1441976022244493;0.38470458984375;-0.6962890625;-0.42645263671875;-0.4305419921875;15.806968900384293;15.766174367231176;1.3410234689128966;-0.87353515625;0.24462890625;-0.32080078125;13.0;-16.875;28.9375;
1441976022259494;0.3770751953125;-0.699951171875;-0.42779541015625;-0.4300537109375;15.760635343600956;15.694783929589788;1.2409037979120807;-0.84228515625;0.25146484375;-0.2861328125;17.375;-14.625;36.375;
1441976022283495;0.36834716796875;-0.70458984375;-0.4285888671875;-0.4293212890625;15.70152199304412;15.6277636129878;1.1377972444371083;-0.80810546875;0.24853515625;-0.21826171875;21.375;-9.8125;42.3125;
1441976022303496;0.3585205078125;-0.71044921875;-0.42828369140625;-0.42816162109375;15.626955294750925;15.573652765002684;1.0381821813123602;-0.78271484375;0.23974609375;-0.173828125;29.1875;-5.5;49.0;
1441976022319497;0.34771728515625;-0.718017578125;-0.42657470703125;-0.42620849609375;15.531752259159994;15.539589534371046;0.948190843274465;-0.76025390625;0.24072265625;-0.1474609375;38.8125;0.25;54.6875;
1441976022342498;0.3359375;-0.72698974609375;-0.4239501953125;-0.42303466796875;15.414112947469974;15.519807168523513;0.865311989269169;-0.75439453125;0.25537109375;-0.14697265625;49.5;8.5;60.875;
1441976022364500;0.3238525390625;-0.73663330078125;-0.42132568359375;-0.4183349609375;15.277142779083947;15.507194111293385;0.7901793242554057;-0.77490234375;0.3056640625;-0.15087890625;57.5625;17.3125;66.125;
1441976022379501;0.312255859375;-0.7457275390625;-0.419921875;-0.4124755859375;15.132569513479535;15.489791563483047;0.7197636858921337;-0.79345703125;0.39013671875;-0.17529296875;58.25;24.0625;69.125;
1441976022402502;0.3013916015625;-0.7540283203125;-0.4197998046875;-0.40557861328125;14.983463897484594;15.467644377239989;0.655505940651797;-0.81298828125;0.44677734375;-0.17333984375;49.875;28.375;70.1875;
1441976022424503;0.29132080078125;-0.7615966796875;-0.42071533203125;-0.397705078125;14.830425215059496;15.443368139581548;0.5991676059449842;-0.81494140625;0.482421875;-0.16162109375;40.25;31.4375;70.4375;
1441976022440504;0.28228759765625;-0.7684326171875;-0.4228515625;-0.38873291015625;14.672897855097794;15.416439367287431;0.5521168993230295;-0.80908203125;0.509765625;-0.1630859375;30.875;35.1875;70.3125;
1441976022463505;0.2740478515625;-0.77447509765625;-0.42584228515625;-0.3792724609375;14.516413587168216;15.387330411553243;0.5115279612428103;-0.8056640625;0.52294921875;-0.162109375;20.125;39.0;70.875;
1441976022484507;0.26593017578125;-0.780517578125;-0.42889404296875;-0.36907958984375;14.353117950321378;15.362162213213743;0.47706683195993643;-0.80810546875;0.5087890625;-0.15380859375;11.9375;41.5625;71.8125;
1441976022499507;0.25787353515625;-0.786376953125;-0.432373046875;-0.35809326171875;14.182594453752074;15.336865507822967;0.4463442910337584;-0.81005859375;0.53857421875;-0.17529296875;10.4375;44.0625;73.5;
1441976022522509;0.25048828125;-0.79144287109375;-0.43701171875;-0.3463134765625;14.009219713282542;15.306094649138307;0.4203812375430476;-0.82763671875;0.5673828125;-0.21044921875;6.3125;46.625;76.5625;
1441976022544510;0.24359130859375;-0.79583740234375;-0.44232177734375;-0.33428955078125;13.837454051826901;15.272476946279678;0.39797795271961856;-0.837890625;0.5830078125;-0.23876953125;-3.625;47.75;78.4375;
1441976022559511;0.2369384765625;-0.79986572265625;-0.4476318359375;-0.32220458984375;13.667550662041263;15.24054167282319;0.379260530822468;-0.84423828125;0.587890625;-0.25;-10.5;48.375;79.4375;
1441976022582512;0.22979736328125;-0.80401611328125;-0.45233154296875;-0.31011962890625;13.495511722221472;15.21340745304012;0.36111002492398325;-0.83984375;0.58349609375;-0.26171875;-12.75;48.4375;80.0;
1441976022605513;0.22198486328125;-0.80853271484375;-0.45672607421875;-0.29742431640625;13.313223774425746;15.189740394333187;0.34342840393317275;-0.80419921875;0.57666015625;-0.28955078125;-9.75;46.3125;82.5625;
1441976022619514;0.2139892578125;-0.81304931640625;-0.46087646484375;-0.28424072265625;13.1255803886739;15.1690295615541;0.3283036867301353;-0.7431640625;0.60791015625;-0.3154296875;-7.5;46.5625;85.0;
1441976022642516;0.20599365234375;-0.81756591796875;-0.4647216796875;-0.270751953125;12.93531394317385;15.151680716760918;0.3161764072577558;-0.69189453125;0.6259765625;-0.349609375;-7.9375;46.625;85.875;
1441976022665517;0.19818115234375;-0.82147216796875;-0.4688720703125;-0.2572021484375;12.747098225821933;15.1319702861654;0.30523888737076105;-0.66064453125;0.64892578125;-0.38037109375;-7.625;47.0;85.875;
1441976022679518;0.19097900390625;-0.824462890625;-0.4736328125;-0.24407958984375;12.56836843168363;15.107628563198064;0.2957062403470058;-0.6494140625;0.6982421875;-0.400390625;-10.75;46.3125;84.3125;
1441976022702519;0.184326171875;-0.826416015625;-0.47906494140625;-0.231689453125;12.402008338189333;15.077573179923306;0.28618496056139675;-0.64111328125;0.70458984375;-0.4033203125;-17.0;44.375;81.375;
1441976022725520;0.17791748046875;-0.82806396484375;-0.4842529296875;-0.21978759765625;12.242729550707347;15.048976575099081;0.2779847627478553;-0.615234375;0.6708984375;-0.38037109375;-22.9375;41.0625;78.9375;
1441976022739521;0.1715087890625;-0.829833984375;-0.48876953125;-0.207763671875;12.082538937293986;15.025365269075639;0.2724408817848628;-0.5546875;0.611328125;-0.3583984375;-23.625;38.8125;76.6875;
1441976022762522;0.16497802734375;-0.831787109375;-0.49261474609375;-0.1959228515625;11.923572043111061;15.006301239881985;0.2676654652932953;-0.48779296875;0.58837890625;-0.3564453125;-21.3125;39.0;75.4375;
1441976022785524;0.15814208984375;-0.8338623046875;-0.49566650390625;-0.18463134765625;11.768659853921031;14.991646302005039;0.26143631698142195;-0.46728515625;0.57177734375;-0.373046875;-18.8125;38.0;75.6875;
1441976022806525;0.151611328125;-0.83575439453125;-0.49835205078125;-0.17388916015625;11.621500344370835;14.97895224339506;0.2561145972444586;-0.45068359375;0.5966796875;-0.40478515625;-14.9375;34.8125;74.9375;
1441976022822526;0.1455078125;-0.83758544921875;-0.50048828125;-0.163818359375;11.483799456761732;14.96957000624854;0.2521378246162846;-0.455078125;0.58837890625;-0.42822265625;-15.3125;33.125;72.875;
1441976022845527;0.14013671875;-0.8392333984375;-0.50213623046875;-0.15484619140625;11.361643952736967;14.962871821263288;0.24951444446257248;-0.45947265625;0.6025390625;-0.43505859375;-13.125;32.1875;69.375;
1441976022866528;0.13555908203125;-0.8404541015625;-0.50360107421875;-0.147216796875;11.258063455081109;14.956377305463837;0.24722456787888744;-0.46240234375;0.6064453125;-0.43994140625;-11.5;30.0625;63.4375;
1441976022882529;0.1314697265625;-0.841552734375;-0.504638671875;-0.14093017578125;11.170843587135765;14.951904840379838;0.2440080125014207;-0.4716796875;0.5986328125;-0.4306640625;-10.875;26.4375;56.625;
1441976022905531;0.12762451171875;-0.84271240234375;-0.50518798828125;-0.13555908203125;11.094108993640548;14.950190193663689;0.23994367211477344;-0.4638671875;0.59716796875;-0.412109375;-7.9375;22.4375;50.5625;
1441976022926532;0.12408447265625;-0.843994140625;-0.5052490234375;-0.130859375;11.025710155454108;14.951545394898966;0.23604160990335515;-0.42578125;0.59423828125;-0.40087890625;-4.25;18.9375;44.6875;
1441976022942533;0.12103271484375;-0.8453369140625;-0.50482177734375;-0.12640380859375;10.962637670217147;14.956076844508425;0.2344531964068308;-0.40087890625;0.61083984375;-0.38671875;0.0;16.9375;39.8125;
1441976022965534;0.11846923828125;-0.8465576171875;-0.50439453125;-0.12255859375;10.908521489151088;14.960545531962824;0.23348450779279206;-0.36962890625;0.63232421875;-0.39404296875;2.625;16.375;34.8125;
1441976022986535;0.116455078125;-0.84735107421875;-0.50421142578125;-0.119384765625;10.864734638619913;14.962815047976948;0.23295407015503355;-0.3681640625;0.6533203125;-0.3984375;2.875;15.1875;30.125;
1441976023002536;0.1146240234375;-0.8482666015625;-0.50384521484375;-0.1163330078125;10.823050970844873;14.966529874248454;0.2331943143706372;-0.359375;0.6396484375;-0.37890625;1.125;13.5625;26.0;
1441976023025537;0.1131591796875;-0.84893798828125;-0.503662109375;-0.11358642578125;10.7867673874458;14.968827287655943;0.2341525734707591;-0.32763671875;0.66943359375;-0.38134765625;3.3125;12.6875;22.3125;
1441976023046539;0.11187744140625;-0.84967041015625;-0.5032958984375;-0.1112060546875;10.755088736752077;14.972311184711419;0.2351339025006051;-0.31591796875;0.69189453125;-0.36962890625;3.25;12.0;18.875;
1441976023062540;0.1107177734375;-0.8504638671875;-0.502685546875;-0.10906982421875;10.726501958188344;14.97726874889266;0.23623425287302618;-0.30615234375;0.69873046875;-0.3798828125;4.0625;10.5;16.5;
1441976023085541;0.10986328125;-0.85107421875;-0.502197265625;-0.107177734375;10.702285761455975;14.981261122926655;0.23800449405403873;-0.29345703125;0.71923828125;-0.39404296875;5.4375;9.3125;13.75;
1441976023106542;0.1092529296875;-0.851318359375;-0.502197265625;-0.10565185546875;10.683443863423879;14.981789772434077;0.23941894330938185;-0.27783203125;0.732421875;-0.41357421875;3.4375;8.0;10.875;
1441976023122543;0.10888671875;-0.85174560546875;-0.5018310546875;-0.10430908203125;10.667622925901782;14.984903025135651;0.24190465875236464;-0.26904296875;0.73193359375;-0.39111328125;1.5625;7.125;8.25;
1441976023145544;0.10858154296875;-0.8521728515625;-0.50140380859375;-0.103271484375;10.655166474051168;14.98830770795975;0.24385027561354836;-0.2568359375;0.74267578125;-0.40673828125;3.5625;6.0625;5.75;
1441976023166546;0.10858154296875;-0.8524169921875;-0.5010986328125;-0.10260009765625;10.64827928688906;14.990731060179376;0.24613549371474444;-0.24951171875;0.75439453125;-0.41796875;3.5;4.75;3.75;
1441976023182546;0.10870361328125;-0.85260009765625;-0.50091552734375;-0.10223388671875;10.64513025849779;14.992388796615904;0.248031358514601;-0.24169921875;0.76025390625;-0.4208984375;2.75;3.4375;1.125;
1441976023205548;0.10888671875;-0.852783203125;-0.50054931640625;-0.1021728515625;10.645397334831635;14.994975125774864;0.2495048899350228;-0.24560546875;0.77099609375;-0.4267578125;2.125;1.9375;-0.75;
1441976023226549;0.10919189453125;-0.85302734375;-0.50006103515625;-0.10211181640625;10.646291921728658;14.998472794444591;0.25172376076198066;-0.23095703125;0.76513671875;-0.43212890625;2.5;0.4375;-2.5;
1441976023242550;0.109375;-0.85321044921875;-0.49969482421875;-0.1021728515625;10.647755090140626;15.001035054378649;0.252841421663152;-0.2353515625;0.763671875;-0.4345703125;3.125;0.5625;-2.9375;
1441976023265551;0.109619140625;-0.85333251953125;-0.4993896484375;-0.102294921875;10.650237802391263;15.003147193522365;0.2540297616134189;-0.23095703125;0.78662109375;-0.4326171875;3.4375;-0.125;-3.375;
1441976023286552;0.10968017578125;-0.85345458984375;-0.49920654296875;-0.10247802734375;10.652249193109604;15.004460555672084;0.25399359360920426;-0.2353515625;0.7890625;-0.4453125;2.75;-0.6875;-3.75;
1441976023302553;0.10980224609375;-0.85357666015625;-0.4989013671875;-0.1025390625;10.653445976146546;15.006479236293131;0.25473431918161965;-0.22705078125;0.79931640625;-0.44189453125;2.4375;-1.5625;-3.8125;
1441976023325555;0.1097412109375;-0.8538818359375;-0.4984130859375;-0.1024169921875;10.651577112889722;15.00984923295002;0.2552644702285942;-0.21923828125;0.7919921875;-0.443359375;2.6875;-1.25;-3.75;
1441976023346556;0.10955810546875;-0.8541259765625;-0.498046875;-0.1021728515625;10.647878304323768;15.01233101686536;0.25540221255536755;-0.21337890625;0.79443359375;-0.4482421875;4.0;-0.875;-2.875;
1441976023362557;0.1094970703125;-0.8541259765625;-0.49822998046875;-0.1016845703125;10.642654217994613;15.011432534673403;0.2563495281595278;-0.21484375;0.806640625;-0.44677734375;3.75;-0.4375;-2.125;
1441976023385558;0.10943603515625;-0.85382080078125;-0.49884033203125;-0.10107421875;10.63657763162531;15.007473828407239;0.25722264070837647;-0.21142578125;0.8232421875;-0.44970703125;0.625;0.0625;-2.375;
1441976023406559;0.10955810546875;-0.853759765625;-0.49908447265625;-0.10052490234375;10.631857370561018;15.006253737085707;0.25922602508425713;-0.208984375;0.80126953125;-0.43896484375;-2.8125;0.625;-1.6875;
1441976023422560;0.109619140625;-0.85382080078125;-0.4991455078125;-0.09991455078125;10.626059347100334;15.0062863952845;0.2612756583096787;-0.212890625;0.77392578125;-0.43115234375;-0.5;1.6875;-1.6875;
1441976023444561;0.10986328125;-0.8533935546875;-0.499755859375;-0.09954833984375;10.624307064853403;15.00218849339376;0.26298799176535287;-0.21142578125;0.77294921875;-0.42724609375;0.625;2.0;-1.5625;
1441976023466563;0.11029052734375;-0.8526611328125;-0.50091552734375;-0.10009765625;10.632911678803067;14.994368111814083;0.26243339870139376;-0.21826171875;0.767578125;-0.4140625;-2.9375;0.875;-2.375;
1441976023482564;0.111083984375;-0.851806640625;-0.50177001953125;-0.1019287109375;10.656497143740802;14.987820129827307;0.26023069629798995;-0.20361328125;0.7177734375;-0.39892578125;-6.75;-3.5625;-5.6875;
1441976023504565;0.1123046875;-0.85101318359375;-0.50213623046875;-0.10516357421875;10.69636650425146;14.984025436586098;0.2565127994869323;-0.22412109375;0.67138671875;-0.37060546875;-5.125;-7.75;-9.4375;
1441976023526566;0.1138916015625;-0.85052490234375;-0.5015869140625;-0.110107421875;10.754940567598187;14.985746385426626;0.250520925476137;-0.234375;0.6083984375;-0.3466796875;-2.9375;-12.375;-14.5625;
1441976023549567;0.115966796875;-0.85003662109375;-0.5003662109375;-0.11700439453125;10.835759584617886;14.990834729157976;0.24193006999268654;-0.25830078125;0.54833984375;-0.326171875;2.9375;-17.75;-19.375;
1441976023564568;0.11859130859375;-0.84942626953125;-0.49871826171875;-0.1258544921875;10.939302688412123;14.997645013464489;0.23084506260564394;-0.2841796875;0.51025390625;-0.30224609375;7.25;-24.5625;-25.875;
1441976023587570;0.1220703125;-0.84832763671875;-0.496826171875;-0.13665771484375;11.067893354995164;15.004345195394547;0.21858573540944565;-0.310546875;0.47900390625;-0.28955078125;9.4375;-31.375;-33.0625;
1441976023602570;0.12646484375;-0.84710693359375;-0.49420166015625;-0.1492919921875;11.220307278197863;15.014617093179764;0.20653476530454276;-0.34814453125;0.43017578125;-0.271484375;9.5625;-37.3125;-41.0;
1441976023624572;0.13153076171875;-0.845703125;-0.49072265625;-0.16339111328125;11.391889668981683;15.028815318880698;0.19480255126101334;-0.37548828125;0.36572265625;-0.24853515625;12.625;-42.5625;-48.8125;
1441976023648573;0.13763427734375;-0.84375;-0.48687744140625;-0.17938232421875;11.589304810278469;15.043527449234158;0.18348289964563516;-0.39453125;0.3515625;-0.236328125;17.1875;-46.8125;-57.1875;
1441976023662574;0.1446533203125;-0.8411865234375;-0.4822998046875;-0.1973876953125;11.813611275556898;15.060340209233855;0.1721402429407315;-0.43505859375;0.30810546875;-0.220703125;17.5625;-52.0;-65.5625;
1441976023684575;0.1524658203125;-0.8377685546875;-0.47723388671875;-0.21734619140625;12.06403630986457;15.077028536905532;0.1599327318424985;-0.48876953125;0.259765625;-0.21337890625;18.75;-58.125;-73.6875;
1441976023707576;0.1612548828125;-0.83355712890625;-0.47137451171875;-0.2388916015625;12.338323216082811;15.096090404412134;0.14969371035924559;-0.5478515625;0.228515625;-0.18701171875;20.375;-63.75;-81.5;
1441976023722577;0.17071533203125;-0.82843017578125;-0.464599609375;-0.26220703125;12.637317206318812;15.117399909613209;0.13955352005448052;-0.62109375;0.20361328125;-0.18603515625;21.25;-67.625;-89.4375;
1441976023744579;0.17852783203125;-0.8233642578125;-0.45806884765625;-0.2835693359375;12.908649479544009;15.135937852036168;0.12625538158430927;-0.71142578125;0.181640625;-0.1728515625;24.5625;-72.4375;-95.8125;
1441976023767580;0.18707275390625;-0.81707763671875;-0.45123291015625;-0.30633544921875;13.201947743319478;15.152352834321494;0.11280860527795826;-0.78125;0.19482421875;-0.1650390625;26.0625;-77.9375;-102.125;
1441976023788581;0.19622802734375;-0.8095703125;-0.4437255859375;-0.33050537109375;13.517409890449224;15.168566123834959;0.09922720290346385;-0.81982421875;0.203125;-0.17041015625;24.6875;-84.5;-110.9375;
1441976023804582;0.20538330078125;-0.80145263671875;-0.43438720703125;-0.356201171875;13.85322383198718;15.192756995504055;0.08545438608158369;-0.86669921875;0.1591796875;-0.16162109375;24.9375;-91.0625;-119.9375;
1441976023828583;0.21441650390625;-0.79266357421875;-0.4229736328125;-0.38330078125;14.208754604746588;15.227213793396245;0.07304880380778564;-0.9345703125;0.1318359375;-0.1923828125;33.3125;-97.25;-127.4375;
1441976023849585;0.22406005859375;-0.7823486328125;-0.41064453125;-0.41131591796875;14.584635980210649;15.265116446151202;0.06519835894249115;-1.03076171875;0.13916015625;-0.23095703125;42.75;-103.4375;-135.75;
1441976023864585;0.2354736328125;-0.76959228515625;-0.39862060546875;-0.4398193359375;14.984172921335928;15.300461367062315;0.06726261208377565;-1.1943359375;0.18408203125;-0.25634765625;43.0625;-108.375;-144.5;
1441976023887587;0.24810791015625;-0.7545166015625;-0.385986328125;-0.46929931640625;15.411192658864266;15.340509505831449;0.07950685679841196;-1.345703125;0.169921875;-0.2412109375;32.6875;-112.5;-156.125;
1441976023908588;0.2598876953125;-0.73809814453125;-0.370849609375;-0.500244140625;15.861009636498151;15.399939267876334;0.09909582203281662;-1.404296875;0.06103515625;-0.220703125;27.8125;-119.25;-168.0;
1441976023924589;0.26983642578125;-0.720458984375;-0.353271484375;-0.5323486328125;16.32668339283318;15.4818155371517;0.12624922622644213;-1.443359375;-0.01416015625;-0.212890625;40.5625;-128.3125;-176.0;
1441976023947590;0.2801513671875;-0.70050048828125;-0.33575439453125;-0.56402587890625;16.80376176923757;15.593188810764186;0.1900952128839621;-1.5068359375;0.04296875;-0.2568359375;55.1875;-138.5625;-182.3125;
1441976023968591;0.29339599609375;-0.6776123046875;-0.32000732421875;-0.5936279296875;17.28569372620817;15.833012367221091;0.4088526267018403;-1.60693359375;0.1220703125;-0.287109375;48.9375;-144.75;-189.0;
1441976023984592;0.308837890625;-0.65234375;-0.304443359375;-0.62164306640625;17.748688761608538;17.12202347297457;1.692581412539383;-1.75;0.10205078125;-0.24169921875;23.75;-143.75;-196.875;
1441976024007594;0.32366943359375;-0.62518310546875;-0.2864990234375;-0.64990234375;17.63824608317343;4.902615240600061;7.459873223625398;-1.876953125;-0.0068359375;-0.21044921875;8.1875;-142.625;-206.5;
1441976024029595;0.33544921875;-0.5970458984375;-0.265625;-0.67864990234375;17.12896930128558;5.710978651589323;8.233836349878674;-1.900390625;-0.10986328125;-0.197265625;17.3125;-148.625;-217.0625;
1441976024044596;0.34527587890625;-0.5679931640625;-0.24383544921875;-0.70623779296875;16.607224626883234;5.945867119823408;8.42710447189685;-1.869140625;-0.0546875;-0.21142578125;38.1875;-155.75;-223.125;
1441976024068597;0.35382080078125;-0.53839111328125;-0.2220458984375;-0.73193359375;16.094074345574523;6.0682425415754055;8.506827890337316;-1.787109375;0.0595703125;-0.2412109375;46.0625;-158.1875;-224.125;
1441976024088598;0.360595703125;-0.5086669921875;-0.200439453125;-0.7557373046875;15.596737528772264;6.15601261741374;8.548770562302009;-1.7470703125;0.080078125;-0.2646484375;46.4375;-158.1875;-220.4375;
1441976024104599;0.36505126953125;-0.4788818359375;-0.17901611328125;-0.77813720703125;15.11461894158313;6.236416632355702;8.576826136440106;-1.70166015625;0.11181640625;-0.27978515625;49.9375;-156.75;-214.25;
1441976024127600;0.36724853515625;-0.44952392578125;-0.15850830078125;-0.79876708984375;14.656098046624955;6.314680686952003;8.598672288123922;-1.62451171875;0.130859375;-0.2685546875;56.5625;-156.5625;-206.5625;
1441976024149602;0.36688232421875;-0.42181396484375;-0.13812255859375;-0.81756591796875;14.228410571696177;6.390061562007763;8.606982947559617;-1.48974609375;0.17138671875;-0.2607421875;60.4375;-154.6875;-194.375;
1441976024164603;0.3638916015625;-0.3973388671875;-0.11865234375;-0.83404541015625;13.851649526381001;6.464208222415039;8.604086103326608;-1.28076171875;0.1484375;-0.19287109375;69.25;-143.5;-180.6875;
1441976024187604;0.3607177734375;-0.37530517578125;-0.101318359375;-0.84783935546875;13.518963296816526;6.527073353197085;8.596451625044455;-1.072265625;0.25146484375;-0.2177734375;76.4375;-126.3125;-161.3125;
1441976024216606;0.3590087890625;-0.35528564453125;-0.08697509765625;-0.85870361328125;13.226688869876655;6.5721273162489835;8.589311793139634;-0.88330078125;0.39404296875;-0.28076171875;68.125;-113.0;-144.125;
1441976024224606;0.3592529296875;-0.3385009765625;-0.0767822265625;-0.8663330078125;12.991348388424441;6.597549429349127;8.587092562825692;-0.74169921875;0.45849609375;-0.3486328125;49.4375;-102.4375;-126.4375;
1441976024247607;0.3609619140625;-0.33233642578125;-0.073486328125;-0.8682861328125;12.90603526017279;6.594937971843207;8.58421620353154;-0.626953125;0.5087890625;-0.404296875;26.0;-86.875;-100.75;
1441976024268609;0.36224365234375;-0.33404541015625;-0.07330322265625;-0.8670654296875;12.92271687871854;6.580351331235349;8.573517330649663;-0.49853515625;0.4521484375;-0.40283203125;-0.9375;-61.8125;-72.5625;
1441976024292610;0.3592529296875;-0.345947265625;-0.077880859375;-0.86328125;13.078457995648762;6.57919537418584;8.566677978088624;-0.45703125;0.34375;-0.38427734375;-4.75;-21.1875;-32.3125;
1441976024307611;0.3558349609375;-0.36517333984375;-0.08856201171875;-0.855712890625;13.346838166800417;6.570737320934779;8.57086464551602;-0.55419921875;0.576171875;-0.53271484375;3.9375;12.625;7.5625;
1441976024328612;0.35162353515625;-0.39312744140625;-0.1044921875;-0.84320068359375;13.742437959738304;6.548938700574987;8.573980296751575;-0.6748046875;0.7890625;-0.66455078125;-12.125;33.4375;40.4375;
1441976024344613;0.34808349609375;-0.41455078125;-0.1173095703125;-0.8326416015625;14.053013071571925;6.531969734913897;8.578288724900059;-0.80908203125;0.88427734375;-0.8154296875;-22.5625;62.8125;77.6875;
1441976024367614;0.34356689453125;-0.44415283203125;-0.13446044921875;-0.8165283203125;14.484831592860447;6.4958957029609286;8.572477254603967;-1.1982421875;1.14404296875;-1.10888671875;-20.125;99.0;119.4375;
1441976024388615;0.33544921875;-0.486328125;-0.15771484375;-0.79132080078125;15.109269385316749;6.433113081084719;8.54373903588256;-1.40234375;1.16259765625;-1.14013671875;-31.5;142.3125;162.625;
1441976024404616;0.31976318359375;-0.5396728515625;-0.18560791015625;-0.75634765625;15.923701126211666;6.346662128174144;8.47694538268519;-1.68115234375;1.00341796875;-0.99267578125;-38.4375;209.875;231.9375;
1441976024427618;0.29638671875;-0.6011962890625;-0.21685791015625;-0.70977783203125;16.907826813469974;6.119970466673628;8.257998186690456;-2.17626953125;0.873046875;-0.84912109375;-25.6875;272.1875;305.375;
1441976024448619;0.26654052734375;-0.66558837890625;-0.250244140625;-0.65069580078125;17.82111926559457;1.3070862885640973;3.4506268435478162;-2.498046875;1.005859375;-0.81103515625;-15.1875;329.5625;371.0;
1441976024464620;0.23260498046875;-0.7266845703125;-0.28314208984375;-0.5811767578125;16.749473661446512;15.966280227066482;0.11842942615067298;-2.990234375;1.02978515625;-0.923828125;-14.3125;373.375;423.5625;
1441976024487621;0.20111083984375;-0.77911376953125;-0.3193359375;-0.5006103515625;15.52938404037651;15.743389332528304;17.95648148974531;-3.31640625;1.28955078125;-1.21435546875;-17.5;396.1875;447.3125;
1441976024510622;0.1822509765625;-0.81121826171875;-0.368408203125;-0.416015625;14.40155422711381;15.530591244678991;17.947166040266985;-3.6591796875;1.64453125;-1.63818359375;-68.5625;413.0625;454.5625;
1441976024524623;0.1640625;-0.822021484375;-0.4241943359375;-0.3428955078125;13.46533298618652;15.235419649159752;17.914694356490607;-3.70458984375;1.89990234375;-1.4365234375;-205.0;380.5;419.125;
1441976024547625;0.1397705078125;-0.8330078125;-0.45623779296875;-0.2801513671875;12.64576783024275;15.102335489351027;17.91888665424776;-3.98681640625;1.17626953125;-1.01708984375;-270.6875;270.4375;384.75;
1441976024570626;0.11199951171875;-0.84326171875;-0.4742431640625;-0.22705078125;11.92821704890777;15.041985940770449;17.913071911782282;-3.54443359375;0.14697265625;-1.07421875;-135.75;228.3125;341.25;
