1441975777763509;-0.15478515625;0.60101318359375;0.76837158203125;0.15582275390625;11.516531667945038;12.765451133763893;17.830842191654227;-2.169921875;-0.568359375;-0.650390625;-328.875;94.375;192.5625;
1441975777779510;-0.13995361328125;0.57904052734375;0.793212890625;0.125732421875;11.157273430073275;12.590967341205324;17.884778774582617;-1.94677734375;-0.822265625;-0.45458984375;-306.4375;26.8125;189.8125;
1441975777801511;-0.124267578125;0.57550048828125;0.801513671875;0.10443115234375;10.862744266144906;12.555812211577976;17.92630384949345;-1.60498046875;-0.8564453125;-0.19140625;-195.8125;-3.5;186.6875;
1441975777823513;-0.10595703125;0.59063720703125;0.79486083984375;0.08984375;10.593726703271518;12.654126126551448;17.947373506977538;-1.3310546875;-0.5595703125;-0.10302734375;-48.125;-17.25;175.625;
1441975777862515;-0.0909423828125;0.61614990234375;0.77825927734375;0.07965087890625;10.38700704062286;12.832600066380127;17.96485335081474;-1.04638671875;-0.18359375;0.00537109375;93.125;-27.1875;151.5;
1441975777863515;-0.07965087890625;0.640869140625;0.760009765625;0.072509765625;10.23582978707766;13.01130608007119;17.97617043993549;-0.93896484375;0.0537109375;-0.0888671875;172.375;-15.3125;119.0625;
1441975777890517;-0.07196044921875;0.656494140625;0.748046875;0.0650634765625;10.113333794709197;13.126241056893775;17.991655615868208;-0.9248046875;0.1767578125;-0.1337890625;173.5;-7.9375;90.875;
1441975777914518;-0.07525634765625;0.66180419921875;0.7432861328125;0.0618896484375;10.117467712192576;13.170283538242822;0.02221340458005238;-0.84814453125;0.29638671875;-0.0673828125;109.9375;3.3125;75.9375;
1441975777920518;-0.084228515625;0.65960693359375;0.7442626953125;0.06170654296875;10.193482754035182;13.16081157092149;0.05641434382741998;-0.81884765625;0.48193359375;0.02197265625;36.25;23.4375;50.8125;
1441975777944520;-0.09906005859375;0.65350341796875;0.74749755859375;0.06561279296875;10.35247483436907;13.127141538873843;0.0924870179661749;-0.79638671875;0.52490234375;0.046875;-17.1875;31.8125;12.625;
1441975777960521;-0.1202392578125;0.647216796875;0.74920654296875;0.072509765625;10.590543227260525;13.101842545196984;0.14004940939864174;-0.79248046875;0.47021484375;0.09716796875;-39.125;39.875;-28.6875;
1441975777981522;-0.146240234375;0.64361572265625;0.74658203125;0.08319091796875;10.899396006013491;13.10889772524931;0.1941484444743115;-0.8330078125;0.4052734375;0.0849609375;-35.125;55.8125;-64.375;
1441975778004523;-0.17138671875;0.6435546875;0.739990234375;0.0941162109375;11.201161567425443;13.150237677993756;0.2515577529329335;-0.90771484375;0.45068359375;0.04345703125;-9.6875;65.0625;-96.5625;
1441975778025524;-0.19927978515625;0.6439208984375;0.73046875;0.10931396484375;11.559238849000959;13.209818629937452;0.3085558555349177;-0.9794921875;0.46484375;0.02294921875;20.5;70.9375;-130.125;
1441975778041525;-0.22918701171875;0.6416015625;0.72052001953125;0.12872314453125;11.970247191083086;13.263761740572022;0.35914780566589455;-1.087890625;0.6142578125;-0.05712890625;34.9375;69.6875;-160.125;
1441975778064526;-0.25970458984375;0.63494873046875;0.71160888671875;0.15130615234375;12.418195762606725;13.296617102047673;0.39768341586619776;-1.22900390625;0.6640625;-0.10302734375;28.0625;61.0625;-187.875;
1441975778085528;-0.29107666015625;0.624755859375;0.70281982421875;0.1759033203125;12.897475308738098;13.316159127992364;0.43075056664112343;-1.27490234375;0.66943359375;-0.123046875;10.0625;47.3125;-209.0625;
1441975778101529;-0.32366943359375;0.61383056640625;0.69049072265625;0.2039794921875;13.422233807575703;13.352675444848645;0.46443474510237515;-1.251953125;0.67138671875;-0.05712890625;-1.6875;40.9375;-228.0625;
1441975778124530;-0.356201171875;0.60174560546875;0.6754150390625;0.23388671875;13.970727439037944;13.4029028080017;0.5020777712027863;-1.3427734375;0.56689453125;-0.05029296875;13.0;38.9375;-250.5625;
1441975778145531;-0.3878173828125;0.58782958984375;0.6590576171875;0.263916015625;14.523529489826148;13.45948908870316;0.5462821999661784;-1.43408203125;0.5234375;-0.06298828125;21.9375;36.0625;-264.25;
1441975778161532;-0.41815185546875;0.5726318359375;0.64117431640625;0.29345703125;15.072934715153242;13.53244194355764;0.6055512213989773;-1.416015625;0.46923828125;-0.04931640625;20.75;32.5625;-268.375;
1441975778184533;-0.4462890625;0.55694580078125;0.6214599609375;0.322998046875;15.614548573962303;13.633394295605953;0.684162843085143;-1.39990234375;0.43017578125;-0.02978515625;22.4375;31.5;-269.4375;
1441975778205535;-0.4708251953125;0.54150390625;0.6004638671875;0.35284423828125;16.136962513311865;13.76805588247336;0.7824294021627484;-1.49072265625;0.3291015625;-0.05810546875;30.125;26.8125;-266.5625;
1441975778221535;-0.4918212890625;0.52569580078125;0.5792236328125;0.38226318359375;16.6356994010541;13.946623973974006;0.9177230637075322;-1.51611328125;0.27001953125;-0.0654296875;42.75;16.75;-259.5;
1441975778244537;-0.5101318359375;0.5096435546875;0.55877685546875;0.40948486328125;17.09678538015259;14.239326862782193;1.1701837702075855;-1.40869140625;0.20849609375;-0.07373046875;48.25;6.0;-250.125;
1441975778266538;-0.525390625;0.494140625;0.5391845703125;0.43475341796875;17.505816762036673;14.901499521100611;1.7908702766103348;-1.35009765625;0.1591796875;-0.05419921875;45.0625;1.375;-235.0625;
1441975778281539;-0.53717041015625;0.47991943359375;0.52056884765625;0.4583740234375;17.77958953119735;17.459551950031063;4.302010695181078;-1.31298828125;0.06640625;-0.05224609375;45.4375;-4.0625;-216.0;
1441975778305540;-0.54443359375;0.4686279296875;0.5020751953125;0.48150634765625;17.64119569960082;2.957383102290362;7.733725455745897;-1.27880859375;-0.0322265625;-0.0361328125;50.625;-9.9375;-195.25;
1441975778326541;-0.54742431640625;0.4608154296875;0.48394775390625;0.503662109375;17.379118262387102;3.8549848151084856;8.546950183874156;-1.21923828125;-0.08935546875;0.0087890625;69.3125;-13.75;-171.8125;
1441975778341542;-0.54742431640625;0.455078125;0.46807861328125;0.52349853515625;17.150238077213984;4.235528586363055;8.841616508873535;-1.14794921875;-0.0546875;-0.005859375;86.9375;-15.5625;-147.5;
1441975778364544;-0.54541015625;0.45098876953125;0.45660400390625;0.53912353515625;16.98487100519374;4.4720145344807705;9.006245191287936;-1.103515625;-0.009765625;-0.04052734375;88.25;-19.6875;-121.6875;
1441975778385545;-0.54193115234375;0.44793701171875;0.448486328125;0.55181884765625;16.865960198001407;4.664825690605427;9.137941310164532;-1.06689453125;-0.01953125;-0.0419921875;74.5;-24.9375;-95.6875;
1441975778401546;-0.536865234375;0.44671630859375;0.44317626953125;0.56195068359375;16.79437006200023;4.835626253307348;9.25316035086096;-1.033203125;-0.04443359375;-0.0283203125;63.9375;-28.6875;-70.0625;
1441975778424547;-0.53033447265625;0.447998046875;0.44036865234375;0.56927490234375;16.774080898877358;4.988655987256024;9.354460888353412;-0.986328125;-0.0322265625;-0.00390625;58.0;-28.375;-45.9375;
1441975778445548;-0.523681640625;0.4503173828125;0.44073486328125;0.57330322265625;16.79575409704164;5.135420312219491;9.464842867676047;-0.94580078125;0.04931640625;-0.02099609375;54.0625;-26.1875;-24.5;
1441975778461549;-0.5181884765625;0.45245361328125;0.4442138671875;0.57391357421875;16.845675442955063;5.274943279540143;9.590726226034416;-0.99609375;0.08203125;-0.04296875;39.3125;-26.75;-4.875;
1441975778484551;-0.51312255859375;0.45489501953125;0.449462890625;0.5723876953125;16.915524235664652;5.420629060825701;9.734406930208145;-1.0419921875;0.0703125;-0.0263671875;16.625;-24.6875;11.25;
1441975778505552;-0.5081787109375;0.4580078125;0.45599365234375;0.56927490234375;17.002938110546996;5.584410816835091;9.902897959021201;-1.02587890625;0.04833984375;-0.00537109375;4.5625;-21.3125;25.4375;
1441975778521553;-0.50311279296875;0.4617919921875;0.463623046875;0.564453125;17.10779970478032;5.783525878191527;10.112494758322576;-0.9873046875;0.0380859375;-0.00537109375;-2.0;-18.3125;37.5625;
1441975778545554;-0.49835205078125;0.4659423828125;0.47210693359375;0.55816650390625;17.222413090483286;6.032774556356249;10.378697474622154;-0.9521484375;0.080078125;-0.00732421875;-7.9375;-15.375;46.8125;
1441975778573556;-0.49407958984375;0.46978759765625;0.48126220703125;0.5509033203125;17.33417661616098;6.366112341696625;10.73596085192842;-0.9521484375;0.12353515625;-0.02587890625;-14.4375;-13.6875;52.375;
1441975778581556;-0.4898681640625;0.4732666015625;0.49078369140625;0.543212890625;17.4329278948878;6.838882608296066;11.236107585210602;-0.9375;0.15673828125;-0.0361328125;-21.5;-13.25;54.3125;
1441975778612558;-0.4859619140625;0.4761962890625;0.50006103515625;0.53570556640625;17.504293139624153;7.453551435038122;11.8793409749001;-0.900390625;0.205078125;-0.03857421875;-25.375;-14.4375;53.8125;
1441975778633559;-0.48248291015625;0.478759765625;0.50836181640625;0.5286865234375;17.54420127110216;8.143769613885924;12.596170061376547;-0.90673828125;0.23388671875;-0.04736328125;-26.8125;-15.5;49.5;
1441975778642560;-0.47900390625;0.48126220703125;0.5155029296875;0.5225830078125;17.5531333257192;8.836109237051883;13.309334885456362;-0.9365234375;0.25244140625;-0.06103515625;-25.25;-15.75;42.9375;
1441975778664561;-0.4754638671875;0.4840087890625;0.52099609375;0.51788330078125;17.5400257296935;9.425384302263241;13.909809604432446;-0.93408203125;0.2705078125;-0.0615234375;-20.125;-15.0625;36.6875;
1441975778693562;-0.47186279296875;0.48681640625;0.52447509765625;0.5150146484375;17.516167074550673;9.848392765611399;14.332641628810817;-0.89892578125;0.28466796875;-0.06640625;-10.875;-14.0625;28.5625;
1441975778701563;-0.468017578125;0.4901123046875;0.52606201171875;0.5137939453125;17.491863780818598;10.15433741348328;14.626157953813191;-0.89013671875;0.25732421875;-0.0712890625;0.125;-13.75;19.875;
1441975778724564;-0.46405029296875;0.49365234375;0.52593994140625;0.51409912109375;17.471657076975834;10.361356630517164;14.81041827678969;-0.8974609375;0.255859375;-0.0654296875;11.75;-12.5;11.9375;
1441975778745565;-0.4600830078125;0.49688720703125;0.525146484375;0.51531982421875;17.45181772311897;10.497812945970567;14.920433508063672;-0.88427734375;0.22802734375;-0.07421875;21.9375;-12.4375;6.1875;
1441975778761566;-0.4566650390625;0.49951171875;0.5242919921875;0.51666259765625;17.4344172289145;10.58897455983112;14.987950022923883;-0.873046875;0.20361328125;-0.064453125;25.625;-13.25;2.4375;
1441975778784568;-0.45391845703125;0.5015869140625;0.52362060546875;0.517822265625;17.41983322608791;10.654466585526105;15.034351827411635;-0.861328125;0.16943359375;-0.0478515625;22.875;-12.625;1.3125;
1441975778808569;-0.4512939453125;0.50360107421875;0.5228271484375;0.5189208984375;17.40694174199626;10.715028134604479;15.07616390175648;-0.84521484375;0.1201171875;-0.0224609375;18.375;-10.4375;2.625;
1441975778829570;-0.44842529296875;0.50634765625;0.5218505859375;0.51971435546875;17.394957917544158;10.814162524927822;15.154095514642941;-0.85009765625;0.06884765625;0.00341796875;18.6875;-7.75;5.625;
1441975778860572;-0.44512939453125;0.5098876953125;0.5211181640625;0.51983642578125;17.378690674003504;10.968128774375286;15.285976202263129;-0.85205078125;0.0546875;0.0185546875;21.25;-4.125;9.9375;
1441975778866572;-0.4417724609375;0.51373291015625;0.52081298828125;0.519287109375;17.357627712081666;11.150091181683162;15.447950569533097;-0.85400390625;0.06298828125;0.02001953125;22.6875;-1.3125;15.8125;
1441975778880573;-0.43792724609375;0.51763916015625;0.5213623046875;0.51806640625;17.32351717698169;11.345009256692563;15.625651536937424;-0.873046875;0.048828125;0.01416015625;20.75;-0.1875;21.625;
1441975778895574;-0.43365478515625;0.521728515625;0.52294921875;0.51593017578125;17.27442221089512;11.552136706745918;15.819392203796959;-0.86767578125;0.0283203125;0.0263671875;18.25;-0.625;29.5;
1441975778917575;-0.4293212890625;0.52581787109375;0.52569580078125;0.5126953125;17.21126906907471;11.757608944476473;16.017774145647554;-0.84375;0.0302734375;0.04150390625;14.875;-0.375;37.5;
1441975778940577;-0.42510986328125;0.5299072265625;0.52935791015625;0.5081787109375;17.136316875869184;11.95883366031652;16.218531057998668;-0.81689453125;0.05078125;0.0458984375;8.9375;0.625;44.0625;
1441975778955577;-0.42095947265625;0.5338134765625;0.5338134765625;0.5028076171875;17.05056020593721;12.135807561581776;16.400449056499856;-0.81787109375;0.08056640625;0.0380859375;2.5625;2.125;48.8125;
1441975778977579;-0.41668701171875;0.53765869140625;0.5386962890625;0.49700927734375;16.95646746802771;12.28539182528512;16.557243147370535;-0.8232421875;0.09521484375;0.0419921875;-2.875;2.875;53.3125;
1441975779000580;-0.412353515625;0.54156494140625;0.5435791015625;0.49102783203125;16.858637880176463;12.413511937573832;16.692738824869537;-0.8369140625;0.1328125;0.0537109375;-4.875;3.4375;54.625;
1441975779015581;-0.408203125;0.54522705078125;0.54840087890625;0.48504638671875;16.76129848904096;12.51775686135291;16.80541286661275;-0.8603515625;0.18798828125;0.056640625;-5.125;3.75;53.3125;
1441975779037582;-0.4046630859375;0.54803466796875;0.55328369140625;0.479248046875;16.669966308014764;12.591829128259157;16.89179973734975;-0.9013671875;0.23046875;0.05224609375;-6.5625;3.5;50.5625;
1441975779061584;-0.40203857421875;0.5498046875;0.5582275390625;0.47369384765625;16.58853878473265;12.640282203207159;16.957713940207494;-0.93115234375;0.24169921875;0.048828125;-10.6875;1.9375;47.1875;
1441975779083585;-0.40045166015625;0.5506591796875;0.56280517578125;0.46856689453125;16.52168806094435;12.672004173912478;17.010290317798848;-0.95556640625;0.2353515625;0.05126953125;-15.875;1.1875;42.6875;
1441975779106586;-0.39971923828125;0.55084228515625;0.56695556640625;0.4639892578125;16.468449632337503;12.691849314901939;17.052630239123207;-0.9814453125;0.22607421875;0.06494140625;-19.3125;2.1875;37.5625;
1441975779120587;-0.39959716796875;0.55047607421875;0.57098388671875;0.4595947265625;16.423103914704868;12.703894636811347;17.08967486386241;-0.986328125;0.1943359375;0.080078125;-20.4375;3.4375;33.0;
1441975779135588;-0.4002685546875;0.54962158203125;0.57513427734375;0.454833984375;16.382912878891315;12.715051342076066;17.130980703486937;-0.9423828125;0.1787109375;0.107421875;-22.6875;5.75;29.6875;
1441975779166590;-0.40179443359375;0.54779052734375;0.58001708984375;0.44940185546875;16.344607530052485;12.717319942702682;17.17279044069417;-0.90234375;0.17041015625;0.11181640625;-27.5625;7.9375;27.75;
1441975779180590;-0.4044189453125;0.544921875;0.58563232421875;0.4432373046875;16.310096191066307;12.712168131644992;17.217648273026857;-0.880859375;0.16796875;0.12255859375;-36.375;9.75;27.1875;
1441975779195591;-0.4080810546875;0.54083251953125;0.59185791015625;0.4366455078125;16.281785496512107;12.694952239322593;17.260030145790385;-0.89306640625;0.15576171875;0.10107421875;-47.0;9.625;27.0;
1441975779217592;-0.4119873046875;0.5361328125;0.59820556640625;0.42999267578125;16.256417249195213;12.670239735172053;17.297975062642323;-0.9296875;0.11962890625;0.08984375;-56.75;8.9375;27.75;
1441975779240594;-0.41552734375;0.531494140625;0.60430908203125;0.423828125;16.232008625112805;12.64131030962308;17.32838770481027;-0.97216796875;0.07275390625;0.07177734375;-60.0625;6.25;30.0;
1441975779263595;-0.41802978515625;0.52777099609375;0.60931396484375;0.41876220703125;16.208676759800127;12.616675782882615;17.351113854218585;-1.00927734375;0.04345703125;0.07080078125;-56.375;3.75;32.0;
1441975779277596;-0.41925048828125;0.52508544921875;0.61358642578125;0.41473388671875;16.181522015632126;12.594495685065382;17.36446517111965;-1.0654296875;0.03271484375;0.06201171875;-45.3125;0.3125;32.9375;
1441975779300597;-0.419189453125;0.5230712890625;0.6175537109375;0.41131591796875;16.146974455813577;12.571184108430154;17.36844002498006;-1.08837890625;0.04052734375;0.0595703125;-34.0625;-3.625;34.25;
1441975779323599;-0.418212890625;0.521728515625;0.621337890625;0.40826416015625;16.10597504465828;12.550179531502547;17.368565732259363;-1.03076171875;0.0537109375;0.076171875;-25.9375;-6.1875;35.1875;
1441975779337599;-0.41668701171875;0.52105712890625;0.62457275390625;0.4058837890625;16.06507391078035;12.53316297722901;17.365580127674047;-0.98583984375;0.0654296875;0.099609375;-19.4375;-7.3125;36.25;
1441975779360601;-0.41485595703125;0.52105712890625;0.62701416015625;0.40399169921875;16.02680381861705;12.524510938169964;17.364408680036057;-0.97802734375;0.08349609375;0.12060546875;-12.3125;-7.125;34.875;
1441975779383602;-0.4129638671875;0.521240234375;0.6292724609375;0.40216064453125;15.98888648225582;12.518672124517543;17.36464097906358;-0.9814453125;0.111328125;0.12060546875;-5.6875;-6.5625;32.5625;
1441975779397603;-0.4114990234375;0.52093505859375;0.63177490234375;0.400146484375;15.953504666496077;12.50893664765481;17.364885391156527;-0.958984375;0.1396484375;0.130859375;-4.375;-5.5;30.375;
1441975779420604;-0.41070556640625;0.520263671875;0.63409423828125;0.39813232421875;15.925682880013689;12.499118174260754;17.36751858525613;-0.92919921875;0.1533203125;0.14453125;-7.75;-3.9375;28.0625;
1441975779443605;-0.41046142578125;0.519287109375;0.63604736328125;0.396484375;15.907094749498103;12.487546942014413;17.36871785762449;-0.91650390625;0.1572265625;0.14990234375;-10.25;-2.0;24.375;
1441975779457606;-0.410888671875;0.518310546875;0.6373291015625;0.395263671875;15.899951005178455;12.47966345960795;17.37228553984886;-0.916015625;0.17041015625;0.15673828125;-10.4375;-0.3125;19.25;
1441975779480607;-0.41192626953125;0.516845703125;0.63836669921875;0.39447021484375;15.902623726572916;12.466781269367189;17.372036128208528;-0.9248046875;0.1865234375;0.14404296875;-9.5;0.9375;13.3125;
1441975779503609;-0.41363525390625;0.514892578125;0.63916015625;0.39398193359375;15.915013189577932;12.450050790712991;17.369658205966008;-0.9208984375;0.19921875;0.14990234375;-11.0625;2.3125;7.1875;
1441975779517610;-0.41595458984375;0.5125732421875;0.63946533203125;0.39410400390625;15.939143463033119;12.42950563958743;17.36302433748694;-0.90478515625;0.21435546875;0.15234375;-12.6875;3.4375;1.0625;
1441975779540611;-0.41864013671875;0.50994873046875;0.63909912109375;0.39520263671875;15.97559822568148;12.402568974212777;17.347071342132036;-0.89306640625;0.2099609375;0.1533203125;-12.6875;4.0;-5.375;
1441975779555612;-0.421630859375;0.5074462890625;0.63787841796875;0.397216796875;16.02342644649232;12.375101793097258;17.325862720008157;-0.8994140625;0.201171875;0.1591796875;-10.375;4.0;-12.0;
1441975779577613;-0.42474365234375;0.5048828125;0.63604736328125;0.40008544921875;16.079798944638085;12.342356002992144;17.295583251836;-0.91357421875;0.19921875;0.15283203125;-6.0625;3.8125;-18.25;
1441975779600614;-0.42803955078125;0.501953125;0.6339111328125;0.403564453125;16.142912747737025;12.299885951476265;17.254487472877933;-0.92626953125;0.212890625;0.146484375;-2.875;2.9375;-24.25;
1441975779623616;-0.431884765625;0.49853515625;0.63153076171875;0.407470703125;16.21468002700037;12.2474688323122;17.20444456096622;-0.935546875;0.2197265625;0.14892578125;-2.75;2.0;-29.8125;
1441975779637616;-0.435791015625;0.4947509765625;0.62890625;0.41192626953125;16.290956703676276;12.181550605399956;17.139838139877913;-0.9375;0.19580078125;0.14599609375;-3.6875;1.875;-34.0625;
1441975779668618;-0.43951416015625;0.49102783203125;0.62591552734375;0.4169921875;16.36929171477824;12.105085827014712;17.06113268903666;-0.9404296875;0.1650390625;0.1591796875;-2.9375;1.0625;-36.5;
1441975779683619;-0.44287109375;0.48779296875;0.62255859375;0.4222412109375;16.44535119485068;12.027233999230907;16.977012418614972;-0.94482421875;0.13818359375;0.16650390625;0.5;0.3125;-38.0;
1441975779697620;-0.44598388671875;0.48480224609375;0.6192626953125;0.42724609375;16.51634910813325;11.947201541028637;16.89023670720734;-0.9384765625;0.138671875;0.16552734375;4.3125;0.1875;-38.25;
1441975779720621;-0.44927978515625;0.4814453125;0.6162109375;0.43194580078125;16.585533689649125;11.856064725632264;16.795583900857114;-0.94580078125;0.14111328125;0.16162109375;4.9375;0.5;-37.5625;
1441975779743623;-0.4525146484375;0.47796630859375;0.61370849609375;0.43597412109375;16.647092599927177;11.760190902944803;16.699953397922393;-0.9677734375;0.1279296875;0.16162109375;1.625;0.0625;-36.3125;
1441975779757623;-0.4556884765625;0.4744873046875;0.61151123046875;0.4395751953125;16.703299814591606;11.66044056473875;16.602416659505792;-0.98095703125;0.12646484375;0.15576171875;-1.9375;-0.25;-33.9375;
1441975779780625;-0.45855712890625;0.47125244140625;0.609619140625;0.4427490234375;16.751912387023886;11.561889672194976;16.506643745124677;-0.98828125;0.109375;0.15869140625;-4.125;-0.25;-30.8125;
1441975779803626;-0.46099853515625;0.46832275390625;0.60784912109375;0.44561767578125;16.79366741527812;11.466094536172328;16.412815920458677;-0.9853515625;0.0947265625;0.15283203125;-4.125;-0.75;-27.0625;
1441975779817627;-0.46258544921875;0.46600341796875;0.60650634765625;0.44830322265625;16.822958521852957;11.377450326150594;16.323684300464492;-1.0087890625;0.07763671875;0.1474609375;-3.25;-1.5625;-22.8125;
1441975779840628;-0.463623046875;0.46417236328125;0.6053466796875;0.45068359375;16.84446663749979;11.299736494022717;16.24394737297035;-1.00048828125;0.07421875;0.140625;-0.75;-3.9375;-17.875;
1441975779863629;-0.464111328125;0.46307373046875;0.60443115234375;0.4525146484375;16.85787288767303;11.244763160839833;16.18557714733552;-0.97021484375;0.06494140625;0.1435546875;1.1875;-4.25;-13.5;
1441975779877630;-0.46405029296875;0.4625244140625;0.60406494140625;0.45367431640625;16.86133798344368;11.211940537245399;16.149735588034538;-0.96435546875;0.0732421875;0.13623046875;2.625;-3.5625;-8.4375;
1441975779900632;-0.46356201171875;0.46197509765625;0.6043701171875;0.45428466796875;16.855421419597135;11.187748621004285;16.124869619187283;-0.95751953125;0.09375;0.1201171875;2.5625;-5.1875;-3.5;
1441975779915632;-0.462646484375;0.46173095703125;0.60498046875;0.45465087890625;16.843268959087425;11.174417759951286;16.11035225761442;-0.94677734375;0.095703125;0.125;0.3125;-6.375;1.0;
1441975779937634;-0.46087646484375;0.4625244140625;0.6053466796875;0.45513916015625;16.825757758133953;11.182194769814028;16.110444006209242;-0.955078125;0.08203125;0.1337890625;1.625;-7.0625;5.5625;
1441975779960635;-0.4583740234375;0.4642333984375;0.60552978515625;0.4556884765625;16.803400183256635;11.208607176915882;16.12372014789836;-0.955078125;0.09716796875;0.13330078125;8.0;-7.125;8.75;
1441975779991637;-0.4556884765625;0.46624755859375;0.605712890625;0.4560546875;16.779211636894697;11.243785797164051;16.144892524053134;-0.9638671875;0.1279296875;0.13134765625;13.3125;-7.1875;10.6875;
1441975780005638;-0.4530029296875;0.4681396484375;0.60614013671875;0.45623779296875;16.752903825613217;11.277862646988707;16.166547965176562;-0.9716796875;0.13525390625;0.1240234375;14.0625;-7.375;12.3125;
1441975780021638;-0.45037841796875;0.469970703125;0.6068115234375;0.45611572265625;16.72483865843613;11.313968181984894;16.1921688866569;-0.9619140625;0.138671875;0.13037109375;12.9375;-7.25;13.625;
1441975780043640;-0.4478759765625;0.4716796875;0.6075439453125;0.455810546875;16.697020628875325;11.349225436356091;16.218364035001223;-0.9375;0.14111328125;0.1357421875;11.0;-6.5625;14.75;
1441975780057640;-0.445556640625;0.4735107421875;0.60809326171875;0.4554443359375;16.671868651104134;11.387185386352439;16.247069932901127;-0.931640625;0.13818359375;0.14501953125;10.0;-5.4375;15.125;
1441975780080642;-0.443603515625;0.4752197265625;0.60882568359375;0.45458984375;16.647656070574364;11.428872134365955;16.282847981303192;-0.927734375;0.140625;0.14599609375;10.0;-3.9375;15.375;
1441975780103643;-0.442138671875;0.47662353515625;0.60980224609375;0.45318603515625;16.624866739563092;11.47155901053177;16.324215509825457;-0.9267578125;0.15625;0.138671875;7.0;-2.3125;15.25;
1441975780117644;-0.44134521484375;0.47760009765625;0.61090087890625;0.45147705078125;16.606417242882774;11.510067321006762;16.365788738164504;-0.93310546875;0.17822265625;0.14208984375;2.4375;-0.75;14.75;
1441975780140645;-0.441162109375;0.47802734375;0.61199951171875;0.44976806640625;16.59336824581675;11.538571302223177;16.400688612988297;-0.951171875;0.1806640625;0.125;-2.25;0.0625;13.1875;
1441975780163647;-0.44110107421875;0.47833251953125;0.61297607421875;0.4481201171875;16.58230279900864;11.564132681226571;16.43283451414095;-0.9482421875;0.1669921875;0.13232421875;-5.5;0.75;11.625;
1441975780177647;-0.4412841796875;0.478759765625;0.61358642578125;0.44671630859375;16.576253407099077;11.589836183975661;16.46367159399849;-0.9345703125;0.16552734375;0.1328125;-5.625;1.875;10.375;
1441975780200649;-0.441650390625;0.47918701171875;0.61383056640625;0.44549560546875;16.574669467180144;11.61461675415744;16.492531078961587;-0.93310546875;0.16455078125;0.13330078125;-4.125;3.0;8.625;
1441975780223650;-0.44219970703125;0.47943115234375;0.61407470703125;0.4443359375;16.57485675581179;11.635599491150527;16.518460509768214;-0.95361328125;0.16552734375;0.12451171875;-3.3125;3.5;6.875;
1441975780237651;-0.443115234375;0.47930908203125;0.6142578125;0.44329833984375;16.579193847658185;11.649434892569824;16.538813011695392;-0.96484375;0.1572265625;0.11865234375;-4.125;3.1875;6.0;
1441975780260652;-0.44384765625;0.47918701171875;0.614501953125;0.44244384765625;16.58190249951552;11.660034409938214;16.555037953322493;-0.96826171875;0.13720703125;0.11376953125;-5.75;2.75;5.5;
1441975780283653;-0.44427490234375;0.47930908203125;0.61431884765625;0.44207763671875;16.585889389633234;11.66930144420302;16.565711224905183;-0.962890625;0.12548828125;0.1259765625;-4.625;2.5;5.6875;
1441975780297654;-0.44427490234375;0.47991943359375;0.61395263671875;0.44195556640625;16.587536151331577;11.683622982922538;16.577547607145238;-0.96923828125;0.1123046875;0.125;-0.625;2.0625;5.875;
1441975780320656;-0.444091796875;0.48077392578125;0.61346435546875;0.44183349609375;16.58816763111717;11.702458302990234;16.592327894428646;-0.9736328125;0.11962890625;0.12451171875;3.25;1.3125;6.3125;
1441975780343657;-0.4437255859375;0.4815673828125;0.6131591796875;0.4417724609375;16.586110123934525;11.717968269432673;16.603782686887946;-0.98779296875;0.126953125;0.115234375;4.75;1.0;6.8125;
1441975780358658;-0.4432373046875;0.482177734375;0.61297607421875;0.44183349609375;16.582642627055517;11.727537326554575;16.609483980537103;-0.99267578125;0.12890625;0.12158203125;4.75;-0.25;7.3125;
1441975780380659;-0.442626953125;0.48297119140625;0.61273193359375;0.44195556640625;16.578482098152264;11.73940024659384;16.616236371449716;-0.9794921875;0.13330078125;0.12841796875;4.5;-0.6875;6.9375;
1441975780403660;-0.44195556640625;0.48382568359375;0.61236572265625;0.44219970703125;16.574884441063002;11.751004934585177;16.621675157053364;-0.9716796875;0.1455078125;0.13671875;5.8125;-0.5;6.25;
1441975780417661;-0.4415283203125;0.4844970703125;0.61212158203125;0.4422607421875;16.57226198379789;11.761989804059912;16.628604022350935;-0.9560546875;0.16162109375;0.13232421875;6.6875;-0.25;4.875;
1441975780440662;-0.44146728515625;0.484619140625;0.612060546875;0.44219970703125;16.571855736582318;11.765144551815377;16.631242437203795;-0.93798828125;0.17822265625;0.1240234375;4.0;-0.3125;3.25;
1441975780463664;-0.44189453125;0.4844970703125;0.6119384765625;0.442138671875;16.576369110892166;11.765651070661269;16.633133289150074;-0.93359375;0.1845703125;0.1240234375;0.5625;0.0;1.25;
1441975780477665;-0.44256591796875;0.484130859375;0.61151123046875;0.4423828125;16.586228056405023;11.759756863366633;16.62827152888221;-0.94189453125;0.1875;0.12646484375;-1.375;0.6875;-1.0625;
1441975780500666;-0.44342041015625;0.483642578125;0.6109619140625;0.44287109375;16.599290900108635;11.749189742785308;16.618526833186024;-0.9482421875;0.177734375;0.11962890625;-1.25;0.6875;-3.375;
1441975780523667;-0.4443359375;0.483154296875;0.610107421875;0.443603515625;16.615635295549914;11.7365791603326;16.605332174719617;-0.9501953125;0.17138671875;0.1181640625;-1.3125;0.5625;-5.5;
1441975780537668;-0.4453125;0.48272705078125;0.6092529296875;0.4443359375;16.632401479035785;11.724920157771496;16.593066651166602;-0.9521484375;0.169921875;0.11328125;0.125;0.6875;-6.9375;
1441975780560669;-0.44659423828125;0.48211669921875;0.6083984375;0.44488525390625;16.651523651217563;11.713173159648457;16.58265750873564;-0.953125;0.1845703125;0.115234375;-0.0625;1.125;-8.4375;
1441975780583671;-0.44818115234375;0.48101806640625;0.60772705078125;0.4453125;16.67219701095987;11.693729163463821;16.5677357597667;-0.95703125;0.2001953125;0.10986328125;-2.0625;1.6875;-10.125;
1441975780597671;-0.4501953125;0.4796142578125;0.60711669921875;0.44573974609375;16.69637855248494;11.668686287315728;16.54946160217017;-0.95068359375;0.19140625;0.11376953125;-5.1875;1.9375;-11.0625;
1441975780619673;-0.452392578125;0.4781494140625;0.6063232421875;0.44610595703125;16.72329742756025;11.644003353235236;16.53191828648664;-0.95947265625;0.16845703125;0.1162109375;-7.4375;2.6875;-11.75;
1441975780643674;-0.45458984375;0.47674560546875;0.60565185546875;0.44635009765625;16.7489394621431;11.621052018231158;16.51661749968844;-0.9638671875;0.15380859375;0.1103515625;-7.875;3.4375;-11.625;
1441975780665675;-0.45684814453125;0.47528076171875;0.60516357421875;0.44622802734375;16.77300592322591;11.60156257422457;16.50674119115348;-0.9658203125;0.1513671875;0.11376953125;-7.875;3.8125;-11.0625;
1441975780680676;-0.45928955078125;0.4736328125;0.6048583984375;0.44586181640625;16.796949175743638;11.581502694145634;16.498582880432167;-0.95849609375;0.15771484375;0.1142578125;-10.125;4.75;-10.375;
1441975780703677;-0.461669921875;0.4720458984375;0.604736328125;0.44525146484375;16.818460176661365;11.565459234749875;16.495325575651712;-0.97021484375;0.15283203125;0.11083984375;-12.125;4.9375;-9.5625;
1441975780718678;-0.4638671875;0.470458984375;0.60479736328125;0.44464111328125;16.837059303823835;11.547739057013306;16.490386478010187;-0.9619140625;0.14306640625;0.1123046875;-12.875;5.0625;-8.25;
1441975780741680;-0.4659423828125;0.46929931640625;0.60479736328125;0.44366455078125;16.85393509860957;11.545620208541933;16.500370700750977;-0.9580078125;0.14013671875;0.13232421875;-12.625;5.75;-6.8125;
1441975780762681;-0.46807861328125;0.4681396484375;0.60498046875;0.4423828125;16.869384931313682;11.548535848037526;16.516976546027;-0.9599609375;0.1494140625;0.115234375;-12.125;6.3125;-5.3125;
1441975780777682;-0.47015380859375;0.46697998046875;0.60528564453125;0.44091796875;16.8830424147324;11.554383413303682;16.537240473871805;-0.9541015625;0.1494140625;0.10986328125;-13.4375;6.625;-4.125;
1441975780800683;-0.47210693359375;0.46600341796875;0.60565185546875;0.43939208984375;16.894876818726036;11.565116717935638;16.56184729106497;-0.95068359375;0.14599609375;0.10205078125;-14.3125;6.375;-2.75;
1441975780822684;-0.47369384765625;0.4654541015625;0.60577392578125;0.4381103515625;16.90538277725838;11.581363171155862;16.58827414097552;-0.95849609375;0.14013671875;0.10400390625;-13.3125;6.25;-1.375;
1441975780837685;-0.47467041015625;0.46539306640625;0.60577392578125;0.4371337890625;16.91162776160275;11.601847956753344;16.61454818756054;-0.95751953125;0.13037109375;0.0927734375;-10.0;5.625;0.0625;
1441975780860686;-0.4752197265625;0.4659423828125;0.60552978515625;0.43634033203125;16.915595757401345;11.632793834225089;16.6470527968069;-0.95458984375;0.13037109375;0.0947265625;-5.3125;4.75;1.6875;
1441975780882688;-0.475341796875;0.46661376953125;0.60540771484375;0.43560791015625;16.91491665380537;11.663187578559324;16.67763722190494;-0.95751953125;0.1220703125;0.0791015625;-1.3125;3.8125;3.5;
1441975780897689;-0.47509765625;0.46771240234375;0.605224609375;0.43487548828125;16.910847220147236;11.702036480510898;16.714227550060155;-0.9619140625;0.12060546875;0.09619140625;0.5;3.5625;5.6875;
1441975780920690;-0.47454833984375;0.46905517578125;0.6051025390625;0.43426513671875;16.903520371288266;11.741995022311976;16.750146332709445;-0.97265625;0.126953125;0.099609375;2.875;3.1875;7.3125;
1441975780942691;-0.4737548828125;0.47064208984375;0.60498046875;0.43353271484375;16.893225008955426;11.787974395741507;16.79106655824051;-0.97705078125;0.1220703125;0.10791015625;4.9375;3.375;9.1875;
1441975780957692;-0.472900390625;0.4722900390625;0.6051025390625;0.4326171875;16.879807968480808;11.835758984635088;16.834650790559074;-0.97705078125;0.126953125;0.10302734375;6.0;3.25;10.75;
1441975780980693;-0.47210693359375;0.47381591796875;0.6053466796875;0.43145751953125;16.865273284180123;11.883646030002263;16.879957941195293;-0.97607421875;0.1357421875;0.10693359375;5.125;3.3125;11.9375;
1441975781002695;-0.47137451171875;0.47528076171875;0.60565185546875;0.43017578125;16.85027161143279;11.931072449405963;16.9256943569852;-0.9677734375;0.13525390625;0.10205078125;3.6875;3.375;13.0;
1441975781019696;-0.4705810546875;0.47674560546875;0.60589599609375;0.428955078125;16.835094859253985;11.976399452972185;16.968820586827214;-0.9736328125;0.13720703125;0.09912109375;2.6875;3.5625;13.1875;
1441975781040697;-0.4697265625;0.47833251953125;0.60614013671875;0.42791748046875;16.819482234659148;12.019598181284909;17.008706760382843;-0.96826171875;0.14208984375;0.1044921875;3.4375;3.4375;13.0;
1441975781062698;-0.46881103515625;0.47991943359375;0.60626220703125;0.42694091796875;16.80418286360105;12.061358585659484;17.046483123958723;-0.96435546875;0.15234375;0.10205078125;4.4375;3.25;12.3125;
1441975781077699;-0.4681396484375;0.481201171875;0.6063232421875;0.42608642578125;16.792241112915622;12.096137884121294;17.078328488175842;-0.96533203125;0.17138671875;0.103515625;4.6875;3.25;10.9375;
1441975781099700;-0.4677734375;0.4820556640625;0.60638427734375;0.4254150390625;16.784347119035196;12.120912101000634;17.101730425127254;-0.974609375;0.1787109375;0.08984375;3.5625;2.625;8.8125;
1441975781122701;-0.46771240234375;0.4825439453125;0.6064453125;0.4249267578125;16.780440415579097;12.137271260459006;17.11808958458563;-0.974609375;0.17529296875;0.0908203125;1.75;2.125;6.5;
1441975781137702;-0.46771240234375;0.48291015625;0.6063232421875;0.42462158203125;16.77921563294913;12.150231706685078;17.13053904919422;-0.96484375;0.1748046875;0.09619140625;0.6875;2.0625;4.0;
1441975781160704;-0.46807861328125;0.4830322265625;0.6060791015625;0.424560546875;16.783286668588683;12.157914834549732;17.138353231886363;-0.95556640625;0.18603515625;0.10302734375;0.6875;2.5;1.4375;
1441975781182705;-0.46875;0.48272705078125;0.605712890625;0.424560546875;16.79197478504093;12.159422283181723;17.141612887236274;-0.94873046875;0.18701171875;0.09619140625;0.0625;2.75;-1.3125;
1441975781200706;-0.46978759765625;0.482177734375;0.60528564453125;0.4246826171875;16.80511707760624;12.157072404170059;17.142196942469297;-0.95166015625;0.18017578125;0.09619140625;-1.75;2.75;-3.6875;
1441975781220707;-0.47100830078125;0.48150634765625;0.604736328125;0.42486572265625;16.821105919134027;12.153552508417956;17.14196048881044;-0.95263671875;0.18212890625;0.091796875;-2.8125;3.0;-5.75;
1441975781242708;-0.47247314453125;0.4805908203125;0.60406494140625;0.42529296875;16.84142056036959;12.143657116953921;17.135667696464438;-0.9501953125;0.185546875;0.08740234375;-3.5;3.4375;-7.875;
1441975781257709;-0.4739990234375;0.4793701171875;0.603271484375;0.426025390625;16.864936564929927;12.12345712561385;17.118908921106488;-0.962890625;0.1767578125;0.07958984375;-4.0;2.875;-9.875;
1441975781280710;-0.47540283203125;0.4783935546875;0.602294921875;0.427001953125;16.88892470362364;12.104117910602596;17.1006886736755;-0.96826171875;0.1640625;0.087890625;-3.625;2.1875;-11.25;
1441975781302712;-0.47674560546875;0.4775390625;0.60113525390625;0.4281005859375;16.913754127390977;12.085618906536375;17.08190825835072;-0.958984375;0.15966796875;0.08056640625;-1.5625;2.0625;-12.0625;
1441975781317713;-0.47802734375;0.4765625;0.60015869140625;0.42901611328125;16.936444057824097;12.064922289673126;17.062200640908582;-0.96240234375;0.1650390625;0.08837890625;-0.1875;2.4375;-12.625;
1441975781340714;-0.4796142578125;0.4754638671875;0.599365234375;0.42962646484375;16.95954748965419;12.046836220177376;17.04771184992834;-0.966796875;0.17236328125;0.08984375;-1.4375;2.4375;-12.8125;
1441975781362715;-0.4814453125;0.47393798828125;0.59881591796875;0.4300537109375;16.983294442687512;12.021200866634356;17.02885079091053;-0.97216796875;0.1748046875;0.0830078125;-4.0;2.875;-12.9375;
1441975781377716;-0.4832763671875;0.472412109375;0.59820556640625;0.4305419921875;17.007604507112937;11.993829172548985;17.007901102005075;-0.96533203125;0.1591796875;0.09033203125;-6.9375;3.0625;-12.5;
1441975781400717;-0.48480224609375;0.4713134765625;0.59759521484375;0.430908203125;17.028005302733234;11.976068040166059;16.994811868668705;-0.96533203125;0.1337890625;0.08251953125;-6.75;2.8125;-11.375;
1441975781422719;-0.4862060546875;0.47039794921875;0.59710693359375;0.43096923828125;17.04515091957167;11.966696252508381;16.99049191108116;-0.9775390625;0.13818359375;0.08203125;-4.9375;2.9375;-10.0;
1441975781453720;-0.487548828125;0.46929931640625;0.59686279296875;0.43096923828125;17.0602841709835;11.951097993255031;16.981183440840898;-0.978515625;0.1552734375;0.07080078125;-5.375;2.8125;-8.6875;
1441975781460721;-0.48870849609375;0.46832275390625;0.5966796875;0.43096923828125;17.0732041535079;11.936336328643325;16.97201162483157;-0.984375;0.1435546875;0.07861328125;-6.5;2.25;-7.625;
1441975781482722;-0.48956298828125;0.4676513671875;0.5966796875;0.4307861328125;17.08108850723155;11.929286742068014;16.96985231734552;-0.97607421875;0.13232421875;0.08349609375;-5.8125;2.125;-5.75;
1441975781497723;-0.490234375;0.46728515625;0.59674072265625;0.4302978515625;17.085438738967742;11.934979724008391;16.98011889319424;-0.9609375;0.13427734375;0.08837890625;-4.6875;2.1875;-3.875;
1441975781520724;-0.49102783203125;0.466796875;0.59710693359375;0.429443359375;17.08774588850105;11.943757680893158;16.99610618343737;-0.9609375;0.1474609375;0.0810546875;-4.9375;2.5625;-2.1875;
1441975781542725;-0.49176025390625;0.4661865234375;0.59771728515625;0.42840576171875;17.087516431019925;11.950733272152629;17.01172150547878;-0.95947265625;0.1435546875;0.072265625;-7.0;2.1875;-0.6875;
1441975781557726;-0.4923095703125;0.46575927734375;0.59832763671875;0.4273681640625;17.0853645710366;11.961022794937389;17.02960355530726;-0.95849609375;0.14453125;0.07763671875;-8.375;2.0625;0.625;
1441975781580728;-0.4925537109375;0.4656982421875;0.59881591796875;0.42645263671875;17.081108575490404;11.97676094455073;17.050298902292152;-0.9560546875;0.13818359375;0.08251953125;-7.375;2.0625;1.875;
1441975781602729;-0.49267578125;0.4658203125;0.5992431640625;0.425537109375;17.075816274321898;11.996622694785996;17.07407097425172;-0.9716796875;0.142578125;0.0791015625;-5.0;1.625;2.8125;
1441975781618730;-0.49273681640625;0.46588134765625;0.599853515625;0.42462158203125;17.06884620410487;12.012364856690747;17.09422970862113;-0.97021484375;0.14208984375;0.064453125;-3.6875;1.0;3.75;
1441975781640731;-0.49273681640625;0.46588134765625;0.6005859375;0.42352294921875;17.060033862041074;12.028532015165698;17.115739991040137;-0.96728515625;0.13916015625;0.07568359375;-4.375;0.6875;4.6875;
1441975781662732;-0.49261474609375;0.466064453125;0.60125732421875;0.42254638671875;17.050575078762034;12.04589782577197;17.13701746796466;-0.9697265625;0.14111328125;0.0732421875;-4.9375;0.5625;5.375;
1441975781679733;-0.492431640625;0.46636962890625;0.60186767578125;0.42156982421875;17.040689796123687;12.065968659781426;17.160302275301962;-0.97021484375;0.13671875;0.0751953125;-3.8125;0.5625;6.0625;
1441975781700734;-0.4921875;0.46661376953125;0.60260009765625;0.42047119140625;17.029150817479394;12.08488663358913;17.183169327113365;-0.97265625;0.13720703125;0.07568359375;-3.125;0.5;6.6875;
1441975781722736;-0.49200439453125;0.4669189453125;0.60345458984375;0.419189453125;17.016379429190227;12.10762858705016;17.210715504553217;-0.96875;0.13720703125;0.078125;-3.25;0.625;7.5;
1441975781738737;-0.49200439453125;0.46697998046875;0.60443115234375;0.41766357421875;17.003938569430325;12.129133434805478;17.23934993122059;-0.96240234375;0.14013671875;0.07666015625;-4.6875;1.0625;8.0625;
1441975781759738;-0.4921875;0.466796875;0.60552978515625;0.416015625;16.99228334804956;12.147058043693105;17.266344371552027;-0.9755859375;0.14990234375;0.0771484375;-6.625;1.25;8.125;
1441975781782739;-0.49237060546875;0.46649169921875;0.60675048828125;0.4144287109375;16.98032819626366;12.15926349721585;17.28812585142301;-0.978515625;0.13916015625;0.072265625;-8.75;1.0;8.125;
1441975781799740;-0.49249267578125;0.46624755859375;0.60784912109375;0.412841796875;16.968505546894562;12.173229118540938;17.31100979200458;-0.9580078125;0.1376953125;0.08349609375;-9.125;1.0625;8.375;
1441975781819741;-0.49267578125;0.4661865234375;0.60888671875;0.41131591796875;16.957225983185403;12.190787195962004;17.33671162747414;-0.95361328125;0.1357421875;0.08544921875;-8.3125;1.5625;8.1875;
1441975781842743;-0.49285888671875;0.4659423828125;0.60992431640625;0.40972900390625;16.946205887172855;12.205064059651072;17.359910496562748;-0.9482421875;0.1435546875;0.0771484375;-7.625;1.5625;7.9375;
1441975781860744;-0.493408203125;0.46551513671875;0.6109619140625;0.40802001953125;16.93808800689444;12.220320292081455;17.385989557068818;-0.943359375;0.15185546875;0.07861328125;-8.6875;1.625;7.25;
1441975781879745;-0.49407958984375;0.46484375;0.6119384765625;0.406494140625;16.93278367886641;12.228534126860456;17.4053762592666;-0.9560546875;0.1533203125;0.0673828125;-10.25;1.875;6.0625;
1441975781902746;-0.49468994140625;0.46417236328125;0.61285400390625;0.4051513671875;16.928132777485644;12.233506927847722;17.420630106526723;-0.9560546875;0.1494140625;0.08154296875;-10.9375;2.0625;4.9375;
1441975781918747;-0.495361328125;0.4637451171875;0.61346435546875;0.4039306640625;16.925690509890313;12.245209926882195;17.4408288362203;-0.93896484375;0.1572265625;0.08740234375;-9.8125;2.4375;3.8125;
1441975781940748;-0.49639892578125;0.46307373046875;0.6138916015625;0.4027099609375;16.928055276281512;12.256950217414568;17.46230660302603;-0.94775390625;0.16943359375;0.080078125;-8.0625;3.25;1.9375;
1441975781962749;-0.497802734375;0.4617919921875;0.614501953125;0.40155029296875;16.93426584304135;12.256054165831157;17.474284701493563;-0.96923828125;0.16943359375;0.06884765625;-9.625;3.375;0.1875;
1441975781979750;-0.49932861328125;0.46038818359375;0.61505126953125;0.400390625;16.942222835453716;12.25442252763861;17.48607038680798;-0.9697265625;0.15966796875;0.07861328125;-12.5625;3.3125;-1.375;
1441975781999752;-0.50091552734375;0.45904541015625;0.615478515625;0.39935302734375;16.9517671836939;12.25391443541301;17.49823620481227;-0.94970703125;0.15087890625;0.07421875;-13.1875;3.6875;-2.1875;
1441975782022753;-0.50250244140625;0.457763671875;0.61590576171875;0.398193359375;16.96059818819998;12.257043235391324;17.514233469906525;-0.9404296875;0.15283203125;0.0849609375;-12.4375;4.6875;-2.8125;
1441975782038754;-0.50421142578125;0.4564208984375;0.6162109375;0.39703369140625;16.97136719381423;12.261600853111988;17.531854949564867;-0.93017578125;0.16064453125;0.07666015625;-12.4375;5.0625;-3.3125;
1441975782059755;-0.50604248046875;0.45513916015625;0.61639404296875;0.39593505859375;16.983916194363506;12.2692273984726;17.552148092857138;-0.9443359375;0.15771484375;0.078125;-12.875;5.4375;-3.625;
1441975782082756;-0.5076904296875;0.45391845703125;0.6165771484375;0.39495849609375;16.995355141037816;12.2744619276064;17.569003170476787;-0.94873046875;0.14501953125;0.06884765625;-12.3125;5.3125;-3.8125;
1441975782099757;-0.50921630859375;0.452880859375;0.61669921875;0.39398193359375;17.00561545579261;12.283543621622272;17.588660445395224;-0.9375;0.13818359375;0.06201171875;-11.25;5.0;-3.125;
1441975782119758;-0.51055908203125;0.45184326171875;0.61688232421875;0.39312744140625;17.014589459605844;12.287961242509974;17.602957122604806;-0.93310546875;0.1318359375;0.06591796875;-10.25;4.9375;-2.3125;
1441975782142760;-0.5115966796875;0.45123291015625;0.6170654296875;0.39215087890625;17.019199635391704;12.3012767306635;17.624413568329985;-0.92822265625;0.1162109375;0.07177734375;-9.5;4.5625;-0.8125;
1441975782158761;-0.5125732421875;0.45086669921875;0.61724853515625;0.3909912109375;17.0216303832202;12.323037918874519;17.653968074030036;-0.9248046875;0.12939453125;0.0712890625;-7.875;4.75;0.625;
1441975782179762;-0.5135498046875;0.45050048828125;0.6175537109375;0.38970947265625;17.022653682220145;12.34562045600718;17.685038206943698;-0.94140625;0.13671875;0.068359375;-7.25;5.125;1.625;
1441975782202763;-0.51434326171875;0.45025634765625;0.61798095703125;0.3883056640625;17.020433709066797;12.369590518996318;17.717347606458762;-0.94091796875;0.1337890625;0.06591796875;-8.0;5.0;2.6875;
1441975782218764;-0.51507568359375;0.4503173828125;0.6181640625;0.38690185546875;17.018050166618124;12.402721426787604;17.7570823546282;-0.9267578125;0.1435546875;0.0732421875;-7.6875;5.4375;3.25;
1441975782240765;-0.51580810546875;0.4505615234375;0.61834716796875;0.38543701171875;17.014505614823847;12.440737524356617;17.801303271710765;-0.91455078125;0.15283203125;0.0654296875;-5.9375;6.3125;3.3125;
1441975782262767;-0.51678466796875;0.45068359375;0.618408203125;0.38385009765625;17.01320101805041;12.482629113872436;17.85049348609067;-0.91357421875;0.1728515625;0.06591796875;-5.6875;7.0;2.5625;
1441975782278768;-0.51788330078125;0.45050048828125;0.61859130859375;0.38232421875;17.013347577465403;12.516564976550264;17.893115991919217;-0.91357421875;0.1728515625;0.0517578125;-6.625;7.375;1.75;
1441975782300769;-0.51922607421875;0.4500732421875;0.61871337890625;0.3807373046875;17.016165194669714;12.550355372751543;17.93703407528884;-0.90478515625;0.17333984375;0.0595703125;-8.3125;7.4375;0.8125;
1441975782330771;-0.5206298828125;0.449462890625;0.6190185546875;0.3790283203125;17.01830331656047;12.580710571219916;17.97910460828399;-0.86962890625;0.1572265625;0.044921875;-9.6875;7.125;0.125;
1441975782338771;-0.52191162109375;0.44921875;0.61920166015625;0.37725830078125;17.01822850648327;12.620160787561657;0.028682446470433706;-0.81689453125;0.1435546875;0.06005859375;-10.9375;8.0;0.375;
1441975782359772;-0.5230712890625;0.4493408203125;0.61920166015625;0.37554931640625;17.01681602908632;12.667269465527903;0.08378362626401466;-0.78076171875;0.142578125;0.0546875;-9.0625;9.25;1.6875;
1441975782382773;-0.52398681640625;0.44915771484375;0.61981201171875;0.37347412109375;17.009317856300072;12.70130345393689;0.12889592906397884;-0.74951171875;0.123046875;0.0263671875;-7.5625;8.0;3.5;
1441975782406775;-0.52447509765625;0.44903564453125;0.6209716796875;0.37103271484375;16.993286788652853;12.727530506727637;0.1675007069690864;-0.70751953125;0.1279296875;0.03173828125;-10.5;6.125;5.0625;
1441975782419776;-0.52459716796875;0.44903564453125;0.62225341796875;0.36865234375;16.97371635851448;12.747348673157967;0.19851632749122228;-0.6826171875;0.14453125;0.03759765625;-11.875;4.375;7.625;
1441975782442777;-0.5244140625;0.44903564453125;0.6236572265625;0.36651611328125;16.952681264462836;12.756592506952927;0.21772021124121346;-0.673828125;0.13720703125;0.02001953125;-11.125;2.0;9.625;
1441975782465778;-0.52349853515625;0.4490966796875;0.625244140625;0.3651123046875;16.929421178480766;12.743290563522667;0.2104549502627821;-0.6748046875;0.115234375;0.01025390625;-9.75;-0.8125;11.125;
1441975782480779;-0.52154541015625;0.4505615234375;0.6260986328125;0.36456298828125;16.901329333949494;12.741153034019113;0.20269135519903494;-0.642578125;0.07666015625;0.037109375;-5.875;-4.0;13.75;
1441975782502780;-0.518798828125;0.4532470703125;0.62652587890625;0.36444091796875;16.866859863939908;12.751264197294486;0.1988252503095852;-0.6123046875;0.08154296875;0.0546875;5.6875;-3.4375;15.4375;
1441975782527782;-0.515380859375;0.45654296875;0.6268310546875;0.36468505859375;16.827667368963;12.760547257296285;0.18900762242726962;-0.64404296875;0.10791015625;0.04736328125;14.125;-4.25;17.6875;
1441975782541783;-0.51123046875;0.45965576171875;0.6278076171875;0.36492919921875;16.78053569250393;12.749903067331946;0.15970867977209058;-0.69384765625;0.14306640625;0.03662109375;18.9375;-7.0;18.25;
1441975782562784;-0.50653076171875;0.462646484375;0.629638671875;0.364501953125;16.721573289385354;12.73089303343523;0.12537488836183777;-0.681640625;0.11767578125;0.0458984375;18.375;-11.4375;22.5625;
1441975782585785;-0.501953125;0.465087890625;0.63214111328125;0.36334228515625;16.658020244162056;12.707795904951887;0.09306761483496902;-0.6337890625;0.13720703125;0.0498046875;14.4375;-14.0625;26.4375;
1441975782601786;-0.49749755859375;0.46728515625;0.63494873046875;0.36181640625;16.59257548738748;12.685438575276656;0.06452879388907988;-0.62841796875;0.150390625;0.06982421875;8.6875;-13.75;28.3125;
1441975782622787;-0.49365234375;0.46923828125;0.6376953125;0.35968017578125;16.529496419841443;12.67429739247182;0.05133986658301485;-0.6728515625;0.1845703125;0.078125;5.9375;-13.4375;28.1875;
1441975782653789;-0.4908447265625;0.47027587890625;0.64044189453125;0.35736083984375;16.476790950988367;12.661703616506811;0.04282485607602803;-0.759765625;0.25146484375;0.06005859375;1.3125;-11.75;25.0625;
1441975782661789;-0.48785400390625;0.4700927734375;0.64404296875;0.35516357421875;16.423693699840616;12.622118921393426;0.01257208778240868;-0.82470703125;0.2265625;0.04248046875;-4.875;-11.25;23.875;
1441975782693791;-0.4840087890625;0.47088623046875;0.6473388671875;0.3533935546875;16.364105585917088;12.5903020758259;17.98266053600693;-0.7890625;0.14697265625;0.07421875;-10.0;-15.3125;27.3125;
1441975782704792;-0.4798583984375;0.47271728515625;0.64996337890625;0.35186767578125;16.303028992917202;12.575744281599173;17.963411731990384;-0.744140625;0.13671875;0.09814453125;-2.0625;-15.0625;30.3125;
1441975782721793;-0.475830078125;0.47479248046875;0.6527099609375;0.34930419921875;16.235650034434798;12.574605680807142;17.960792121446897;-0.76513671875;0.1689453125;0.08935546875;4.4375;-13.5625;30.875;
1441975782742794;-0.4727783203125;0.475830078125;0.65618896484375;0.3455810546875;16.16940535133898;12.570962338920674;17.96708325038129;-0.822265625;0.2626953125;0.087890625;1.3125;-11.25;30.625;
1441975782764795;-0.47076416015625;0.474853515625;0.66070556640625;0.34100341796875;16.10852766204388;12.5482936458041;17.968909183774098;-0.87939453125;0.32763671875;0.08544921875;-10.0625;-9.0625;28.6875;
1441975782781796;-0.46942138671875;0.47265625;0.66558837890625;0.33636474609375;16.05509531996453;12.513566427903402;17.965486021552323;-0.9169921875;0.32421875;0.10302734375;-24.6875;-9.5;26.9375;
1441975782802798;-0.46844482421875;0.4697265625;0.67083740234375;0.331298828125;16.002921745103567;12.474067638885296;17.962975642790056;-0.94775390625;0.28759765625;0.111328125;-31.4375;-9.9375;26.75;
1441975782824799;-0.46771240234375;0.466796875;0.67596435546875;0.32611083984375;15.95265158623019;12.438735923200632;17.96539039452025;-0.95751953125;0.275390625;0.11279296875;-36.875;-10.375;27.3125;
1441975782841800;-0.4671630859375;0.463623046875;0.680908203125;0.32110595703125;15.906677687229728;12.402360363480668;17.96702393115362;-0.97998046875;0.29638671875;0.099609375;-37.9375;-10.5;26.6875;
1441975782862801;-0.4666748046875;0.4609375;0.68524169921875;0.31646728515625;15.864685358031451;12.373942598034722;17.972482100851167;-1.02197265625;0.30810546875;0.1015625;-38.375;-10.625;25.1875;
1441975782884802;-0.46612548828125;0.458740234375;0.68902587890625;0.31219482421875;15.825400230200108;12.352076998872292;17.980206854313728;-1.04541015625;0.3056640625;0.10791015625;-34.125;-9.625;24.875;
1441975782901803;-0.4659423828125;0.45684814453125;0.6923828125;0.307861328125;15.789968533846649;12.338759476620632;17.995538166388677;-1.04248046875;0.32470703125;0.11279296875;-29.75;-8.125;22.9375;
1441975782922804;-0.46588134765625;0.453857421875;0.6966552734375;0.30255126953125;15.749439059715169;12.315045284245471;0.01002654371698474;-1.04443359375;0.30224609375;0.09375;-28.3125;-6.5625;24.25;
1441975782944806;-0.4652099609375;0.4515380859375;0.70086669921875;0.29730224609375;15.702423524310227;12.295628941617132;0.024820309649915214;-1.04052734375;0.30908203125;0.13525390625;-37.1875;-5.4375;26.1875;
1441975782961807;-0.46343994140625;0.45037841796875;0.7049560546875;0.29205322265625;15.64329350608429;12.283987691291019;0.040685325700609405;-1.0654296875;0.3359375;0.15869140625;-32.875;-6.0;29.125;
1441975782982808;-0.46173095703125;0.4500732421875;0.708740234375;0.2861328125;15.579791737820155;12.287073477337884;0.07015548072346323;-1.05908203125;0.353515625;0.16259765625;-26.1875;-8.0625;33.625;
1441975783005809;-0.4610595703125;0.4495849609375;0.712158203125;0.2794189453125;15.522878726498206;12.299028760611318;0.11346541458926783;-0.99267578125;0.39208984375;0.16455078125;-24.125;-3.5625;34.625;
1441975783022810;-0.4610595703125;0.44830322265625;0.715576171875;0.27252197265625;15.473047576493908;12.306153915920618;0.15692612210508483;-0.98583984375;0.41748046875;0.146484375;-28.5625;2.5;33.25;
1441975783042811;-0.46112060546875;0.44586181640625;0.7198486328125;0.2652587890625;15.421587055673442;12.298545314256268;0.1931205393996403;-1.00830078125;0.3994140625;0.11669921875;-34.0;1.6875;32.5;
1441975783065813;-0.46075439453125;0.44317626953125;0.7242431640625;0.25823974609375;15.368409720678189;12.28429842326681;0.2221122882506839;-1.01025390625;0.4228515625;0.14501953125;-41.3125;0.4375;31.375;
1441975783081813;-0.46014404296875;0.4423828125;0.72723388671875;0.25238037109375;15.319698550135612;12.288010888917587;0.2547186885180033;-1.0126953125;0.43701171875;0.189453125;-40.6875;-0.3125;30.5;
1441975783102815;-0.45892333984375;0.44305419921875;0.7293701171875;0.2470703125;15.267802877788283;12.303815915880264;0.2891449149030452;-1.01611328125;0.43212890625;0.17919921875;-25.8125;1.125;30.5;
1441975783133816;-0.4578857421875;0.4444580078125;0.73077392578125;0.24224853515625;15.220649161150696;12.32770131350217;0.3261341631080124;-1.03369140625;0.5009765625;0.20947265625;-15.125;3.125;29.25;
1441975783141817;-0.4569091796875;0.4449462890625;0.732421875;0.2381591796875;15.18020728450932;12.338079184134507;0.3509409056488625;-1.07470703125;0.5556640625;0.185546875;-10.75;3.5625;26.1875;
1441975783162818;-0.45611572265625;0.44549560546875;0.7335205078125;0.23529052734375;15.1504062517003;12.346709846825114;0.3686140895294112;-1.13232421875;0.61328125;0.21728515625;-12.9375;1.4375;19.625;
1441975783184819;-0.45623779296875;0.44586181640625;0.734130859375;0.2325439453125;15.131445707205067;12.35950602863808;0.39157119524974127;-1.09912109375;0.5576171875;0.23388671875;-7.0;1.75;16.4375;
1441975783201820;-0.45587158203125;0.4478759765625;0.73370361328125;0.230712890625;15.11213717484595;12.385742441189901;0.4154983956133519;-1.04052734375;0.51318359375;0.2578125;-6.1875;8.6875;13.5625;
1441975783222822;-0.4549560546875;0.45062255859375;0.7330322265625;0.22930908203125;15.08902577424293;12.414976520880003;0.4365589878707957;-1.0869140625;0.58447265625;0.25341796875;5.5625;8.625;11.5625;
1441975783244823;-0.45513916015625;0.451171875;0.73321533203125;0.227294921875;15.075628725398508;12.428029814950394;0.45569716332198923;-1.09130859375;0.6064453125;0.2216796875;10.1875;4.9375;11.6875;
1441975783262824;-0.45513916015625;0.45269775390625;0.73260498046875;0.22613525390625;15.065372038197001;12.44912012657466;0.4741881089996688;-1.0595703125;0.5732421875;0.23193359375;-3.3125;7.125;8.3125;
1441975783290825;-0.4556884765625;0.4541015625;0.73175048828125;0.22509765625;15.061536509091649;12.472298650509378;0.4954006971953807;-1.0458984375;0.55224609375;0.20849609375;4.625;6.375;7.875;
1441975783306826;-0.45587158203125;0.4552001953125;0.73101806640625;0.224853515625;15.060204074163448;12.487340578251285;0.5061934700411782;-1.00341796875;0.572265625;0.2041015625;4.3125;9.5625;2.875;
1441975783321827;-0.45538330078125;0.457275390625;0.72991943359375;0.2249755859375;15.053426674965161;12.508037608893073;0.5155982220343116;-1.04150390625;0.576171875;0.203125;5.3125;4.625;0.75;
1441975783343828;-0.45513916015625;0.45965576171875;0.72833251953125;0.22576904296875;15.053382161673726;12.532272222133278;0.5244821876356446;-1.03515625;0.60888671875;0.18896484375;11.5;2.5;1.0625;
1441975783365830;-0.4556884765625;0.4622802734375;0.72601318359375;0.226806640625;15.062906985786897;12.565308070690921;0.5405292323952564;-1.0009765625;0.56298828125;0.181640625;15.9375;3.75;-0.4375;
1441975783381831;-0.45574951171875;0.4637451171875;0.724853515625;0.2275390625;15.066659613187523;12.581275180792092;0.5462293112298312;-1.0;0.53515625;0.14208984375;17.625;6.6875;-1.9375;
1441975783402832;-0.45440673828125;0.46392822265625;0.72552490234375;0.22772216796875;15.053965443641236;12.57206196819083;0.5342710671134799;-0.99072265625;0.5263671875;0.1455078125;10.125;1.5;-0.875;
1441975783424833;-0.4532470703125;0.4638671875;0.726318359375;0.2276611328125;15.041629039784372;12.562049426430798;0.5239237913651573;-0.892578125;0.52490234375;0.20458984375;2.1875;-5.0625;1.125;
1441975783441834;-0.45166015625;0.46453857421875;0.7271728515625;0.22674560546875;15.017465437923986;12.559259523994104;0.5204638659208392;-0.86181640625;0.51025390625;0.23876953125;1.125;-1.75;1.5;
1441975783462835;-0.45086669921875;0.4647216796875;0.7279052734375;0.2255859375;15.00041171765907;12.557710493203658;0.5223186573247715;-0.83984375;0.59423828125;0.23046875;0.9375;-1.0625;2.125;
1441975783484837;-0.45245361328125;0.4642333984375;0.7271728515625;0.22564697265625;15.018044345976527;12.564690549154468;0.5326549514843211;-0.74609375;0.6142578125;0.24462890625;-1.75;4.5;-4.125;
1441975783508838;-0.4564208984375;0.46221923828125;0.724853515625;0.22918701171875;15.08830167455936;12.565131515388845;0.531064767902984;-0.66162109375;0.65087890625;0.24267578125;-1.5;15.1875;-24.6875;
1441975783523839;-0.46588134765625;0.4527587890625;0.72314453125;0.2344970703125;15.239624901582353;12.516954932691068;0.5141676739734499;-0.78125;0.5673828125;0.3466796875;6.9375;23.0625;-43.1875;
1441975783544840;-0.473388671875;0.438232421875;0.724609375;0.242431640625;15.396783527236112;12.37683049023027;0.41644559858632435;-0.927734375;0.43701171875;0.306640625;-28.5;26.25;-72.875;
1441975783561841;-0.5001220703125;0.41448974609375;0.71771240234375;0.25091552734375;15.780407310993885;12.279280852278594;0.41413220328223904;-1.0517578125;0.14208984375;0.26171875;-47.25;-8.5625;-68.1875;
1441975783583842;-0.51287841796875;0.3868408203125;0.728759765625;0.2369384765625;15.857853500826831;12.072466285891549;0.40504362627032914;-0.95068359375;-0.02490234375;0.4052734375;-92.75;79.3125;-170.625;
1441975783604843;-0.5096435546875;0.3768310546875;0.74102783203125;0.2215576171875;15.72717130595695;11.971653499900345;0.4147566921316608;-1.98974609375;0.34521484375;0.30078125;-197.6875;13.25;-30.625;
1441975783621844;-0.49603271484375;0.38714599609375;0.74591064453125;0.21820068359375;15.536912430910132;12.002427641292304;0.4038796867219327;-1.0576171875;-4.8828125E-4;0.41748046875;-107.625;-25.9375;64.875;
1441975783643846;-0.4847412109375;0.39984130859375;0.74755859375;0.21490478515625;15.372926198852719;12.082284298120982;0.43100316583947745;-0.6455078125;0.46533203125;0.3564453125;42.75;-38.5625;66.6875;
1441975783664847;-0.4791259765625;0.4095458984375;0.74578857421875;0.21551513671875;15.302900833405065;12.153768526991795;0.45029418229097223;-0.55029296875;0.62841796875;0.27978515625;53.6875;-19.875;52.8125;
1441975783681848;-0.47967529296875;0.4156494140625;0.74078369140625;0.21978759765625;15.331028339753656;12.218905430625263;0.4685128898468415;-0.82861328125;0.693359375;0.30126953125;52.75;-1.5;14.875;
1441975783703849;-0.47344970703125;0.42962646484375;0.7359619140625;0.22265625;15.265353639165523;12.32963547299173;0.4956643824457957;-1.39990234375;0.39990234375;0.26220703125;50.9375;10.6875;6.1875;
1441975783724850;-0.45916748046875;0.45068359375;0.731689453125;0.2249755859375;15.10188782486074;12.46007951201465;0.503142133782193;-1.37060546875;0.2939453125;0.18701171875;88.3125;-8.5625;57.1875;
1441975783741851;-0.44171142578125;0.46954345703125;0.73040771484375;0.2254638671875;14.898880604004532;12.54393980822184;0.4773602796831554;-1.35302734375;0.38525390625;0.23046875;124.5;-28.25;81.75;
1441975783763852;-0.42059326171875;0.49072265625;0.7275390625;0.23016357421875;14.691824321927706;12.622546218439243;0.41016830517610087;-1.3349609375;0.58740234375;0.23974609375;106.375;-47.25;93.5625;
1441975783784854;-0.40118408203125;0.5123291015625;0.7213134765625;0.23699951171875;14.525447685510345;12.721134810076608;0.3486066747066091;-1.2275390625;0.716796875;0.2451171875;135.875;-66.3125;87.9375;
1441975783801855;-0.386962890625;0.5279541015625;0.7164306640625;0.2412109375;14.401942853764703;12.795688086794826;0.3076898639052095;-1.1298828125;0.6669921875;0.1337890625;149.1875;-57.8125;70.875;
1441975783823856;-0.37396240234375;0.5389404296875;0.714599609375;0.24298095703125;14.27851959393899;12.833769056575289;0.26477501289584615;-1.28271484375;0.8662109375;0.00732421875;105.75;-41.9375;54.1875;
1441975783844857;-0.35797119140625;0.54718017578125;0.7159423828125;0.24462890625;14.128914662717321;12.830286181446205;0.1901074514331117;-1.34130859375;0.8349609375;0.02783203125;65.4375;-51.375;62.625;
1441975783875859;-0.339599609375;0.56549072265625;0.71002197265625;0.24639892578125;13.95485540315676;12.923234899015565;0.1510146325939949;-1.10107421875;0.78173828125;0.22607421875;57.0625;-61.0;66.1875;
1441975783883859;-0.3236083984375;0.583984375;0.7041015625;0.24176025390625;13.756973088494776;13.037505787734199;0.15938692183306608;-0.853515625;0.89013671875;0.08984375;122.0;-43.8125;77.125;
1441975783904861;-0.30792236328125;0.595947265625;0.7039794921875;0.2332763671875;13.536534006418655;13.090702480843774;0.15734202932262165;-0.90478515625;1.115234375;-0.068359375;105.1875;-15.0;94.5;
1441975783921862;-0.29217529296875;0.60430908203125;0.70660400390625;0.22393798828125;13.312282203393227;13.110694114114345;0.14394036291464302;-0.97509765625;1.16015625;-0.033203125;52.3125;-20.1875;106.125;
1441975783943863;-0.27618408203125;0.61346435546875;0.7086181640625;0.21246337890625;13.0704881909276;13.141289107684345;0.142721528194198;-0.77783203125;0.939453125;0.04931640625;28.375;-26.0;108.4375;
1441975783966864;-0.25848388671875;0.62841796875;0.70562744140625;0.200927734375;12.812044894748832;13.220773193060815;0.15050289321785473;-0.65771484375;0.87158203125;0.1494140625;32.0625;-15.9375;118.375;
1441975783981865;-0.2408447265625;0.6455078125;0.70037841796875;0.18646240234375;12.531699157771694;13.322189910834247;0.17476446662134767;-0.5810546875;0.9521484375;0.0908203125;74.375;-8.25;126.875;
1441975784003866;-0.2255859375;0.65765380859375;0.6993408203125;0.16583251953125;12.225285998349527;13.387570517934448;0.2196202031183339;-0.47509765625;1.04150390625;0.00390625;86.0625;7.9375;137.625;
1441975784024867;-0.2115478515625;0.66595458984375;0.7008056640625;0.1434326171875;11.918110138114878;13.423030493568367;0.26527231417309277;-0.427734375;1.05517578125;-0.01708984375;39.5;29.125;151.3125;
1441975784041868;-0.1959228515625;0.676513671875;0.69921875;0.12255859375;11.609227173642479;13.47489187153455;0.29943645215239056;-0.37646484375;0.99267578125;0.001953125;11.5625;33.8125;152.25;
1441975784071870;-0.17913818359375;0.68865966796875;0.6949462890625;0.10308837890625;11.301671527473022;13.539736727575434;0.32269996910538035;-0.25341796875;0.9716796875;0.01904296875;36.1875;27.6875;151.4375;
1441975784084871;-0.16265869140625;0.69830322265625;0.692138671875;0.08221435546875;10.987807504199386;13.586140543154734;0.3462124586809759;-0.2265625;1.02001953125;-0.02978515625;54.8125;21.1875;150.25;
1441975784107872;-0.1456298828125;0.7054443359375;0.69085693359375;0.0615234375;10.674078332175238;13.613093259921117;0.3613481748880482;-0.20703125;1.00927734375;-0.10791015625;36.875;25.0625;153.75;
1441975784123873;-0.12786865234375;0.71173095703125;0.68927001953125;0.04437255859375;10.385355397447528;13.635337677086433;0.35750969723550596;-0.12158203125;0.97021484375;-0.0888671875;21.3125;19.5;153.6875;
1441975784144874;-0.10986328125;0.71624755859375;0.6883544921875;0.03167724609375;10.134076654800783;13.646884887140999;0.3331910680131484;-0.044921875;0.859375;-0.04150390625;23.125;2.1875;141.625;
1441975784168876;-0.09356689453125;0.7191162109375;0.6881103515625;0.0218505859375;9.921954756501679;13.650747461448956;0.30390087682284145;-0.056640625;0.82666015625;0.00830078125;17.4375;-17.375;124.75;
1441975784183876;-0.07977294921875;0.72064208984375;0.6884765625;0.0140380859375;9.747487057121631;13.648861135444314;0.27681532569020456;-0.05126953125;0.7119140625;0.029296875;10.4375;-23.0625;106.25;
1441975784204878;-0.06842041015625;0.72314453125;0.68719482421875;0.01043701171875;9.626545778213288;13.659386800587345;0.24415366517510909;-0.072265625;0.6357421875;0.0478515625;7.6875;-21.5625;87.6875;
1441975784235879;-0.05950927734375;0.725830078125;0.6851806640625;0.0118408203125;9.566660131651874;13.675025104226112;0.20215470195891755;-0.09033203125;0.576171875;0.01904296875;17.75;-28.75;64.0625;
1441975784251880;-0.0548095703125;0.727783203125;0.68328857421875;0.018798828125;9.587011766589534;13.688601277668784;0.15586118858434295;-0.10986328125;0.57470703125;-0.0322265625;20.1875;-39.8125;35.9375;
1441975784264881;-0.05487060546875;0.7279052734375;0.6827392578125;0.03131103515625;9.692160432465295;13.68986887982501;0.1071690861894913;-0.154296875;0.552734375;-0.078125;15.25;-46.375;-0.5625;
1441975784305883;-0.05987548828125;0.72723388671875;0.681884765625;0.0494384765625;9.883466711821061;13.68873426350865;0.05702185646032629;-0.2236328125;0.45703125;-0.068359375;3.9375;-51.25;-37.5625;
1441975784309884;-0.066650390625;0.72760009765625;0.6790771484375;0.070068359375;10.109897120260445;13.698079903663148;0.005331403099928549;-0.3173828125;0.34228515625;-0.0439453125;4.125;-55.125;-74.3125;
1441975784333885;-0.07672119140625;0.72894287109375;0.673828125;0.0927734375;10.380816812966081;13.720291601054996;17.961125026281888;-0.33740234375;0.236328125;-0.03173828125;17.9375;-57.9375;-104.625;
1441975784349886;-0.08990478515625;0.72967529296875;0.6673583984375;0.118408203125;10.702726691647456;13.743366693460235;17.919568739242333;-0.330078125;0.25;-0.0439453125;31.3125;-52.9375;-127.5625;
1441975784363887;-0.10638427734375;0.72802734375;0.660888671875;0.14764404296875;11.083173578752934;13.754054562449141;17.8765746789002;-0.35546875;0.30712890625;-0.0869140625;33.0;-52.75;-152.8125;
1441975784384888;-0.125244140625;0.72393798828125;0.654052734375;0.17974853515625;11.509640599515945;13.752415268719213;17.829709575591753;-0.408203125;0.32763671875;-0.05810546875;24.1875;-56.875;-181.5;
1441975784407889;-0.1455078125;0.71826171875;0.64593505859375;0.213623046875;11.966195209742713;13.744954000679163;17.779053928202682;-0.48486328125;0.2802734375;-0.04052734375;16.1875;-61.5;-203.375;
1441975784423890;-0.16644287109375;0.71240234375;0.63507080078125;0.24774169921875;12.436339012797731;13.74509141325143;17.73055306234528;-0.5458984375;0.2197265625;0.03759765625;16.625;-63.6875;-217.25;
1441975784446892;-0.1893310546875;0.7054443359375;0.62158203125;0.282958984375;12.939320773587133;13.748950863641413;17.68558979717204;-0.546875;0.236328125;0.06298828125;26.875;-60.0625;-225.625;
1441975784467893;-0.2142333984375;0.6959228515625;0.60650634765625;0.319091796875;13.475551098870058;13.74454083124473;17.640437465323625;-0.5703125;0.28857421875;0.037109375;31.8125;-56.5;-243.0625;
1441975784483894;-0.240966796875;0.68377685546875;0.59002685546875;0.35516357421875;14.036689266483055;13.730866151596596;17.59631330563531;-0.67578125;0.33203125;0.02685546875;26.4375;-55.5625;-260.375;
1441975784507895;-0.267333984375;0.67120361328125;0.57080078125;0.38995361328125;14.597384466528265;13.726063845261491;17.55634078827586;-0.845703125;0.2509765625;0.01904296875;19.4375;-52.125;-271.25;
1441975784528896;-0.2913818359375;0.65960693359375;0.54901123046875;0.4224853515625;15.132877068667044;13.739608158524803;17.523032261251537;-1.0244140625;0.138671875;0.02490234375;27.4375;-45.1875;-269.875;
1441975784543897;-0.313720703125;0.64678955078125;0.52716064453125;0.45306396484375;15.64780671726203;13.741432517510733;17.481366236286686;-1.10546875;0.078125;-0.0029296875;42.0625;-38.375;-257.75;
1441975784566898;-0.33660888671875;0.62982177734375;0.508056640625;0.48150634765625;16.155099291447552;13.681282241167914;17.404949141301785;-1.111328125;0.1396484375;-0.0693359375;38.8125;-40.5;-249.625;
1441975784587900;-0.3609619140625;0.60833740234375;0.49273681640625;0.50677490234375;16.64877120730683;13.509288117393474;17.25295373704631;-1.15478515625;0.12744140625;-0.09521484375;10.75;-47.1875;-247.0625;
1441975784603901;-0.3848876953125;0.5859375;0.47857666015625;0.5286865234375;17.109441488600098;13.183211607155247;16.959593969350472;-1.25732421875;-0.03173828125;-0.107421875;-26.5;-51.75;-239.625;
1441975784626902;-0.40667724609375;0.5660400390625;0.4630126953125;0.5474853515625;17.519237839078965;12.511958442885438;16.311027136354596;-1.39013671875;-0.16650390625;-0.08447265625;-38.3125;-46.375;-226.375;
1441975784655903;-0.42523193359375;0.54925537109375;0.44561767578125;0.56463623046875;17.79305352660184;9.747359312291696;13.54921814422937;-1.369140625;-0.17578125;-0.05224609375;-27.125;-30.9375;-211.0;
1441975784663904;-0.43963623046875;0.53509521484375;0.4268798828125;0.5814208984375;17.610561356494635;6.3394898804138355;10.12095519418666;-1.35498046875;-0.16162109375;-0.0546875;-6.5;-20.25;-196.375;
1441975784686905;-0.45074462890625;0.52252197265625;0.4068603515625;0.5985107421875;17.288497685739966;5.628833204142359;9.370480278181587;-1.43359375;-0.1162109375;-0.06201171875;17.25;-18.625;-182.9375;
1441975784710907;-0.460205078125;0.50970458984375;0.38616943359375;0.6158447265625;16.9499288258807;5.408063113397895;9.102254268052608;-1.46435546875;0.0419921875;-0.1005859375;36.8125;-19.75;-177.9375;
1441975784725907;-0.4693603515625;0.49603271484375;0.3662109375;0.63201904296875;16.613551029057952;5.314527839911326;8.967339237451506;-1.41162109375;0.16259765625;-0.13232421875;44.375;-23.75;-179.8125;
1441975784746909;-0.477783203125;0.4825439453125;0.34600830078125;0.64739990234375;16.28345925078673;5.263468268293973;8.872879897703083;-1.4365234375;0.18505859375;-0.1845703125;38.6875;-27.3125;-178.0625;
1441975784767910;-0.48260498046875;0.47052001953125;0.32464599609375;0.66351318359375;15.968514513438404;5.262795936088133;8.807276778169;-1.3935546875;0.1494140625;-0.173828125;40.625;-25.375;-175.25;
1441975784783911;-0.482666015625;0.45989990234375;0.3021240234375;0.6812744140625;15.669165870164212;5.31422893065703;8.765874493576021;-1.287109375;0.12890625;-0.166015625;62.3125;-25.8125;-167.125;
1441975784807912;-0.4818115234375;0.44879150390625;0.28057861328125;0.69830322265625;15.379758435766155;5.375225016686293;8.736133580581187;-1.1298828125;0.259765625;-0.1884765625;90.375;-30.75;-159.9375;
1441975784827913;-0.48370361328125;0.43609619140625;0.261962890625;0.712158203125;15.099928564698159;5.4114124835864255;8.71134713701568;-1.01025390625;0.37451171875;-0.19287109375;88.4375;-35.625;-155.375;
1441975784849915;-0.48736572265625;0.42266845703125;0.2454833984375;0.7235107421875;14.831760560466803;5.430295532570582;8.689716997399122;-0.939453125;0.3662109375;-0.1845703125;58.5625;-36.9375;-149.9375;
1441975784866916;-0.48883056640625;0.41033935546875;0.23004150390625;0.73468017578125;14.587673210014426;5.464613240285587;8.676776855239643;-0.8876953125;0.25634765625;-0.13134765625;37.8125;-36.6875;-142.0;
1441975784887917;-0.4876708984375;0.399169921875;0.21527099609375;0.74591064453125;14.366307393958198;5.51509283548016;8.669585402962202;-0.85009765625;0.21630859375;-0.10986328125;45.4375;-36.9375;-128.75;
1441975784905918;-0.487060546875;0.388916015625;0.20245361328125;0.75531005859375;14.16972510977255;5.554370946607795;8.661700600699117;-0.73486328125;0.2861328125;-0.138671875;56.5625;-38.125;-116.4375;
1441975784926919;-0.48486328125;0.38427734375;0.194580078125;0.7611083984375;14.068853006021463;5.585776218989472;8.653420008491445;-0.59716796875;0.27392578125;-0.1162109375;45.75;-34.25;-103.625;
1441975784947920;-0.4791259765625;0.38311767578125;0.188720703125;0.76678466796875;14.021443379816551;5.636489307344158;8.651229434634368;-0.572265625;0.2451171875;-0.1025390625;37.875;-28.1875;-85.375;
1441975784963921;-0.47271728515625;0.3841552734375;0.18634033203125;0.77081298828125;14.021613411107161;5.688215002820369;8.659245547451345;-0.57177734375;0.2900390625;-0.1513671875;53.5;-25.125;-61.5;
1441975784986922;-0.46923828125;0.38616943359375;0.186767578125;0.7718505859375;14.048411495414742;5.712503837381371;8.665612436057174;-0.54150390625;0.39794921875;-0.1650390625;45.0;-22.8125;-41.0;
1441975785007924;-0.4664306640625;0.3902587890625;0.1895751953125;0.77081298828125;14.112514625732024;5.724871278300978;8.67151724736238;-0.4873046875;0.3720703125;-0.13671875;18.25;-14.125;-25.5625;
1441975785022924;-0.46148681640625;0.39703369140625;0.19439697265625;0.76910400390625;14.220507354878517;5.748610896946822;8.68412996434676;-0.51220703125;0.3115234375;-0.1298828125;7.1875;-6.125;-6.125;
1441975785053926;-0.455078125;0.40673828125;0.20123291015625;0.76611328125;14.374604351944491;5.776684983318146;8.699760500035785;-0.552734375;0.3046875;-0.1484375;14.3125;-2.6875;14.3125;
1441975785068927;-0.44873046875;0.417724609375;0.210205078125;0.761474609375;14.558048559754706;5.802355216049547;8.72199747167477;-0.544921875;0.359375;-0.20068359375;16.625;3.8125;33.25;
1441975785082928;-0.4398193359375;0.4306640625;0.22161865234375;0.7562255859375;14.782047007784094;5.8519261149114605;8.764960995510112;-0.50439453125;0.3251953125;-0.1962890625;9.0625;8.4375;52.1875;
1441975785105929;-0.4317626953125;0.44793701171875;0.2359619140625;0.7464599609375;15.075508383929318;5.876596248592545;8.797322522965873;-0.53662109375;0.376953125;-0.1640625;12.75;10.4375;70.8125;
1441975785127930;-0.4278564453125;0.4617919921875;0.2509765625;0.73529052734375;15.336840856753977;5.877580884932006;8.833220438855705;-0.482421875;0.51220703125;-0.265625;-2.9375;29.0;92.625;
1441975785143931;-0.41729736328125;0.47833251953125;0.26605224609375;0.72540283203125;15.63589242934843;5.947187969519423;8.905506296580418;-0.63818359375;0.38671875;-0.30712890625;-30.0625;38.5;113.25;
1441975785165933;-0.4052734375;0.49737548828125;0.28167724609375;0.71343994140625;15.972465257384918;6.033038295487735;8.989859716444949;-0.72900390625;0.5703125;-0.2880859375;3.9375;36.8125;132.875;
1441975785188934;-0.39959716796875;0.51690673828125;0.306640625;0.692138671875;16.387355887952214;6.088232729193564;9.117274227526236;-0.7314453125;0.84619140625;-0.43310546875;7.1875;46.9375;144.375;
1441975785203935;-0.3955078125;0.53546142578125;0.3414306640625;0.6634521484375;16.87226064438723;6.2758831435903435;9.43367050379892;-1.24755859375;0.84033203125;-0.47021484375;-65.875;62.125;179.125;
1441975785225936;-0.3885498046875;0.5528564453125;0.37969970703125;0.63177490234375;17.356167102906824;7.03187479974324;10.328270436492334;-2.11962890625;0.59375;-0.2666015625;-120.5;62.6875;227.25;
1441975785247937;-0.36920166015625;0.577392578125;0.41558837890625;0.59796142578125;17.588745229602367;10.617762458855225;13.990886913824738;-2.63720703125;0.00439453125;-0.0078125;-128.9375;63.125;268.75;
1441975785263938;-0.3282470703125;0.614501953125;0.4398193359375;0.566650390625;17.01504305768276;13.008951543877028;16.3124204670384;-2.62255859375;-0.625;0.29443359375;-65.5625;73.9375;319.75;
1441975785285940;-0.278076171875;0.65655517578125;0.4591064453125;0.52984619140625;16.202074157595938;13.6567126742448;16.842230041757546;-2.39306640625;-0.6220703125;0.22705078125;82.5;82.125;372.5625;
1441975785308941;-0.2315673828125;0.6917724609375;0.48504638671875;0.482177734375;15.310179871396759;13.909263858161406;17.049375898120832;-2.3759765625;0.0380859375;0.103515625;132.75;106.0;424.3125;
1441975785322942;-0.204833984375;0.7052001953125;0.53277587890625;0.42047119140625;14.422966894682242;13.886509403064426;17.210040265796994;-2.4990234375;0.88134765625;0.0146484375;60.4375;122.9375;436.5;
1441975785345943;-0.19293212890625;0.69097900390625;0.6007080078125;0.3526611328125;13.59909696548648;13.621501755934366;17.346633019711117;-2.6181640625;0.9130859375;-0.109375;-160.375;144.8125;428.8125;
1441975785367944;-0.1651611328125;0.6849365234375;0.6455078125;0.29461669921875;12.808846945193094;13.474288261117222;17.43537169786745;-2.76220703125;0.06396484375;0.26025390625;-370.9375;123.875;403.875;
1441975785382945;-0.1268310546875;0.7037353515625;0.6512451171875;0.25384521484375;12.150244017769076;13.576531349963922;17.486068469924394;-2.38427734375;-0.3154296875;0.01025390625;-206.625;72.875;394.75;
1441975785405946;-0.08984375;0.732177734375;0.636962890625;0.2236328125;11.623034796487381;13.782882783986686;17.507850163501896;-2.15087890625;-0.26416015625;-0.11767578125;73.1875;44.5625;329.5625;
1441975785427948;-0.0712890625;0.7440185546875;0.6334228515625;0.20013427734375;11.283937258139352;13.86585904924189;17.539610386142872;-1.97412109375;0.32470703125;-0.30419921875;195.75;35.5625;262.125;
1441975785442949;-0.0684814453125;0.73779296875;0.647705078125;0.17706298828125;11.048840060312473;13.800763783708124;17.606292497386814;-1.70849609375;0.4306640625;-0.2080078125;67.4375;49.5625;189.4375;
1441975785465950;-0.07244873046875;0.72100830078125;0.67218017578125;0.151611328125;10.842423967080899;13.651936996219442;17.69943541349703;-1.64013671875;0.25537109375;-0.00537109375;-89.125;78.375;134.3125;
1441975785487951;-0.08209228515625;0.69622802734375;0.70166015625;0.12689208984375;10.697307497651073;13.449204851086566;17.808860769056334;-1.53125;-0.029296875;0.31103515625;-179.625;95.625;95.875;
1441975785504952;-0.09112548828125;0.66583251953125;0.73370361328125;0.09979248046875;10.546386980472919;13.21223206298948;17.925415181201394;-1.4111328125;-0.21533203125;0.20458984375;-232.5;107.125;94.9375;
1441975785525953;-0.0987548828125;0.63690185546875;0.76104736328125;0.072998046875;10.408253411935798;12.997871309305655;0.04337635756948933;-1.29541015625;-0.26611328125;-0.02294921875;-269.4375;106.1875;104.6875;
1441975785548955;-0.106689453125;0.615966796875;0.7789306640625;0.0487060546875;10.30753314799911;12.85238475442956;0.16350007933614658;-1.22021484375;-0.17138671875;-0.05615234375;-244.25;100.75;105.0625;
