1441975819679907;-0.067138671875;0.61138916015625;0.78839111328125;0.0111083984375;9.6860221747999;12.790501845805972;0.18647657399237175;-1.29345703125;-1.083984375;0.00341796875;-5.8125;-17.4375;175.1875;
1441975819702908;-0.05731201171875;0.65118408203125;0.7567138671875;-7.9345703125E-4;9.491680764728944;13.08071469638394;0.21829818178583626;-1.06787109375;-0.38134765625;-0.33203125;246.375;10.5625;154.875;
1441975819718909;-0.0484619140625;0.68109130859375;0.73052978515625;-0.00909423828125;9.334902822697426;13.306081324429522;0.2278120607421882;-1.05712890625;-0.06640625;-0.361328125;281.3125;8.0;119.5625;
1441975819739910;-0.0421142578125;0.7012939453125;0.71136474609375;-0.0167236328125;9.208971082911237;13.4634948943105;0.2378359360527989;-0.87451171875;0.13623046875;-0.11572265625;222.625;-0.8125;93.75;
1441975819762911;-0.0406494140625;0.71636962890625;0.69610595703125;-0.0223388671875;9.140900380147535;13.585346854580772;0.2563865747905967;-0.7705078125;0.2080078125;0.0673828125;158.0;7.0625;76.4375;
1441975819778912;-0.04913330078125;0.7269287109375;0.6846923828125;-0.01788330078125;9.236608031310375;13.677073360988299;0.2754650690688641;-0.72119140625;0.37548828125;0.07080078125;122.9375;19.0625;46.0625;
1441975819799914;-0.06353759765625;0.73199462890625;0.67828369140625;-0.0062255859375;9.442085116451283;13.729390216495968;0.2920568379630056;-0.720703125;0.7021484375;0.00244140625;94.3125;19.125;-0.375;
1441975819822915;-0.07989501953125;0.73028564453125;0.6783447265625;0.00823974609375;9.6917331036624;13.72962970846358;0.30509138404156455;-0.7470703125;0.87109375;-0.06591796875;51.75;12.625;-56.375;
1441975819838916;-0.101318359375;0.7235107421875;0.68218994140625;0.0286865234375;10.03556450716707;13.696821166579264;0.3136236110873409;-0.767578125;0.8896484375;-0.06982421875;-1.0;3.75;-114.0;
1441975819868918;-0.12841796875;0.7159423828125;0.68414306640625;0.0535888671875;10.462245481925445;13.672243455721368;0.32803825082996174;-0.76123046875;0.80859375;-0.0322265625;-33.6875;-3.5;-161.75;
1441975819882918;-0.16131591796875;0.71063232421875;0.6796875;0.08306884765625;10.971772584775449;13.689280243789351;0.3550265829384988;-0.72998046875;0.76708984375;0.00634765625;-27.0;1.0;-205.0;
1441975819898919;-0.19775390625;0.7047119140625;0.6708984375;0.1187744140625;11.564386682084367;13.727508399935656;0.38040412991104344;-0.75390625;0.7822265625;-0.10498046875;8.4375;9.9375;-248.6875;
1441975819919920;-0.23291015625;0.69598388671875;0.66015625;0.1597900390625;12.200190484588905;13.761505965894642;0.3836656577773023;-0.958984375;0.78564453125;-0.15087890625;26.8125;1.9375;-288.375;
1441975819942922;-0.26568603515625;0.68280029296875;0.64959716796875;0.202880859375;12.848193355316278;13.77001479267087;0.36418211213957186;-1.15966796875;0.771484375;-0.20654296875;30.3125;-24.5625;-307.25;
1441975819958923;-0.2982177734375;0.6685791015625;0.635009765625;0.24652099609375;13.51066010913238;13.792454203412015;0.3486451387508731;-1.21142578125;0.63330078125;-0.21240234375;17.75;-46.875;-312.0625;
1441975819979924;-0.32879638671875;0.65374755859375;0.61688232421875;0.28973388671875;14.167415861264242;13.828736699458698;0.33540071836658114;-1.30029296875;0.65478515625;-0.1806640625;31.125;-44.375;-321.1875;
1441975820002925;-0.35601806640625;0.63494873046875;0.5989990234375;0.33343505859375;14.821524710380507;13.826692853503875;0.2868757186138574;-1.5263671875;0.50830078125;-0.25146484375;44.0;-46.0;-316.4375;
1441975820018926;-0.38232421875;0.6126708984375;0.5811767578125;0.37493896484375;15.467955056989267;13.78984533288699;0.21905144800005982;-1.55224609375;0.45556640625;-0.138671875;36.875;-65.6875;-314.6875;
1441975820039927;-0.40802001953125;0.58978271484375;0.56378173828125;0.4095458984375;16.060426778393737;13.748315738124454;0.16830732522488612;-1.44970703125;0.306640625;0.05908203125;23.25;-65.125;-312.375;
1441975820062929;-0.43133544921875;0.56829833984375;0.54620361328125;0.43890380859375;16.59447537830402;13.712982047374206;0.12735662201180228;-1.4677734375;0.107421875;0.09716796875;6.3125;-44.8125;-286.625;
1441975820078930;-0.45111083984375;0.54876708984375;0.52935791015625;0.46380615234375;17.06304415554453;13.663924905300933;0.07163920137200876;-1.568359375;-0.02490234375;0.03125;3.75;-32.125;-258.375;
1441975820099931;-0.46990966796875;0.52850341796875;0.51556396484375;0.48370361328125;17.481511883225046;13.511272963881385;17.934603078396854;-1.59326171875;0.03564453125;-0.0888671875;5.25;-27.875;-229.375;
1441975820122932;-0.48907470703125;0.50750732421875;0.50555419921875;0.49761962890625;17.844270386646464;12.813226868765327;17.283148784442062;-1.49755859375;0.060546875;-0.14013671875;-17.0;-26.3125;-207.25;
1441975820138933;-0.50738525390625;0.48712158203125;0.49749755859375;0.50762939453125;17.815506904513402;5.448449262598841;9.977479901777885;-1.37255859375;0.103515625;-0.12060546875;-47.375;-18.9375;-184.75;
1441975820159934;-0.5233154296875;0.4696044921875;0.4892578125;0.51593017578125;17.533963236132042;4.895110666675199;9.472639093828171;-1.29345703125;0.03955078125;-0.06982421875;-60.0;-13.3125;-164.0625;
1441975820182936;-0.53546142578125;0.45562744140625;0.4805908203125;0.5240478515625;17.28885252334514;4.761372755620308;9.365796584448614;-1.21826171875;0.025390625;-0.04345703125;-49.25;-5.875;-145.0;
1441975820198936;-0.54388427734375;0.44500732421875;0.47174072265625;0.53253173828125;17.079933565978333;4.7203824917164745;9.329851550901775;-1.15576171875;0.0146484375;-0.0224609375;-27.3125;-3.5625;-125.875;
1441975820221938;-0.54803466796875;0.43896484375;0.463623046875;0.54034423828125;16.929482796706893;4.714367240957602;9.307451518743099;-1.099609375;0.00390625;-0.0224609375;-5.375;-4.4375;-107.5625;
1441975820243939;-0.5489501953125;0.4356689453125;0.45623779296875;0.54827880859375;16.815923588429783;4.746168624755194;9.307347432655918;-1.05029296875;0.01708984375;-0.0361328125;16.375;-5.125;-90.25;
1441975820258940;-0.54815673828125;0.43414306640625;0.45037841796875;0.55511474609375;16.737042264466616;4.789243458413544;9.315984109521732;-0.98046875;0.03125;-0.056640625;32.625;-9.8125;-72.9375;
1441975820279941;-0.54644775390625;0.43328857421875;0.44708251953125;0.56011962890625;16.691604980661847;4.845985560873129;9.346337565415988;-0.92578125;0.02978515625;-0.07421875;35.6875;-12.125;-55.5625;
1441975820302942;-0.54345703125;0.4334716796875;0.445556640625;0.56414794921875;16.674017531944326;4.920414322888296;9.395594345691013;-0.8955078125;-0.0146484375;-0.06591796875;28.0625;-15.1875;-34.875;
1441975820318943;-0.53851318359375;0.4359130859375;0.44549560546875;0.56695556640625;16.69500474828072;5.008783039668749;9.454398300431631;-0.85498046875;-0.080078125;-0.03369140625;27.25;-16.75;-15.375;
1441975820339945;-0.53271484375;0.44012451171875;0.44775390625;0.56744384765625;16.757293682823043;5.103277791951143;9.525180804896774;-0.82861328125;-0.076171875;-0.03125;31.9375;-16.0;4.9375;
1441975820362946;-0.5272216796875;0.444580078125;0.453125;0.5648193359375;16.853645354070412;5.209667040943726;9.626014117177856;-0.8359375;-0.05224609375;-0.02099609375;25.8125;-13.3125;24.4375;
1441975820379947;-0.5223388671875;0.448974609375;0.4613037109375;0.5592041015625;16.977653462783557;5.336601387988733;9.766025490349874;-0.85205078125;-0.05517578125;-0.00732421875;8.0625;-12.875;44.1875;
1441975820399948;-0.517333984375;0.4539794921875;0.471923828125;0.5509033203125;17.13186169957458;5.517259412687353;9.972366478692972;-0.86572265625;-0.09326171875;0.01318359375;-10.5;-11.0625;62.625;
1441975820422949;-0.5120849609375;0.45953369140625;0.48431396484375;0.54034423828125;17.30717306191074;5.806714096755584;10.296728906655801;-0.90625;-0.078125;0.02001953125;-22.6875;-9.625;80.0625;
1441975820438950;-0.5062255859375;0.465576171875;0.49761962890625;0.5284423828125;17.485656064520505;6.346161810417829;10.874342991836942;-0.955078125;-0.0693359375;0.0205078125;-31.875;-8.25;95.4375;
1441975820461951;-0.49969482421875;0.472412109375;0.51171875;0.5150146484375;17.64124775153633;7.503669207228193;12.072422941841259;-1.01318359375;-0.072265625;0.0068359375;-35.0625;-5.9375;107.4375;
1441975820482953;-0.4925537109375;0.47967529296875;0.52587890625;0.50067138671875;17.680791725772323;9.584797694089684;14.193959292879255;-1.05322265625;-0.03857421875;-0.00244140625;-37.125;-4.0625;118.3125;
1441975820498954;-0.48504638671875;0.48675537109375;0.5401611328125;0.48577880859375;17.5532205185222;11.22523827442179;15.876271864376136;-1.044921875;0.001953125;-0.00390625;-37.1875;-2.4375;123.9375;
1441975820522955;-0.4776611328125;0.49285888671875;0.5548095703125;0.47015380859375;17.34799265947404;11.970291599494288;16.669644030259242;-1.02587890625;0.07470703125;-0.0087890625;-38.5625;-2.75;126.25;
1441975820542956;-0.47039794921875;0.4981689453125;0.5693359375;0.45428466796875;17.122124081340814;12.320562209298513;17.071421901465293;-0.99658203125;0.10791015625;-0.01416015625;-44.875;-4.0625;126.5625;
1441975820559957;-0.4630126953125;0.503173828125;0.582763671875;0.4390869140625;16.897748242080034;12.508680795748978;17.306746512671904;-0.9697265625;0.13427734375;-0.005859375;-48.0625;-5.125;124.6875;
1441975820581958;-0.455322265625;0.50823974609375;0.59442138671875;0.42535400390625;16.68501679955943;12.621904843456354;17.457062487618515;-0.9609375;0.15185546875;-0.00634765625;-43.9375;-5.1875;119.4375;
1441975820602960;-0.44732666015625;0.51348876953125;0.60443115234375;0.41326904296875;16.48556545911888;12.695972741829724;17.557479418504965;-0.96533203125;0.1611328125;-0.0205078125;-34.125;-5.5625;111.6875;
1441975820618960;-0.43975830078125;0.51873779296875;0.61248779296875;0.40289306640625;16.308588563596302;12.75313867703534;17.631723940209255;-0.94970703125;0.173828125;-0.02392578125;-23.8125;-7.0625;104.0;
1441975820641962;-0.43280029296875;0.52337646484375;0.619140625;0.3941650390625;16.154609331192827;12.791710119062888;17.682096905823638;-0.927734375;0.2138671875;-0.0146484375;-15.3125;-9.8125;94.4375;
1441975820662963;-0.4268798828125;0.52734375;0.62420654296875;0.38726806640625;16.02942633384009;12.819906175526341;17.71706232632209;-0.92578125;0.2333984375;-0.00732421875;-11.1875;-10.1875;82.875;
1441975820679964;-0.4219970703125;0.53070068359375;0.62762451171875;0.38250732421875;15.93501097194671;12.840214480072543;17.737771901089587;-0.92919921875;0.25439453125;-0.0126953125;-6.4375;-9.9375;68.0;
1441975820702965;-0.418212890625;0.533203125;0.6297607421875;0.37969970703125;15.86986562268177;12.85124639215503;17.745293726457508;-0.94140625;0.27392578125;-0.015625;-1.125;-10.375;52.125;
1441975820722966;-0.41558837890625;0.53472900390625;0.630859375;0.3785400390625;15.831945924138399;12.853743345535264;17.742517056309758;-0.9306640625;0.2841796875;-0.00537109375;2.4375;-10.625;37.0;
1441975820738967;-0.414306640625;0.53515625;0.63128662109375;0.37860107421875;15.818726728082385;12.848089466498154;17.73302692576597;-0.89697265625;0.27587890625;9.765625E-4;3.4375;-10.375;22.9375;
1441975820760969;-0.41412353515625;0.5347900390625;0.63092041015625;0.3800048828125;15.828535648027216;12.836161871971346;17.716385029777854;-0.85498046875;0.24365234375;0.025390625;2.5;-8.5;11.375;
1441975820790970;-0.4146728515625;0.5341796875;0.62945556640625;0.382568359375;15.857142194524036;12.825041388508483;17.696717908310788;-0.826171875;0.2119140625;0.05224609375;3.4375;-6.3125;0.875;
1441975820798971;-0.41595458984375;0.5333251953125;0.62725830078125;0.3861083984375;15.901545700285542;12.812823804554514;17.673696271767405;-0.81640625;0.189453125;0.04931640625;7.25;-5.4375;-7.6875;
1441975820821972;-0.41766357421875;0.5321044921875;0.62457275390625;0.39019775390625;15.956128611923155;12.79751867551451;17.64687291039054;-0.8125;0.17529296875;0.041015625;9.0;-5.125;-15.375;
1441975820842973;-0.4197998046875;0.5303955078125;0.6217041015625;0.3948974609375;16.01991257586272;12.774205329416517;17.612352289329433;-0.80908203125;0.1669921875;0.02587890625;9.4375;-5.6875;-20.75;
1441975820858974;-0.42205810546875;0.5283203125;0.61859130859375;0.40008544921875;16.08965770345218;12.743063849139414;17.569318561823625;-0.81884765625;0.1630859375;0.0234375;8.5;-7.125;-25.5;
1441975820881976;-0.42431640625;0.5260009765625;0.615234375;0.40582275390625;16.16413929759464;12.703078172140781;17.515863616610204;-0.82666015625;0.15087890625;0.009765625;8.75;-9.25;-29.3125;
1441975820902977;-0.42633056640625;0.52374267578125;0.61151123046875;0.4122314453125;16.241518900065923;12.655046413041054;17.450485015259734;-0.82275390625;0.14404296875;0.00537109375;9.9375;-11.25;-32.3125;
1441975820918978;-0.427734375;0.52203369140625;0.60693359375;0.41961669921875;16.32149924331587;12.602719230715472;17.37218920252489;-0.80810546875;0.12841796875;0.0166015625;13.5;-12.4375;-35.125;
1441975820940979;-0.42840576171875;0.52099609375;0.60150146484375;0.427978515625;16.402527926668196;12.545527836774177;17.279726487218753;-0.80322265625;0.11865234375;0.025390625;22.1875;-13.375;-37.875;
1441975820962980;-0.42816162109375;0.5206298828125;0.59564208984375;0.436767578125;16.477785054905628;12.483935936166962;17.175909069213436;-0.79833984375;0.10693359375;0.02685546875;31.0625;-15.1875;-39.1875;
1441975820992982;-0.42724609375;0.52081298828125;0.58929443359375;0.44586181640625;16.549316163726303;12.419065893327339;17.063099349181343;-0.79931640625;0.1259765625;0.0400390625;38.375;-16.1875;-39.75;
1441975821000982;-0.42620849609375;0.52105712890625;0.5830078125;0.454833984375;16.617409508511184;12.346733588417937;16.942910434137122;-0.81787109375;0.166015625;0.03759765625;43.625;-16.8125;-41.75;
1441975821022984;-0.42559814453125;0.520751953125;0.57708740234375;0.46331787109375;16.684364980318975;12.261318340596896;16.815002409795643;-0.84814453125;0.2255859375;0.0380859375;43.125;-17.25;-44.8125;
1441975821038984;-0.42578125;0.5194091796875;0.571533203125;0.47137451171875;16.754007303482098;12.152608635014035;16.671429825437365;-0.8720703125;0.25244140625;0.03955078125;37.8125;-16.75;-47.625;
1441975821060986;-0.426513671875;0.517333984375;0.5665283203125;0.47894287109375;16.821466001362655;12.02132271484308;16.512005764462273;-0.8798828125;0.23828125;0.044921875;30.25;-16.5;-49.4375;
1441975821082987;-0.4278564453125;0.51483154296875;0.56170654296875;0.486083984375;16.888907596443946;11.872414838388357;16.339736991468225;-0.88037109375;0.2294921875;0.0615234375;23.75;-15.5625;-50.75;
1441975821106988;-0.4300537109375;0.51177978515625;0.55731201171875;0.492431640625;16.95552412355884;11.706478730724049;16.158016401490674;-0.92431640625;0.2197265625;0.06787109375;18.9375;-13.9375;-51.0;
1441975821120989;-0.4327392578125;0.50830078125;0.553466796875;0.49798583984375;17.01696855138717;11.523044794304159;15.965303414919044;-0.9677734375;0.189453125;0.0595703125;11.6875;-12.4375;-49.75;
1441975821142990;-0.4356689453125;0.504638671875;0.5499267578125;0.5030517578125;17.073062600840515;11.321539841022044;15.758032514251877;-0.98388671875;0.1416015625;0.06298828125;5.75;-11.25;-45.8125;
1441975821164992;-0.4381103515625;0.501708984375;0.5462646484375;0.5078125;17.121357020012823;11.124629520992288;15.5523734608429;-1.00390625;0.0712890625;0.0791015625;3.125;-9.375;-40.6875;
1441975821181993;-0.43890380859375;0.5001220703125;0.54302978515625;0.51214599609375;17.149868690206056;10.964221727820865;15.377073910300183;-0.99755859375;0.0068359375;0.099609375;6.75;-6.625;-32.875;
1441975821202994;-0.43865966796875;0.49981689453125;0.5406494140625;0.51513671875;17.163540112701337;10.874073360683402;15.271676431141307;-0.94189453125;-0.005859375;0.12548828125;13.8125;-5.1875;-22.9375;
1441975821224995;-0.4381103515625;0.49993896484375;0.53973388671875;0.51641845703125;17.165014885136898;10.844768268752961;15.234129077165369;-0.88525390625;0.017578125;0.123046875;14.75;-3.0625;-12.25;
1441975821240996;-0.43701171875;0.50042724609375;0.540283203125;0.516357421875;17.152511094749233;10.868272308080453;15.254821466604783;-0.8759765625;0.0166015625;0.11474609375;8.25;-1.8125;-0.4375;
1441975821261997;-0.43475341796875;0.50189208984375;0.54156494140625;0.5155029296875;17.126653541001996;10.945916095326728;15.3278857726112;-0.892578125;0.0146484375;0.12548828125;3.625;-1.9375;10.8125;
1441975821285999;-0.43121337890625;0.5048828125;0.543212890625;0.51385498046875;17.08860760307029;11.084672466874933;15.457314906590366;-0.92724609375;0.0234375;0.13623046875;6.1875;-1.8125;21.0625;
1441975821300999;-0.42706298828125;0.50885009765625;0.54522705078125;0.51123046875;17.041193514050875;11.261001543974514;15.62359384797126;-0.9580078125;0.0712890625;0.1396484375;11.4375;0.375;29.625;
1441975821323001;-0.42279052734375;0.51275634765625;0.5479736328125;0.50787353515625;16.983496411574887;11.43340659446522;15.789964440380741;-1.0068359375;0.10986328125;0.13623046875;12.3125;2.3125;36.5;
1441975821345002;-0.418212890625;0.5167236328125;0.5513916015625;0.50390625;16.91418685791061;11.598297428006278;15.951435366349491;-1.02001953125;0.10009765625;0.1435546875;8.875;2.625;43.0;
1441975821369003;-0.4134521484375;0.52105712890625;0.5550537109375;0.49945068359375;16.837338075669777;11.75866310487509;16.10889973754719;-0.97802734375;0.095703125;0.16259765625;7.25;4.0;49.0625;
1441975821383004;-0.40863037109375;0.525390625;0.55914306640625;0.49420166015625;16.751975779197902;11.910031923046184;16.2606719600207;-0.958984375;0.09619140625;0.169921875;6.75;5.75;53.75;
1441975821405005;-0.40386962890625;0.52960205078125;0.56396484375;0.48809814453125;16.65673863663054;12.048617489835811;16.40475221109801;-0.94775390625;0.09814453125;0.171875;4.3125;7.0625;58.375;
1441975821422006;-0.39971923828125;0.53338623046875;0.56927490234375;0.4813232421875;16.55902952413477;12.16947809310051;16.537460788776485;-0.94091796875;0.12109375;0.16943359375;-0.3125;8.0;62.75;
1441975821444008;-0.39599609375;0.53631591796875;0.57501220703125;0.47418212890625;16.459889955163288;12.264141040337444;16.649970509756315;-0.97314453125;0.126953125;0.1484375;-6.6875;7.9375;64.5;
1441975821473009;-0.3922119140625;0.5390625;0.5809326171875;0.46697998046875;16.357434305664103;12.342840410934498;16.747612417385138;-1.0146484375;0.12158203125;0.150390625;-12.125;6.875;66.125;
1441975821489010;-0.38848876953125;0.5419921875;0.58636474609375;0.45977783203125;16.25695425750767;12.417114409865825;16.839097188544535;-1.0048828125;0.1328125;0.15234375;-13.75;6.3125;67.0625;
1441975821504011;-0.384521484375;0.54510498046875;0.5914306640625;0.4530029296875;16.15691115890771;12.481922070727602;16.91761914664853;-0.97705078125;0.1484375;0.142578125;-11.6875;7.25;65.9375;
1441975821525012;-0.380615234375;0.548095703125;0.5960693359375;0.44659423828125;16.06095874788283;12.537432089888075;16.985102962084824;-0.9365234375;0.17529296875;0.14794921875;-8.1875;7.375;62.9375;
1441975821541013;-0.3773193359375;0.55059814453125;0.6002197265625;0.44061279296875;15.97538198614876;12.583045728707893;17.043257632524433;-0.91455078125;0.20947265625;0.15380859375;-6.6875;7.5;58.6875;
1441975821564015;-0.37481689453125;0.55255126953125;0.60382080078125;0.435302734375;15.903555300915144;12.619034040699662;17.092181564325696;-0.91015625;0.2265625;0.146484375;-7.4375;7.625;52.625;
1441975821585016;-0.37298583984375;0.55401611328125;0.60675048828125;0.4310302734375;15.847031579811151;12.645206983037205;17.129722155969755;-0.91455078125;0.2373046875;0.1328125;-8.5;7.0625;45.875;
1441975821601017;-0.3717041015625;0.554931640625;0.60882568359375;0.42791748046875;15.806882486482696;12.66217042937526;17.155402092491578;-0.9130859375;0.234375;0.12451171875;-7.5625;5.625;38.1875;
1441975821624018;-0.37078857421875;0.5557861328125;0.6097412109375;0.42633056640625;15.784048220346868;12.674674928525189;17.170042231850534;-0.92041015625;0.2314453125;0.11767578125;-5.6875;3.875;30.125;
1441975821645019;-0.37030029296875;0.5565185546875;0.60943603515625;0.42620849609375;15.779324846771738;12.68371026801972;17.174978606828827;-0.927734375;0.2216796875;0.10986328125;0.125;2.3125;21.5;
1441975821661020;-0.36993408203125;0.55712890625;0.6082763671875;0.42742919921875;15.78753221042614;12.68695923870998;17.168429665056962;-0.93701171875;0.21728515625;0.10302734375;5.375;0.6875;12.75;
1441975821684021;-0.369873046875;0.5574951171875;0.60650634765625;0.42950439453125;15.806650550718722;12.685903946114411;17.154912375588353;-0.9423828125;0.22314453125;0.11181640625;10.375;-0.875;4.75;
1441975821713023;-0.3702392578125;0.5572509765625;0.6044921875;0.43231201171875;15.83584825357542;12.675293467579449;17.13203270927676;-0.92431640625;0.2412109375;0.1171875;12.5625;-1.5625;-3.0;
1441975821721023;-0.3714599609375;0.5562744140625;0.60211181640625;0.4359130859375;15.879808172415407;12.654976547298004;17.100719117599528;-0.900390625;0.25390625;0.1279296875;12.0;-2.125;-10.75;
1441975821744025;-0.37335205078125;0.55474853515625;0.59912109375;0.44024658203125;15.93758717707767;12.627416704851695;17.06183203217305;-0.90185546875;0.25244140625;0.130859375;10.25;-2.875;-19.0;
1441975821765026;-0.37603759765625;0.5526123046875;0.5958251953125;0.445068359375;16.007178836535033;12.591195966198471;17.01609377313709;-0.92236328125;0.25634765625;0.12548828125;9.5;-3.25;-26.75;
1441975821782027;-0.37933349609375;0.55010986328125;0.5921630859375;0.4503173828125;16.086392250502353;12.548084591954716;16.9640303293271;-0.93701171875;0.255859375;0.12939453125;8.0;-3.0625;-33.6875;
1441975821804028;-0.38330078125;0.5472412109375;0.58795166015625;0.4559326171875;16.176451944421512;12.498556273917593;16.90593182732611;-0.93212890625;0.2568359375;0.126953125;6.8125;-2.4375;-39.8125;
1441975821825029;-0.3878173828125;0.54388427734375;0.58343505859375;0.46185302734375;16.27463147954504;12.437490077387462;16.837558513622618;-0.93896484375;0.2431640625;0.12158203125;5.875;-1.4375;-45.5625;
1441975821849031;-0.39276123046875;0.5401611328125;0.57867431640625;0.46807861328125;16.37890429954976;12.362872634406985;16.756366158431366;-0.95263671875;0.2275390625;0.119140625;4.75;-1.5625;-50.125;
1441975821865032;-0.39788818359375;0.5362548828125;0.57373046875;0.4742431640625;16.484728852437968;12.277459373245998;16.665087604758185;-0.97265625;0.2021484375;0.111328125;3.625;-1.9375;-53.125;
1441975821885033;-0.40283203125;0.53228759765625;0.56884765625;0.48028564453125;16.586676566356303;12.17865208823028;16.560587681110146;-0.96826171875;0.18017578125;0.115234375;2.875;-1.1875;-54.5;
1441975821903034;-0.40789794921875;0.5283203125;0.56402587890625;0.48614501953125;16.686678355943894;12.067178024993227;16.44448927292436;-0.9638671875;0.17041015625;0.1171875;2.875;-1.25;-54.1875;
1441975821931036;-0.41290283203125;0.524169921875;0.55950927734375;0.4915771484375;16.780733594223648;11.939125503848487;16.31426038722328;-0.97607421875;0.14892578125;0.109375;1.5625;-1.125;-53.6875;
1441975821945036;-0.41766357421875;0.51995849609375;0.5555419921875;0.4964599609375;16.864769929662675;11.79580867662907;16.171386825012437;-0.99365234375;0.13671875;0.10791015625;-0.5;-1.375;-51.75;
1441975821961037;-0.422119140625;0.5159912109375;0.552001953125;0.500732421875;16.938756765636626;11.64631809178408;16.023728260291616;-0.994140625;0.1240234375;0.11279296875;-3.1875;-2.125;-48.375;
1441975821984039;-0.426025390625;0.51251220703125;0.548828125;0.5045166015625;17.001536409251514;11.496910421144172;15.875612830557419;-0.98193359375;0.11376953125;0.1083984375;-4.375;-1.5625;-44.125;
1441975822006040;-0.429443359375;0.5093994140625;0.546142578125;0.5076904296875;17.053193009806517;11.351609830894912;15.732290125064761;-0.98583984375;0.10693359375;0.10888671875;-3.625;-1.5;-39.375;
1441975822021041;-0.43231201171875;0.5068359375;0.5440673828125;0.51007080078125;17.093118619750534;11.22533781342783;15.608860513711548;-0.99560546875;0.109375;0.10009765625;-4.125;-1.625;-34.375;
1441975822043042;-0.43475341796875;0.50445556640625;0.54266357421875;0.51177978515625;17.122703082313613;11.111628265361931;15.500081878601701;-0.982421875;0.1220703125;0.09423828125;-4.875;-1.625;-29.1875;
1441975822065043;-0.43670654296875;0.50262451171875;0.5416259765625;0.5130615234375;17.144836534269064;11.019614651460051;15.412296266743349;-0.97900390625;0.1142578125;0.10009765625;-6.0625;-1.8125;-23.3125;
1441975822081044;-0.43780517578125;0.5013427734375;0.541015625;0.5140380859375;17.156616838571686;10.951895122469884;15.346865502791928;-0.98046875;0.1005859375;0.10107421875;-5.4375;-1.3125;-17.5625;
1441975822103045;-0.438232421875;0.50067138671875;0.540771484375;0.51458740234375;17.160755510356726;10.91564310953255;15.31149319087229;-0.98583984375;0.091796875;0.10986328125;-3.1875;-1.9375;-11.375;
1441975822126047;-0.43798828125;0.50079345703125;0.541015625;0.514404296875;17.157145715867323;10.925703461515162;15.321725659313664;-0.98486328125;0.076171875;0.10693359375;-1.25;-2.0;-4.5625;
1441975822148048;-0.43743896484375;0.501220703125;0.5421142578125;0.5133056640625;17.145382929783;10.970951480537478;15.370473637562174;-0.9697265625;0.0947265625;0.09814453125;-0.3125;-1.5625;2.1875;
1441975822163049;-0.43646240234375;0.50189208984375;0.5439453125;0.51153564453125;17.124707034909132;11.041092109705943;15.446212924757464;-0.96240234375;0.10693359375;0.09716796875;-3.125;-1.25;8.125;
1441975822186050;-0.4354248046875;0.502685546875;0.54608154296875;0.5093994140625;17.100785161685756;11.120335702121201;15.532459711813367;-0.96484375;0.1181640625;0.09326171875;-5.0625;-1.75;13.625;
1441975822202051;-0.433837890625;0.50390625;0.54840087890625;0.5069580078125;17.070312219722435;11.214847121088289;15.632563020133537;-0.97900390625;0.1015625;0.09130859375;-6.1875;-1.75;18.125;
1441975822223052;-0.43170166015625;0.50567626953125;0.55078125;0.50445556640625;17.033878149108617;11.319114765667356;15.739617958722308;-0.97802734375;0.1015625;0.09130859375;-4.4375;-1.9375;22.6875;
1441975822246054;-0.42913818359375;0.50787353515625;0.55322265625;0.5018310546875;16.99206427325175;11.428715676064263;15.850074529800487;-0.97314453125;0.10400390625;0.0908203125;-1.4375;-2.0;26.5;
1441975822261054;-0.42620849609375;0.5101318359375;0.55596923828125;0.49896240234375;16.943158455745948;11.534708196619654;15.95726482493003;-0.974609375;0.10693359375;0.08544921875;0.6875;-2.25;29.75;
1441975822283056;-0.4232177734375;0.51263427734375;0.558837890625;0.4957275390625;16.890827642673905;11.643158682257233;16.06743870035122;-0.966796875;0.11865234375;0.09716796875;0.6875;-2.25;32.5625;
1441975822306057;-0.42034912109375;0.51507568359375;0.56182861328125;0.4921875;16.836651096626024;11.745598284146862;16.173356168885753;-0.96533203125;0.13671875;0.08984375;-0.125;-1.625;34.3125;
1441975822321058;-0.417724609375;0.51727294921875;0.56494140625;0.488525390625;16.78223123023807;11.835790926716601;16.269140259333085;-0.97509765625;0.1484375;0.08447265625;-1.5;-1.1875;34.9375;
1441975822343059;-0.415283203125;0.51922607421875;0.5682373046875;0.48480224609375;16.72700828887446;11.91374063825078;16.354624133010187;-0.96923828125;0.15185546875;0.08544921875;-3.9375;-1.125;35.3125;
1441975822367060;-0.41290283203125;0.52117919921875;0.5711669921875;0.48126220703125;16.674470307310454;11.984281336746772;16.43129476968145;-0.95703125;0.1494140625;0.09521484375;-5.375;-0.4375;35.5;
1441975822381061;-0.4105224609375;0.5233154296875;0.57373046875;0.4779052734375;16.623975806169643;12.051902804399617;16.50293926625793;-0.95361328125;0.14453125;0.09814453125;-4.125;0.125;34.5625;
1441975822403063;-0.40826416015625;0.525390625;0.57598876953125;0.474853515625;16.57692011279634;12.111488249787588;16.565319924346056;-0.95068359375;0.15234375;0.09033203125;-1.875;0.4375;33.5;
1441975822426064;-0.40625;0.5272216796875;0.578125;0.471923828125;16.532972080207113;12.163067292094988;16.620402136210966;-0.95654296875;0.1572265625;0.0869140625;-0.9375;0.25;31.9375;
1441975822448065;-0.4044189453125;0.52862548828125;0.5802001953125;0.46929931640625;16.492297439056305;12.201703420681795;16.663250454723347;-0.96240234375;0.16259765625;0.08544921875;-1.625;0.0;30.0625;
1441975822463066;-0.40283203125;0.52984619140625;0.58209228515625;0.46697998046875;16.45601424568645;12.23348823966543;16.699078363538355;-0.9638671875;0.16259765625;0.09765625;-2.4375;-0.0625;27.8125;
1441975822486067;-0.4014892578125;0.53094482421875;0.5836181640625;0.46502685546875;16.425570059648514;12.260546616160967;16.72912586776035;-0.9580078125;0.16943359375;0.10400390625;-2.6875;-0.0625;25.25;
1441975822502068;-0.40045166015625;0.53192138671875;0.5845947265625;0.463623046875;16.403432172147866;12.282671003013569;16.752301875780166;-0.9482421875;0.1767578125;0.103515625;-1.375;0.1875;21.8125;
1441975822523069;-0.39947509765625;0.53271484375;0.58514404296875;0.4627685546875;16.386945199465345;12.297852529990987;16.766416285570163;-0.9638671875;0.1787109375;0.1025390625;0.25;0.3125;17.375;
1441975822546071;-0.39874267578125;0.53363037109375;0.58526611328125;0.46221923828125;16.376171906043567;12.314608796873816;16.780342662392055;-0.95849609375;0.1796875;0.11328125;2.1875;0.1875;14.125;
1441975822562072;-0.3984375;0.53411865234375;0.58502197265625;0.462158203125;16.374040350889093;12.323059299727383;16.785964881218113;-0.947265625;0.19140625;0.10400390625;3.6875;0.75;10.375;
1441975822583073;-0.3985595703125;0.5341796875;0.58465576171875;0.46246337890625;16.37850175533919;12.323193110077543;16.78433473955649;-0.95458984375;0.19775390625;0.109375;3.5625;0.8125;5.625;
1441975822606074;-0.39910888671875;0.53363037109375;0.58428955078125;0.46319580078125;16.3893327778245;12.310656130411678;16.77180494590578;-0.955078125;0.197265625;0.1015625;1.8125;0.0625;1.375;
1441975822622075;-0.3997802734375;0.53289794921875;0.58367919921875;0.46417236328125;16.40403846551933;12.29425819313178;16.75488330425933;-0.9375;0.1904296875;0.11181640625;-0.0625;-0.875;-2.5;
1441975822643076;-0.40081787109375;0.53204345703125;0.5826416015625;0.46551513671875;16.426164689525233;12.275253660348863;16.73447631924024;-0.923828125;0.20654296875;0.12353515625;0.5625;-0.375;-6.4375;
1441975822666078;-0.4022216796875;0.53094482421875;0.58135986328125;0.46722412109375;16.454667237029362;12.250128348768328;16.707954447530852;-0.92431640625;0.21826171875;0.11328125;0.8125;-0.3125;-11.0;
1441975822682078;-0.4041748046875;0.52923583984375;0.5799560546875;0.46917724609375;16.490410673751278;12.213816931626129;16.67254182393629;-0.935546875;0.22998046875;0.1015625;0.0625;-1.0;-15.5;
1441975822703080;-0.406494140625;0.5269775390625;0.5782470703125;0.4718017578125;16.53420244492121;12.160757863774473;16.62020826296879;-0.94775390625;0.216796875;0.09423828125;-2.25;-1.9375;-19.5625;
1441975822726081;-0.40869140625;0.52484130859375;0.576171875;0.474853515625;16.58010610728358;12.102347218965873;16.55952816554496;-0.95654296875;0.1796875;0.10107421875;-2.4375;-3.0;-22.625;
1441975822742082;-0.41064453125;0.52301025390625;0.5736083984375;0.478271484375;16.62734997299724;12.042134589924977;16.492996443044053;-0.95361328125;0.1708984375;0.10888671875;0.8125;-3.3125;-24.5625;
1441975822763083;-0.41253662109375;0.52117919921875;0.571044921875;0.481689453125;16.673365750439515;11.977290010301676;16.42166136955593;-0.95751953125;0.17041015625;0.1025390625;4.375;-3.5625;-26.3125;
1441975822786084;-0.41473388671875;0.51898193359375;0.56866455078125;0.4849853515625;16.719965173213662;11.902359768784542;16.343061871602057;-0.96044921875;0.19189453125;0.099609375;4.3125;-3.9375;-27.875;
1441975822801085;-0.41717529296875;0.51629638671875;0.56658935546875;0.48809814453125;16.765476190079916;11.814098601093438;16.254648492168755;-0.97216796875;0.18017578125;0.0947265625;1.125;-4.6875;-28.625;
1441975822823087;-0.4195556640625;0.5137939453125;0.564453125;0.4912109375;16.80954832958577;11.723168222187835;16.162688855191362;-0.98046875;0.16162109375;0.10498046875;-1.6875;-4.8125;-28.5;
1441975822847088;-0.42169189453125;0.51165771484375;0.562255859375;0.494140625;16.850250032996875;11.636637755040608;16.07372037903251;-0.97265625;0.14794921875;0.1142578125;-1.0625;-4.0625;-27.625;
1441975822861089;-0.42376708984375;0.50970458984375;0.5601806640625;0.49676513671875;16.8879306787536;11.55334204324953;15.988513487219464;-0.97119140625;0.1484375;0.10400390625;0.5625;-3.25;-26.5625;
1441975822891090;-0.42584228515625;0.50775146484375;0.5584716796875;0.4989013671875;16.921313204817636;11.473020643819792;15.908736844370647;-0.970703125;0.14990234375;0.10107421875;-0.3125;-3.0;-25.25;
1441975822906091;-0.42791748046875;0.50579833984375;0.55694580078125;0.50079345703125;16.95222001722412;11.392322803410835;15.82981058031739;-0.96728515625;0.14990234375;0.09326171875;-2.1875;-2.875;-23.4375;
1441975822928093;-0.42962646484375;0.50408935546875;0.55560302734375;0.50250244140625;16.97773788811398;11.316809263917662;15.755361834882189;-0.97119140625;0.13330078125;0.09619140625;-3.4375;-2.5;-21.1875;
1441975822950094;-0.43109130859375;0.50286865234375;0.554443359375;0.5037841796875;16.999159020158274;11.259104761058694;15.698370700993411;-0.96533203125;0.12353515625;0.1015625;-2.5;-2.1875;-18.25;
1441975822966095;-0.43231201171875;0.50189208984375;0.55352783203125;0.50469970703125;17.01628850265707;11.21349404976979;15.653820417063137;-0.95751953125;0.12939453125;0.08935546875;-1.75;-1.875;-15.375;
1441975822988096;-0.4332275390625;0.50103759765625;0.55303955078125;0.50531005859375;17.027356171727845;11.17675466138842;15.619016819079922;-0.96240234375;0.1240234375;0.08642578125;-2.0625;-1.625;-12.0625;
1441975823003097;-0.43377685546875;0.50067138671875;0.55267333984375;0.505615234375;17.034591543236292;11.159463687441498;15.602431271972366;-0.97314453125;0.11865234375;0.09814453125;-2.8125;-1.5625;-8.4375;
1441975823025098;-0.43389892578125;0.50079345703125;0.5523681640625;0.5057373046875;17.038069782255178;11.159648095846293;15.601389157949063;-0.970703125;0.1181640625;0.09375;-1.125;-1.3125;-5.0625;
1441975823042099;-0.4337158203125;0.501220703125;0.55224609375;0.505615234375;17.0377549958327;11.173842857177393;15.613829258462582;-0.96923828125;0.119140625;0.08935546875;0.8125;-1.0625;-1.75;
1441975823072101;-0.4332275390625;0.50177001953125;0.55242919921875;0.5052490234375;17.032525326385908;11.197122916439316;15.635701835054146;-0.9755859375;0.119140625;0.08642578125;1.5625;-1.0;1.1875;
1441975823103103;-0.432373046875;0.50274658203125;0.55279541015625;0.50457763671875;17.02288196855885;11.238297515766602;15.674589410955758;-0.962890625;0.1142578125;0.0947265625;1.5;-0.9375;4.3125;
1441975823105103;-0.43133544921875;0.50396728515625;0.5533447265625;0.503662109375;17.010093857445046;11.290163304429631;15.724167776117609;-0.95849609375;0.13037109375;0.0966796875;2.375;-0.4375;7.0625;
1441975823123104;-0.430419921875;0.50506591796875;0.55419921875;0.50244140625;16.99549231403093;11.343646503256638;15.777820430216881;-0.97998046875;0.1455078125;0.0947265625;2.4375;-0.1875;8.8125;
1441975823146105;-0.4295654296875;0.5059814453125;0.55517578125;0.50115966796875;16.980064530909285;11.392130965256225;15.827701166747662;-0.97265625;0.1494140625;0.09423828125;0.3125;0.0;10.25;
1441975823162106;-0.42852783203125;0.50714111328125;0.5560302734375;0.49993896484375;16.96377601815266;11.444044125993726;15.879255300911675;-0.9609375;0.1298828125;0.1025390625;-0.875;0.1875;11.375;
1441975823185107;-0.42724609375;0.5087890625;0.55670166015625;0.4986572265625;16.946339696749;11.50755956281351;15.939953434868267;-0.9609375;0.1181640625;0.111328125;1.375;1.3125;13.0;
1441975823206108;-0.42608642578125;0.51031494140625;0.5576171875;0.49700927734375;16.927180963076104;11.57280469045304;16.00483489644124;-0.95654296875;0.13427734375;0.10546875;3.6875;1.9375;13.875;
1441975823222109;-0.42529296875;0.51153564453125;0.55889892578125;0.4949951171875;16.907454586692015;11.6350136220581;16.070721939557217;-0.951171875;0.15087890625;0.0947265625;1.1875;2.125;14.5625;
1441975823243111;-0.4246826171875;0.512451171875;0.56024169921875;0.4930419921875;16.88859930243701;11.6870114754728;16.12780448883079;-0.9521484375;0.146484375;0.0966796875;-2.8125;2.4375;15.0625;
1441975823266112;-0.42388916015625;0.5135498046875;0.56146240234375;0.49127197265625;16.868910215238603;11.737941200749155;16.181889522930042;-0.95751953125;0.130859375;0.1015625;-3.875;2.625;15.375;
1441975823282113;-0.42303466796875;0.51483154296875;0.56243896484375;0.48944091796875;16.849857536607818;11.79319059034601;16.23905999204296;-0.955078125;0.14013671875;0.11572265625;-1.9375;3.125;15.375;
1441975823303114;-0.42242431640625;0.51593017578125;0.56341552734375;0.4876708984375;16.832764438778018;11.842264433279526;16.2911135546621;-0.96337890625;0.154296875;0.10107421875;-0.8125;3.1875;14.6875;
1441975823326115;-0.4219970703125;0.51678466796875;0.564453125;0.48602294921875;16.816978949578193;11.882819064630775;16.33570651296846;-0.97998046875;0.15966796875;0.1015625;-1.9375;3.0625;13.625;
1441975823341116;-0.421630859375;0.51751708984375;0.56536865234375;0.4844970703125;16.802786373345153;11.91851248350056;16.375261918743842;-0.9697265625;0.15283203125;0.10302734375;-3.125;3.125;12.6875;
1441975823372118;-0.42144775390625;0.51806640625;0.566162109375;0.48309326171875;16.79136299998175;11.948827036816269;16.409791110455426;-0.9609375;0.16064453125;0.1142578125;-3.0625;3.5;11.375;
1441975823386119;-0.4215087890625;0.51861572265625;0.56689453125;0.48162841796875;16.782124590275934;11.980742468129353;16.446627773291784;-0.9580078125;0.158203125;0.11572265625;-3.0;4.0;9.8125;
1441975823401120;-0.42193603515625;0.5186767578125;0.56768798828125;0.480224609375;16.7762252626886;12.0023147735829;16.47558397155869;-0.94970703125;0.1640625;0.10498046875;-4.0;4.3125;8.5;
1441975823423121;-0.42266845703125;0.5185546875;0.5684814453125;0.478759765625;16.772901505700734;12.022144512646653;16.50438198097972;-0.95263671875;0.1640625;0.11083984375;-6.6875;4.375;6.9375;
1441975823447122;-0.42364501953125;0.5181884765625;0.569091796875;0.47760009765625;16.774077875519776;12.034011151237623;16.525218067362378;-0.9619140625;0.16796875;0.1064453125;-8.3125;4.5;5.25;
1441975823461123;-0.42462158203125;0.5177001953125;0.56951904296875;0.4766845703125;16.77740576444596;12.040603900214196;16.539900452955443;-0.96484375;0.16064453125;0.10595703125;-8.4375;4.375;3.1875;
1441975823485124;-0.42559814453125;0.517333984375;0.56964111328125;0.47613525390625;16.78373594639903;12.045521597944644;16.550621119680315;-0.96435546875;0.1572265625;0.11083984375;-7.375;4.25;1.5625;
1441975823506126;-0.426513671875;0.5169677734375;0.56951904296875;0.475830078125;16.791983141128842;12.047775151520263;16.557094389317722;-0.95849609375;0.15283203125;0.111328125;-5.1875;4.125;0.125;
1441975823521126;-0.42742919921875;0.51654052734375;0.56939697265625;0.47564697265625;16.800674127228103;12.046766306945498;16.560128499619125;-0.95703125;0.1494140625;0.107421875;-3.8125;3.6875;-0.8125;
1441975823545128;-0.42840576171875;0.515869140625;0.56927490234375;0.4755859375;16.81061690483908;12.038959331939148;16.55689167446151;-0.95849609375;0.1484375;0.10302734375;-3.875;2.9375;-1.5;
1441975823565129;-0.42919921875;0.5152587890625;0.5692138671875;0.47564697265625;16.818832599091365;12.029030955466105;16.550653228423045;-0.9560546875;0.13818359375;0.10302734375;-4.1875;2.125;-2.0625;
1441975823581130;-0.429931640625;0.5147705078125;0.5689697265625;0.475830078125;16.827985275578264;12.020346241314622;16.54425156957124;-0.96044921875;0.14208984375;0.1044921875;-3.5625;1.375;-2.1875;
1441975823605131;-0.43060302734375;0.51422119140625;0.56884765625;0.47601318359375;16.835838753780465;12.009216160785218;16.53575562773533;-0.97265625;0.1513671875;0.10400390625;-2.3125;1.25;-2.875;
1441975823626132;-0.431396484375;0.5135498046875;0.5687255859375;0.47613525390625;16.844722872073906;11.996975369606965;16.527028093284756;-0.97021484375;0.15966796875;0.10498046875;-2.625;0.9375;-3.4375;
1441975823650134;-0.4322509765625;0.51287841796875;0.5684814453125;0.47637939453125;16.85530718811019;11.983406378136815;16.516443696166522;-0.96240234375;0.15576171875;0.1025390625;-3.4375;0.9375;-3.8125;
1441975823672135;-0.43310546875;0.51220703125;0.568115234375;0.4766845703125;16.866913144889423;11.969302989321148;16.504798295084857;-0.96875;0.14794921875;0.09716796875;-3.3125;0.8125;-4.3125;
1441975823686136;-0.43389892578125;0.51153564453125;0.5677490234375;0.47711181640625;16.87829946069838;11.9524313213717;16.4898560429961;-0.97607421875;0.1455078125;0.09619140625;-2.8125;0.625;-4.5625;
1441975823701137;-0.4345703125;0.510986328125;0.56732177734375;0.4776611328125;16.889205716831174;11.935539322368605;16.47366215889036;-0.98193359375;0.14501953125;0.09765625;-1.9375;0.125;-4.9375;
1441975823725138;-0.43505859375;0.51055908203125;0.56689453125;0.4781494140625;16.89821962492019;11.921506490172046;16.459626989014122;-0.96728515625;0.13720703125;0.10009765625;-0.75;0.3125;-4.5625;
1441975823746139;-0.43560791015625;0.510009765625;0.566650390625;0.478515625;16.90625151828806;11.905933285673282;16.445456681177284;-0.9638671875;0.14208984375;0.107421875;-0.25;0.5;-4.25;
1441975823761140;-0.43621826171875;0.50946044921875;0.56658935546875;0.4786376953125;16.9128456514206;11.893924553005338;16.436255806624096;-0.95849609375;0.1474609375;0.10888671875;-1.25;0.5;-4.0;
1441975823784142;-0.43695068359375;0.50885009765625;0.5665283203125;0.47869873046875;16.920385108712722;11.882031266683166;16.4278725326285;-0.9599609375;0.150390625;0.103515625;-2.75;0.5625;-3.5625;
1441975823806143;-0.43756103515625;0.50830078125;0.5665283203125;0.47869873046875;16.926218400729354;11.871774945842995;16.420951649659752;-0.9580078125;0.1435546875;0.09521484375;-3.9375;0.625;-3.1875;
1441975823821144;-0.43792724609375;0.50799560546875;0.5662841796875;0.47894287109375;16.932037851977054;11.86282998726976;16.41253203455022;-0.95263671875;0.1376953125;0.10009765625;-3.3125;0.5;-2.5;
1441975823845145;-0.43804931640625;0.5079345703125;0.56591796875;0.47930908203125;16.93666826403364;11.85686723502787;16.404987252416284;-0.95947265625;0.1376953125;0.095703125;-0.6875;0.25;-2.25;
1441975823865146;-0.43804931640625;0.50811767578125;0.56549072265625;0.47967529296875;16.94041521683664;11.85640105701693;16.401708489729348;-0.96923828125;0.14208984375;0.09375;1.5625;-0.3125;-2.0;
1441975823881147;-0.43792724609375;0.5081787109375;0.56512451171875;0.4801025390625;16.94297460924972;11.851114752376404;16.393612528279377;-0.96630859375;0.1455078125;0.0849609375;2.3125;-0.5625;-1.5;
1441975823905148;-0.437744140625;0.50836181640625;0.56475830078125;0.4805908203125;16.9450057708375;11.847175326126317;16.38615861279986;-0.97216796875;0.14599609375;0.0947265625;2.6875;-0.625;-1.375;
1441975823926150;-0.4375;0.5086669921875;0.5643310546875;0.48095703125;16.946549717840416;11.848654167041369;16.38377434721331;-0.96875;0.1435546875;0.0966796875;3.5;-0.8125;-1.1875;
1441975823941150;-0.43731689453125;0.50897216796875;0.56396484375;0.481201171875;16.947884341092685;11.852415584600973;16.38437501736234;-0.96484375;0.1484375;0.09326171875;3.75;-0.3125;-0.8125;
1441975823964152;-0.43719482421875;0.50921630859375;0.563720703125;0.48138427734375;16.948770563787797;11.855453962102336;16.385129711134947;-0.96435546875;0.154296875;0.095703125;3.25;0.125;-0.8125;
1441975823987153;-0.43719482421875;0.50933837890625;0.5634765625;0.48150634765625;16.950693178824764;11.857318311034886;16.38558931424972;-0.97021484375;0.15673828125;0.0927734375;2.125;0.3125;-0.6875;
1441975824001154;-0.437255859375;0.50946044921875;0.563232421875;0.48162841796875;16.953128735712017;11.859391812449827;16.386432831550664;-0.966796875;0.1474609375;0.09765625;1.125;0.375;-0.625;
1441975824024155;-0.437255859375;0.50970458984375;0.56292724609375;0.48175048828125;16.955350018465612;11.86447524905854;16.38958402298697;-0.96533203125;0.142578125;0.09619140625;1.5625;0.6875;-0.625;
1441975824046156;-0.437255859375;0.5098876953125;0.56268310546875;0.4818115234375;16.957057203752733;11.869014993412298;16.39271909719063;-0.96337890625;0.150390625;0.09423828125;1.75;0.8125;-0.625;
1441975824061157;-0.437255859375;0.5101318359375;0.56243896484375;0.4818115234375;16.958545716518366;11.876225490033228;16.398524920812022;-0.95703125;0.150390625;0.09130859375;1.5625;0.8125;-0.5625;
1441975824084159;-0.4373779296875;0.51019287109375;0.56219482421875;0.48187255859375;16.961427492471252;11.878385346138316;16.399982439401562;-0.9619140625;0.1572265625;0.09228515625;1.125;0.9375;-0.8125;
1441975824106160;-0.43756103515625;0.51019287109375;0.56201171875;0.48199462890625;16.964590504257846;11.87770818084074;16.398952803000586;-0.96630859375;0.150390625;0.09619140625;0.75;1.125;-1.0625;
1441975824121161;-0.437744140625;0.51019287109375;0.56182861328125;0.4820556640625;16.967613039531717;11.87827810805211;16.399346510800896;-0.96142578125;0.146484375;0.0986328125;0.3125;1.125;-1.25;
1441975824144162;-0.43792724609375;0.51025390625;0.5616455078125;0.4820556640625;16.97041703323526;11.881538459620685;16.402430653717975;-0.96728515625;0.14306640625;0.09814453125;0.25;1.1875;-1.0625;
1441975824165163;-0.4381103515625;0.51025390625;0.5615234375;0.48199462890625;16.97270860848647;11.884243959887295;16.405487280105824;-0.966796875;0.146484375;0.0986328125;0.3125;1.375;-0.875;
1441975824181164;-0.43829345703125;0.51025390625;0.5614013671875;0.48193359375;16.974999230802368;11.886962407946449;16.408556854126655;-0.9609375;0.150390625;0.09765625;-0.25;1.1875;-0.6875;
1441975824204166;-0.43853759765625;0.51019287109375;0.5614013671875;0.48175048828125;16.97669866051192;11.890205863245226;16.413204811623757;-0.98046875;0.14697265625;0.09423828125;-0.5625;1.0625;-0.6875;
1441975824226167;-0.43890380859375;0.51007080078125;0.56134033203125;0.481689453125;16.98023250695365;11.890345328676535;16.414747281060716;-0.97998046875;0.15380859375;0.09326171875;-1.25;1.0625;-0.6875;
1441975824241168;-0.43914794921875;0.51007080078125;0.5611572265625;0.48175048828125;16.9837649946271;11.891192817810083;16.41559327494886;-0.9697265625;0.1484375;0.08837890625;-1.4375;0.9375;-1.3125;
1441975824264169;-0.43927001953125;0.51007080078125;0.56085205078125;0.48193359375;16.987457257272766;11.889842541246285;16.413189753164502;-0.9580078125;0.14404296875;0.09326171875;-0.125;1.0;-1.375;
1441975824286170;-0.43927001953125;0.51007080078125;0.56085205078125;0.48193359375;16.987457257272766;11.889842541246285;16.413189753164502;-0.96435546875;0.14013671875;0.09423828125;1.3125;0.9375;-1.4375;
1441975824309172;-0.43927001953125;0.51007080078125;0.56085205078125;0.48193359375;16.987457257272766;11.889842541246285;16.413189753164502;-0.96044921875;0.14111328125;0.09619140625;0.6875;0.75;-0.875;
1441975824324172;-0.43951416015625;0.50994873046875;0.56097412109375;0.48175048828125;16.988338131714215;11.890875986705314;16.416153372494467;-0.96435546875;0.14794921875;0.099609375;-0.5;0.75;-0.4375;
1441975824346174;-0.43975830078125;0.5096435546875;0.5611572265625;0.4815673828125;16.989011795699344;11.887142549004576;16.415053811235314;-0.955078125;0.15087890625;0.09423828125;-2.125;0.9375;-0.625;
1441975824368175;-0.4400634765625;0.50946044921875;0.5611572265625;0.4814453125;16.991524310034194;11.886479160371053;16.41614581745276;-0.953125;0.1552734375;0.10107421875;-2.5625;0.75;-1.125;
1441975824384176;-0.4404296875;0.50927734375;0.56121826171875;0.4813232421875;16.99409866027583;11.885642284774692;16.417413461514;-0.95751953125;0.14892578125;0.09130859375;-2.0;0.75;-1.5625;
1441975824407177;-0.44085693359375;0.509033203125;0.5611572265625;0.481201171875;16.998162830467763;11.884384166790765;16.418261672321666;-0.9580078125;0.1513671875;0.09423828125;-1.8125;1.0;-1.6875;
1441975824428178;-0.44140625;0.5086669921875;0.56121826171875;0.4810791015625;17.002510920935315;11.879827725205695;16.416862437425674;-0.96240234375;0.150390625;0.08251953125;-2.375;0.75;-2.0;
1441975824444179;-0.44183349609375;0.50830078125;0.56121826171875;0.48095703125;17.006286216880838;11.875188217067237;16.41485686258487;-0.97412109375;0.14306640625;0.0830078125;-3.25;0.25;-1.875;
1441975824467181;-0.442138671875;0.50799560546875;0.56121826171875;0.48101806640625;17.00937715565988;11.86762202773064;16.408869080957086;-0.9755859375;0.1376953125;0.08203125;-2.6875;-0.0625;-1.3125;
1441975824488182;-0.44219970703125;0.50799560546875;0.56121826171875;0.48101806640625;17.009888108889605;11.867851479432598;16.409272777057552;-0.97802734375;0.126953125;0.08837890625;-1.6875;-0.125;-0.8125;
1441975824504183;-0.442138671875;0.50799560546875;0.56121826171875;0.48101806640625;17.00937715565988;11.86762202773064;16.408869080957086;-0.96728515625;0.13671875;0.09033203125;-0.1875;0.125;0.1875;
1441975824527184;-0.44219970703125;0.50811767578125;0.56134033203125;0.480712890625;17.008130463021274;11.87654391481469;16.41884404650356;-0.96875;0.14404296875;0.08935546875;-0.125;0.125;0.6875;
1441975824548185;-0.44232177734375;0.5079345703125;0.56170654296875;0.4803466796875;17.00585151684759;11.877943898571194;16.423229124043672;-0.97021484375;0.150390625;0.0830078125;-1.1875;0.1875;0.9375;
1441975824564186;-0.44244384765625;0.50787353515625;0.5618896484375;0.48016357421875;17.005181724532612;11.87961249678282;16.426475934537017;-0.96484375;0.14453125;0.08935546875;-2.8125;0.125;1.0625;
1441975824587187;-0.44244384765625;0.50787353515625;0.5618896484375;0.48016357421875;17.005181724532612;11.87961249678282;16.426475934537017;-0.9658203125;0.13916015625;0.09326171875;-1.75;0.3125;0.9375;
1441975824616189;-0.44232177734375;0.508056640625;0.56182861328125;0.48004150390625;17.00408071733577;11.88657844789061;16.432742670590482;-0.9619140625;0.142578125;0.08984375;0.8125;0.625;0.8125;
1441975824624190;-0.44232177734375;0.508056640625;0.56182861328125;0.48004150390625;17.00408071733577;11.88657844789061;16.432742670590482;-0.9658203125;0.14794921875;0.0908203125;1.0625;0.4375;0.6875;
1441975824647191;-0.44244384765625;0.508056640625;0.56195068359375;0.4798583984375;17.00377440124429;11.890124141567384;16.43751556266421;-0.9658203125;0.142578125;0.08984375;-0.5625;0.375;0.8125;
1441975824668192;-0.4425048828125;0.50811767578125;0.56201171875;0.47967529296875;17.003320961162117;11.895314401793227;16.44340788528;-0.9609375;0.13525390625;0.0830078125;-1.3125;0.375;1.0;
1441975824684193;-0.442626953125;0.50823974609375;0.56195068359375;0.47955322265625;17.00433063718204;11.901761246637003;16.450028766872677;-0.96435546875;0.13623046875;0.09423828125;-0.625;0.6875;1.0;
1441975824707194;-0.44268798828125;0.5084228515625;0.56195068359375;0.47930908203125;17.003997957263117;11.911612521000482;16.460231060957263;-0.96826171875;0.140625;0.08642578125;-0.0625;1.125;0.6875;
1441975824728195;-0.44281005859375;0.50860595703125;0.561767578125;0.47918701171875;17.00580196736143;11.920410904286804;16.468678424522476;-0.9541015625;0.146484375;0.0908203125;-0.375;1.4375;0.625;
1441975824744196;-0.4429931640625;0.50872802734375;0.5615234375;0.47918701171875;17.008941386738943;11.925859432051613;16.473598959621093;-0.9658203125;0.13818359375;0.083984375;0.625;1.4375;0.125;
1441975824767198;-0.4429931640625;0.5089111328125;0.561279296875;0.479248046875;17.010612443422414;11.930730947871952;16.47706643383562;-0.9794921875;0.12353515625;0.0849609375;0.8125;1.125;0.625;
1441975824788199;-0.44281005859375;0.50933837890625;0.56097412109375;0.47930908203125;17.01084050176531;11.94117922165313;16.484706607878618;-0.96630859375;0.12646484375;0.0888671875;1.3125;1.25;0.875;
1441975824804200;-0.4423828125;0.510009765625;0.560546875;0.4794921875;17.009856150927437;11.95474513758806;16.49335829976498;-0.9599609375;0.12890625;0.09130859375;2.9375;1.25;1.5;
1441975824827201;-0.44195556640625;0.5107421875;0.56005859375;0.47967529296875;17.009208741680773;11.970212704788441;16.503560564060205;-0.95556640625;0.13916015625;0.0947265625;5.25;1.6875;1.5625;
1441975824848202;-0.4415283203125;0.51141357421875;0.55963134765625;0.4798583984375;17.00819404561113;11.983736138105705;16.51216966366914;-0.9599609375;0.13232421875;0.0849609375;5.5;1.3125;1.5625;
1441975824864203;-0.441162109375;0.51220703125;0.55914306640625;0.47991943359375;17.007598001422796;12.003503833442396;16.527022983461336;-0.95654296875;0.1376953125;0.08935546875;4.9375;1.4375;1.9375;
1441975824887205;-0.44073486328125;0.51287841796875;0.5587158203125;0.4801025390625;17.006547109940822;12.016979617080862;16.535584356949542;-0.96484375;0.1416015625;0.07666015625;5.125;1.375;1.6875;
1441975824908206;-0.4403076171875;0.513427734375;0.55810546875;0.48052978515625;17.007673654222202;12.023778395095697;16.53659150949068;-0.97265625;0.1435546875;0.08349609375;5.0625;0.9375;1.25;
1441975824924207;-0.43975830078125;0.51409912109375;0.5574951171875;0.4810791015625;17.00791087206916;12.030340280815901;16.536307857703004;-0.978515625;0.13525390625;0.08251953125;5.875;0.1875;0.75;
1441975824947208;-0.43902587890625;0.51483154296875;0.55694580078125;0.48162841796875;17.006087436883423;12.036992709226892;16.53558857300912;-0.9736328125;0.1357421875;0.080078125;6.9375;-0.125;0.6875;
1441975824968209;-0.43841552734375;0.51544189453125;0.55645751953125;0.48199462890625;17.00454351438956;12.044691485273177;16.537319322380103;-0.9580078125;0.15087890625;0.09375;7.3125;0.0;0.125;
1441975824984210;-0.43841552734375;0.515625;0.5562744140625;0.48211669921875;17.00589195693441;12.047933395804392;16.53915755113044;-0.9521484375;0.17529296875;0.08349609375;5.8125;0.125;-1.125;
1441975825007211;-0.4388427734375;0.5152587890625;0.55621337890625;0.48211669921875;17.01048991906269;12.041742646085217;16.535073001929895;-0.95703125;0.17724609375;0.07470703125;1.0625;0.125;-2.625;
1441975825028213;-0.4395751953125;0.5147705078125;0.55596923828125;0.4822998046875;17.019635118036707;12.031575006891742;16.527187485196514;-0.96435546875;0.171875;0.08203125;-2.25;0.5;-4.125;
1441975825044214;-0.44024658203125;0.51434326171875;0.55548095703125;0.48272705078125;17.030587749386044;12.019049798888505;16.515189134390738;-0.96484375;0.154296875;0.08447265625;-2.375;1.0625;-5.375;
1441975825067215;-0.44097900390625;0.51397705078125;0.5550537109375;0.48291015625;17.040848221614713;12.012946568276115;16.510489932039356;-0.97216796875;0.1474609375;0.08544921875;-0.8125;1.125;-6.0;
1441975825088216;-0.44183349609375;0.5135498046875;0.55487060546875;0.48284912109375;17.049796387016855;12.009305996473099;16.51018328600097;-0.96044921875;0.15771484375;0.0791015625;-1.5;1.625;-5.9375;
1441975825112217;-0.44293212890625;0.51287841796875;0.55487060546875;0.48248291015625;17.059033710125746;12.006073778081614;16.513091875932965;-0.958984375;0.1650390625;0.076171875;-3.75;2.0;-5.75;
1441975825127218;-0.44415283203125;0.51202392578125;0.5550537109375;0.4820556640625;17.068083707463753;11.998712690310892;16.513449768103797;-0.95458984375;0.1630859375;0.072265625;-6.1875;2.125;-5.5625;
1441975825148220;-0.4454345703125;0.51123046875;0.55517578125;0.48162841796875;17.077985809182863;11.993656110830013;16.515935059193176;-0.95458984375;0.15478515625;0.0751953125;-7.9375;2.375;-5.375;
1441975825164220;-0.4466552734375;0.510498046875;0.5552978515625;0.4810791015625;17.086971623481638;11.992667856008806;16.522489038310063;-0.96044921875;0.1513671875;0.0791015625;-7.8125;2.6875;-5.125;
1441975825187222;-0.447998046875;0.50970458984375;0.55560302734375;0.4803466796875;17.095252979971654;11.993560758037226;16.53250108135414;-0.96337890625;0.15283203125;0.07421875;-7.6875;2.875;-4.8125;
1441975825208223;-0.44940185546875;0.50885009765625;0.55609130859375;0.4793701171875;17.102164100309796;11.99749674609091;16.547134890678343;-0.9619140625;0.15478515625;0.06640625;-8.875;2.75;-4.375;
1441975825224224;-0.45086669921875;0.50787353515625;0.55682373046875;0.47821044921875;17.107514324538645;12.000945524788081;16.563034277637733;-0.95947265625;0.15771484375;0.0693359375;-10.6875;3.0625;-3.75;
1441975825246225;-0.45245361328125;0.50677490234375;0.55780029296875;0.4766845703125;17.11132071749084;12.008551670853603;16.58554947587013;-0.95947265625;0.16162109375;0.07470703125;-12.6875;3.4375;-3.1875;
1441975825268226;-0.454345703125;0.505615234375;0.55889892578125;0.47491455078125;17.11617227415679;12.021206584223068;16.615211917315385;-0.951171875;0.1689453125;0.07861328125;-14.9375;4.3125;-2.75;
1441975825284227;-0.45635986328125;0.50421142578125;0.56011962890625;0.47296142578125;17.121050301034913;12.031578702269389;16.6445278270081;-0.9677734375;0.16748046875;0.0712890625;-16.75;4.875;-2.5625;
1441975825306229;-0.45855712890625;0.502685546875;0.56158447265625;0.470703125;17.124995708865573;12.045112826693725;16.67946015187812;-0.9833984375;0.16357421875;0.07763671875;-18.8125;5.25;-2.0625;
1441975825328230;-0.4609375;0.5008544921875;0.56329345703125;0.46832275390625;17.12888006988695;12.052490183799422;16.71068877331175;-0.9794921875;0.1650390625;0.0712890625;-21.375;5.4375;-1.5;
1441975825344231;-0.46319580078125;0.49908447265625;0.5650634765625;0.46588134765625;17.131000105913195;12.061713775498307;16.743591367151307;-0.98095703125;0.14990234375;0.0771484375;-23.375;5.1875;-0.75;
1441975825366232;-0.46533203125;0.49725341796875;0.56689453125;0.46343994140625;17.131787534368648;12.067930685481722;16.773497994970253;-0.97705078125;0.1416015625;0.0732421875;-23.375;5.0;0.6875;
1441975825404234;-0.4671630859375;0.49554443359375;0.5689697265625;0.4609375;17.127874921920974;12.074263508494846;16.803170318509427;-0.9833984375;0.12353515625;0.07568359375;-23.375;4.4375;2.375;
1441975825407234;-0.4686279296875;0.4940185546875;0.57122802734375;0.45819091796875;17.11850763212993;12.086489025702532;16.838415339695445;-0.97900390625;0.12060546875;0.08544921875;-22.875;3.9375;4.75;
1441975825426235;-0.469970703125;0.49267578125;0.57366943359375;0.45526123046875;17.10580230619803;12.104414806509602;16.879531955833894;-0.974609375;0.1240234375;0.08349609375;-22.4375;3.4375;7.0625;
1441975825450237;-0.4710693359375;0.4913330078125;0.57623291015625;0.4522705078125;17.089991732507876;12.119782233861134;16.917944778640184;-0.97216796875;0.12841796875;0.07763671875;-22.5625;2.75;9.0625;
1441975825464238;-0.47186279296875;0.49017333984375;0.578857421875;0.44940185546875;17.07119292581701;12.133180928720035;16.95280851714155;-0.97021484375;0.12353515625;0.0751953125;-22.4375;1.75;10.8125;
1441975825486239;-0.472412109375;0.4891357421875;0.5814208984375;0.44659423828125;17.05071738034549;12.146071320083495;16.985787811157355;-0.970703125;0.12255859375;0.0751953125;-20.9375;0.9375;12.1875;
1441975825509240;-0.47271728515625;0.48828125;0.58392333984375;0.4439697265625;17.028830896335407;12.157336049230196;17.01521031084785;-0.98095703125;0.1201171875;0.0712890625;-19.4375;-0.125;13.1875;
1441975825531241;-0.47271728515625;0.48760986328125;0.5863037109375;0.4415283203125;17.005483026499803;12.167223671856862;17.0409954275416;-0.99365234375;0.1259765625;0.07080078125;-17.6875;-1.0;13.6875;
1441975825546242;-0.4725341796875;0.487060546875;0.58856201171875;0.4393310546875;16.982033371887336;12.174152936139107;17.061889610087018;-0.9814453125;0.125;0.0732421875;-15.8125;-1.6875;14.25;
1441975825569244;-0.4720458984375;0.48681640625;0.59051513671875;0.43743896484375;16.95852310956387;12.182205994641953;17.08040927192874;-0.974609375;0.12158203125;0.076171875;-13.1875;-2.1875;14.5625;
1441975825590245;-0.471435546875;0.48687744140625;0.59222412109375;0.435791015625;16.93577202454725;12.193269825091154;17.099279051765187;-0.9716796875;0.11572265625;0.07568359375;-10.0;-2.5;14.9375;
1441975825606246;-0.470703125;0.487060546875;0.5938720703125;0.43414306640625;16.912111058691117;12.206021420417839;17.118975650091592;-0.9755859375;0.11865234375;0.07275390625;-7.3125;-2.5625;15.0;
1441975825629247;-0.46990966796875;0.48712158203125;0.5955810546875;0.4324951171875;16.887846555805194;12.21453488025455;17.13481290708809;-0.9755859375;0.12353515625;0.06884765625;-6.6875;-2.875;15.25;
1441975825644248;-0.46917724609375;0.48724365234375;0.59710693359375;0.43115234375;16.86627419724703;12.220686901868216;17.146838087671913;-0.9697265625;0.12841796875;0.07275390625;-6.8125;-3.1875;15.25;
1441975825666249;-0.46820068359375;0.48760986328125;0.59832763671875;0.4300537109375;16.84506418955144;12.228478798487524;17.157538720646713;-0.974609375;0.119140625;0.072265625;-5.75;-3.5625;14.8125;
1441975825689250;-0.46697998046875;0.48828125;0.59930419921875;0.42926025390625;16.823865136327697;12.237528803490225;17.166317049160213;-0.9658203125;0.12109375;0.0712890625;-2.4375;-3.4375;14.375;
1441975825704251;-0.4658203125;0.489013671875;0.60003662109375;0.42864990234375;16.805319133524293;12.247153318305664;17.17442937981499;-0.96240234375;0.1337890625;0.08154296875;0.75;-3.3125;13.25;
1441975825726253;-0.46484375;0.48974609375;0.60052490234375;0.42822265625;16.790569449849624;12.257057188691512;17.182093025678476;-0.9619140625;0.142578125;0.0712890625;1.75;-3.3125;11.875;
1441975825749254;-0.46392822265625;0.4903564453125;0.60089111328125;0.42803955078125;16.778404791011006;12.262127613238253;17.18438359056122;-0.96044921875;0.14404296875;0.06640625;2.1875;-3.25;10.3125;
1441975825764255;-0.463134765625;0.490966796875;0.6009521484375;0.42803955078125;16.76996616980267;12.267857431245154;17.186280593187043;-0.9560546875;0.15380859375;0.072265625;3.0;-2.9375;8.25;
1441975825786256;-0.462646484375;0.4913330078125;0.6009521484375;0.42822265625;16.76576609749511;12.26867181054993;17.184100237475878;-0.9599609375;0.16015625;0.07666015625;3.6875;-2.25;5.8125;
1441975825809257;-0.46240234375;0.49151611328125;0.6007080078125;0.42864990234375;16.766607421496154;12.266074946807967;17.178320531233688;-0.95068359375;0.16357421875;0.0791015625;3.0625;-1.875;3.3125;
1441975825824258;-0.46246337890625;0.49163818359375;0.60009765625;0.42919921875;16.77297666343997;12.265735257460749;17.174447296375956;-0.94873046875;0.16650390625;0.08642578125;3.3125;-1.125;0.625;
1441975825846259;-0.462890625;0.4915771484375;0.599365234375;0.4298095703125;16.78383156740631;12.264457791659416;17.170664031759106;-0.96337890625;0.17333984375;0.07861328125;3.3125;0.0;-2.1875;
1441975825869261;-0.463623046875;0.4910888671875;0.59857177734375;0.43072509765625;16.799885826755588;12.252605433944806;17.15733389829354;-0.966796875;0.1796875;0.07373046875;2.125;0.5625;-4.6875;
1441975825898262;-0.46453857421875;0.4906005859375;0.5975341796875;0.4317626953125;16.819491564486423;12.241884981551575;17.144597738035316;-0.9619140625;0.1650390625;0.0859375;1.3125;0.9375;-7.125;
1441975825906263;-0.4654541015625;0.49029541015625;0.59619140625;0.43292236328125;16.84110795811904;12.235222423354758;17.134166942640764;-0.94970703125;0.158203125;0.08935546875;2.3125;2.0;-8.5;
1441975825930264;-0.466552734375;0.48980712890625;0.5948486328125;0.43414306640625;16.864900344534878;12.224713815410617;17.120755786316206;-0.939453125;0.16259765625;0.0859375;3.375;2.75;-9.875;
1441975825950265;-0.4677734375;0.4891357421875;0.59375;0.43511962890625;16.887569978754158;12.212716415560516;17.108147648590226;-0.95947265625;0.1591796875;0.0849609375;2.8125;3.0;-10.875;
1441975825974267;-0.46917724609375;0.4881591796875;0.5928955078125;0.4359130859375;16.910149062466445;12.195983500252183;17.09344482706566;-0.9541015625;0.16162109375;0.08740234375;0.25;2.8125;-10.9375;
1441975825989268;-0.47064208984375;0.4871826171875;0.5919189453125;0.43670654296875;16.9340226637713;12.180203142070736;17.079530757779338;-0.9541015625;0.158203125;0.0869140625;-2.125;3.125;-10.9375;
1441975826010269;-0.47198486328125;0.48638916015625;0.59075927734375;0.437744140625;16.958546717040953;12.164064007473755;17.063130877061344;-0.96484375;0.1533203125;0.0859375;-1.9375;3.25;-11.25;
1441975826026270;-0.4730224609375;0.48583984375;0.589599609375;0.43878173828125;16.979963401298782;12.150488929277321;17.047731226240472;-0.96923828125;0.14599609375;0.08642578125;-0.125;3.0625;-11.4375;
1441975826049271;-0.47393798828125;0.48553466796875;0.58837890625;0.43975830078125;16.99997060238075;12.142886641431774;17.037254307203405;-0.96337890625;0.15234375;0.08984375;1.9375;3.1875;-10.8125;
1441975826070272;-0.4747314453125;0.485107421875;0.58740234375;0.44061279296875;17.017171104941777;12.131188547590641;17.023757001725485;-0.9609375;0.16064453125;0.0859375;2.625;3.3125;-10.375;
1441975826086273;-0.4755859375;0.484619140625;0.586669921875;0.44134521484375;17.032871429886058;12.118122895039326;17.010269137015296;-0.95654296875;0.1630859375;0.0869140625;1.625;2.6875;-9.75;
1441975826109274;-0.47637939453125;0.484130859375;0.58587646484375;0.44195556640625;17.048078809030297;12.107380316457924;16.999152445998178;-0.9638671875;0.16015625;0.08544921875;0.1875;2.1875;-9.125;
1441975826130276;-0.47698974609375;0.48370361328125;0.585205078125;0.4427490234375;17.06139496337043;12.091225459320846;16.98171242456455;-0.96337890625;0.14892578125;0.07373046875;0.0;1.625;-8.25;
1441975826146277;-0.4771728515625;0.48358154296875;0.58441162109375;0.44366455078125;17.071764416102223;12.077614456552986;16.96403994063611;-0.96630859375;0.14599609375;0.08154296875;1.125;1.0;-7.375;
1441975826169278;-0.47711181640625;0.4837646484375;0.5836181640625;0.444580078125;17.079417592184228;12.06956073123272;16.950338082915124;-0.96826171875;0.14404296875;0.0810546875;3.75;0.5;-6.3125;
1441975826190279;-0.47686767578125;0.484130859375;0.5828857421875;0.4454345703125;17.084523042484772;12.065381979252571;16.939811681534778;-0.9677734375;0.14892578125;0.0830078125;5.6875;0.3125;-5.375;
1441975826206280;-0.4765625;0.4844970703125;0.582275390625;0.4461669921875;17.087874589852376;12.062188765314017;16.930807866927506;-0.97412109375;0.15625;0.0791015625;6.125;0.0;-4.3125;
1441975826229281;-0.47613525390625;0.48480224609375;0.5819091796875;0.44671630859375;17.08806085863744;12.058178725990532;16.92206012283791;-0.9794921875;0.1494140625;0.07958984375;5.375;-0.25;-3.125;
1441975826253283;-0.4757080078125;0.48516845703125;0.58172607421875;0.447021484375;17.086029255814164;12.059379612615045;16.91957353510648;-0.9755859375;0.154296875;0.0849609375;4.625;-0.375;-1.875;
1441975826266283;-0.47515869140625;0.485595703125;0.5816650390625;0.447265625;17.08180870582572;12.06139994777015;16.91790632336109;-0.966796875;0.15283203125;0.08154296875;3.75;-0.5;-0.5625;
1441975826289285;-0.474609375;0.486083984375;0.58160400390625;0.44732666015625;17.076866300039175;12.069015660359703;16.922206208173073;-0.9609375;0.154296875;0.080078125;3.4375;-0.8125;0.4375;
1441975826312286;-0.47418212890625;0.48651123046875;0.58172607421875;0.447265625;17.071358266512963;12.076790745157485;16.928044430439098;-0.96435546875;0.15771484375;0.07470703125;3.3125;-0.75;1.0625;
1441975826326287;-0.47369384765625;0.48681640625;0.58197021484375;0.4471435546875;17.064577431937803;12.081131475930285;16.93117015909462;-0.9658203125;0.15771484375;0.07275390625;1.9375;-0.6875;1.4375;
1441975826349288;-0.47308349609375;0.48724365234375;0.58221435546875;0.44696044921875;17.056324964979407;12.088870120106051;16.937178992919137;-0.958984375;0.15673828125;0.07568359375;1.1875;-1.0625;2.0625;
1441975826372290;-0.4727783203125;0.48748779296875;0.58251953125;0.44659423828125;17.04993567713605;12.097520666072286;16.946201132264804;-0.96728515625;0.17236328125;0.07958984375;1.4375;-0.75;1.8125;
1441975826387290;-0.47259521484375;0.48736572265625;0.58294677734375;0.44635009765625;17.044932441890424;12.094231616667892;16.944684861360276;-0.96875;0.17041015625;0.07080078125;-0.125;-0.75;1.5625;
1441975826409292;-0.4722900390625;0.4874267578125;0.58331298828125;0.4461669921875;17.03914019417418;12.093841077927166;16.94483048249651;-0.9619140625;0.1474609375;0.07568359375;-2.0625;-1.25;1.6875;
1441975826432293;-0.47174072265625;0.48779296875;0.5836181640625;0.4459228515625;17.030884090730957;12.100937780109103;16.950897734052713;-0.9521484375;0.13818359375;0.0869140625;-0.4375;-0.9375;2.6875;
1441975826446294;-0.47137451171875;0.48797607421875;0.584228515625;0.4453125;17.021179961128027;12.10947586320226;16.961394831866947;-0.94921875;0.15576171875;0.08544921875;1.0625;-0.25;3.4375;
1441975826469295;-0.4713134765625;0.48779296875;0.58514404296875;0.44439697265625;17.011650250643353;12.114641603842799;16.97220935375472;-0.96142578125;0.16259765625;0.076171875;-2.0625;-0.75;3.875;
1441975826492296;-0.4713134765625;0.487548828125;0.58599853515625;0.44354248046875;17.003387353951453;12.118018604578102;16.981235826693784;-0.96337890625;0.15673828125;0.0771484375;-5.4375;-0.875;4.3125;
1441975826506297;-0.47119140625;0.48748779296875;0.58673095703125;0.4427490234375;16.99474978538697;12.12462716108212;16.99209318396583;-0.96337890625;0.1513671875;0.07373046875;-5.6875;-0.625;4.375;
1441975826529299;-0.47100830078125;0.487548828125;0.5872802734375;0.442138671875;16.98721331428367;12.131595724085471;17.00172323810469;-0.96923828125;0.15966796875;0.0732421875;-4.125;-0.75;4.0625;
1441975826559300;-0.47088623046875;0.487548828125;0.5877685546875;0.441650390625;16.981155404820157;12.13566886238294;17.00827160608669;-0.96826171875;0.1572265625;0.07177734375;-2.8125;-0.9375;3.8125;
1441975826566301;-0.470703125;0.487548828125;0.58819580078125;0.44122314453125;16.97523790536895;12.138648432805397;17.013212498933836;-0.96923828125;0.15087890625;0.0693359375;-2.3125;-1.125;3.5625;
1441975826589302;-0.4705810546875;0.48760986328125;0.588623046875;0.440673828125;16.969235349918545;12.145753607811667;17.02262965810591;-0.97021484375;0.14990234375;0.0712890625;-2.0625;-1.125;3.375;
1441975826612303;-0.47052001953125;0.487548828125;0.589111328125;0.440185546875;16.963811094092332;12.148693738551275;17.028396046113176;-0.96826171875;0.15625;0.06689453125;-2.4375;-0.875;3.3125;
1441975826626304;-0.470458984375;0.48760986328125;0.5894775390625;0.439697265625;16.95892316114386;12.155483318212214;17.037311271404;-0.97265625;0.14990234375;0.07177734375;-2.5625;-0.8125;3.3125;
1441975826649305;-0.47052001953125;0.48760986328125;0.58978271484375;0.43927001953125;16.955801028223267;12.161132188883014;17.045249377188966;-0.96875;0.158203125;0.06982421875;-2.4375;-0.5625;3.0;
1441975826672307;-0.4705810546875;0.487548828125;0.590087890625;0.4388427734375;16.952829675143256;12.16539234303187;17.051985809083472;-0.97216796875;0.1533203125;0.0703125;-2.1875;-0.25;2.5625;
1441975826686307;-0.47064208984375;0.4874267578125;0.59039306640625;0.43853759765625;16.95044374924916;12.165962407574796;17.054845209548375;-0.97021484375;0.15478515625;0.0732421875;-2.375;-0.1875;2.1875;
1441975826709309;-0.4708251953125;0.48736572265625;0.590576171875;0.43817138671875;16.94950689550341;12.171069838843215;17.062241993019885;-0.962890625;0.1513671875;0.0791015625;-2.1875;0.125;1.75;
1441975826732310;-0.4710693359375;0.48724365234375;0.59075927734375;0.437744140625;16.948995010762275;12.176412974874733;17.070412095555525;-0.9619140625;0.15380859375;0.07568359375;-2.1875;0.5;1.375;
1441975826746311;-0.47137451171875;0.487060546875;0.59100341796875;0.43731689453125;16.948705362727694;12.180247130681588;17.07758674448261;-0.962890625;0.15673828125;0.07080078125;-2.6875;0.5;1.125;
1441975826777313;-0.47174072265625;0.48687744140625;0.59112548828125;0.43695068359375;16.949960841572047;12.184570222754482;17.084899933937308;-0.96435546875;0.15185546875;0.07177734375;-3.3125;0.5625;1.0;
1441975826792314;-0.471923828125;0.48663330078125;0.59136962890625;0.4366455078125;16.949288440203084;12.18388142035784;17.08703838066708;-0.96240234375;0.1494140625;0.0673828125;-3.1875;0.4375;0.875;
1441975826813315;-0.4720458984375;0.48651123046875;0.591552734375;0.4364013671875;16.948446483411438;12.184880334099786;17.08997646379104;-0.96435546875;0.15234375;0.07958984375;-2.75;0.25;0.9375;
1441975826835316;-0.4722900390625;0.486328125;0.59173583984375;0.4361572265625;16.948741813446873;12.185420788695735;17.092969106176827;-0.9599609375;0.1552734375;0.076171875;-1.9375;0.1875;0.75;
1441975826852317;-0.47247314453125;0.486083984375;0.5919189453125;0.43597412109375;16.948930162212648;12.183031503343518;17.0928692677328;-0.95654296875;0.150390625;0.068359375;-2.375;-0.0625;0.6875;
1441975826873318;-0.47259521484375;0.4859619140625;0.592041015625;0.43572998046875;16.948507748883106;12.184631857015304;17.096246253576137;-0.95458984375;0.1416015625;0.0771484375;-2.25;-0.375;0.9375;
1441975826889319;-0.4727783203125;0.48577880859375;0.59222412109375;0.435546875;16.948535421008717;12.183580989099651;17.097297121491785;-0.97314453125;0.16015625;0.06982421875;-1.6875;-0.25;0.75;
1441975826912320;-0.47296142578125;0.48541259765625;0.59234619140625;0.435546875;16.950125405632495;12.17566057829308;17.091315931246392;-0.97216796875;0.1572265625;0.0673828125;-2.25;-0.5625;0.25;
1441975826933322;-0.472900390625;0.4853515625;0.59228515625;0.43585205078125;16.951310661870068;12.168708234074959;17.0832873622324;-0.95703125;0.138671875;0.07470703125;-2.1875;-0.9375;0.125;
1441975826957323;-0.4725341796875;0.48577880859375;0.592041015625;0.43609619140625;16.94981799151439;12.173262589687532;17.08415121817729;-0.9541015625;0.12744140625;0.0888671875;1.25;-0.5;0.875;
1441975826972324;-0.47235107421875;0.48602294921875;0.592041015625;0.43597412109375;16.947273707675993;12.17960919002184;17.089634655717717;-0.95849609375;0.1455078125;0.0771484375;3.6875;-0.1875;1.5;
1441975826993325;-0.47247314453125;0.48577880859375;0.59246826171875;0.435546875;16.944413889927034;12.178972624683311;17.09252628011114;-0.962890625;0.16064453125;0.06787109375;0.625;-0.625;1.6875;
1441975827009326;-0.47265625;0.48553466796875;0.5926513671875;0.43536376953125;16.944602118768287;12.176587727841783;17.092430950650336;-0.96044921875;0.16064453125;0.076171875;-3.125;-0.5625;1.375;
1441975827032327;-0.47259521484375;0.48553466796875;0.59246826171875;0.4356689453125;16.946470144650462;12.172208566516053;17.086462800200955;-0.9619140625;0.150390625;0.0732421875;-2.375;-0.375;0.5625;
1441975827053328;-0.47235107421875;0.48590087890625;0.59210205078125;0.43609619140625;16.94761168263288;12.174032502514832;17.084220558010067;-0.95849609375;0.142578125;0.0791015625;1.5;-0.6875;-0.125;
1441975827069329;-0.47216796875;0.486083984375;0.59185791015625;0.4364013671875;16.948442088450648;12.173378891262349;17.08092720874344;-0.94775390625;0.14990234375;0.0712890625;3.875;-0.5625;-0.4375;
1441975827093331;-0.47210693359375;0.48602294921875;0.591796875;0.43658447265625;16.949186646932027;12.168740944166087;17.075588651785594;-0.9462890625;0.1572265625;0.072265625;2.5;-0.8125;-0.5;
1441975827114332;-0.4720458984375;0.48602294921875;0.5916748046875;0.436767578125;16.950191643631968;12.166034853044565;17.07183162302696;-0.93359375;0.14697265625;0.07177734375;0.75;-1.0625;-0.375;
1441975827129333;-0.4716796875;0.48626708984375;0.59161376953125;0.43701171875;16.947912227315715;12.164787509041078;17.067944469350326;-0.92236328125;0.140625;0.0673828125;0.8125;-1.1875;0.125;
1441975827151334;-0.47113037109375;0.48681640625;0.59149169921875;0.43719482421875;16.94358014505883;12.170690783730857;17.069806536818174;-0.91064453125;0.14599609375;0.0693359375;2.4375;-1.5625;0.875;
1441975827173335;-0.4705810546875;0.48736572265625;0.59124755859375;0.4375;16.940524452338817;12.175462106748869;17.06983574403332;-0.92041015625;0.15625;0.05810546875;3.6875;-1.9375;1.625;
1441975827189336;-0.46978759765625;0.4881591796875;0.59088134765625;0.43792724609375;16.93615541963608;12.182714650680227;17.070243400861994;-0.95556640625;0.16162109375;0.056640625;4.4375;-2.4375;1.5625;
1441975827211338;-0.4688720703125;0.48931884765625;0.59014892578125;0.4385986328125;16.93325063746355;12.196026162597224;17.073531826217202;-0.99072265625;0.1767578125;0.06005859375;6.4375;-2.3125;1.1875;
1441975827234339;-0.4678955078125;0.49053955078125;0.5892333984375;0.4395751953125;16.932056157188256;12.20631576429847;17.072022804695322;-1.00830078125;0.1884765625;0.06396484375;9.6875;-1.625;0.0625;
1441975827257340;-0.4671630859375;0.49176025390625;0.588134765625;0.4404296875;16.933628087918816;12.222398620330287;17.076844242693483;-1.00146484375;0.19580078125;0.078125;11.5625;-0.5625;-1.1875;
1441975827271341;-0.46685791015625;0.4925537109375;0.58721923828125;0.44110107421875;16.937814991358163;12.233953478257275;17.08064360989766;-0.9912109375;0.19287109375;0.07666015625;11.125;0.4375;-2.125;
1441975827294342;-0.46697998046875;0.4927978515625;0.58685302734375;0.441162109375;16.940867491583475;12.242655701792705;17.08775763817102;-0.994140625;0.1806640625;0.080078125;7.5625;1.625;-2.375;
1441975827317344;-0.467529296875;0.49261474609375;0.58685302734375;0.44073486328125;16.94415767475976;12.250706790959306;17.099149776635905;-0.9736328125;0.177734375;0.0947265625;2.125;3.0625;-2.0;
1441975827331344;-0.468505859375;0.4923095703125;0.58721923828125;0.4395751953125;16.94591897018812;12.269314206034572;17.1258413126948;-0.95166015625;0.169921875;0.09716796875;-3.125;4.25;-1.125;
1441975827354346;-0.46978759765625;0.49169921875;0.587890625;0.43798828125;16.94719029115714;12.288511152253237;17.156999680641235;-0.94677734375;0.177734375;0.08935546875;-7.625;5.5625;-0.1875;
1441975827377347;-0.47125244140625;0.49090576171875;0.58868408203125;0.43621826171875;16.948823072738456;12.307367122439839;17.189755785979624;-0.94287109375;0.18017578125;0.08203125;-11.375;6.4375;0.25;
1441975827399348;-0.4727783203125;0.4901123046875;0.58935546875;0.4345703125;16.95215978564518;12.325873956691865;17.221624861194634;-0.94580078125;0.17626953125;0.07958984375;-13.4375;6.3125;0.5625;
1441975827414349;-0.4739990234375;0.48956298828125;0.58990478515625;0.43316650390625;16.954090413787732;12.344076332745653;17.250548837021228;-0.96044921875;0.16259765625;0.0751953125;-12.75;6.0;0.9375;
1441975827429350;-0.474853515625;0.48919677734375;0.59027099609375;0.43218994140625;16.955492398146834;12.357354425281935;17.271207679685176;-0.9658203125;0.158203125;0.068359375;-10.1875;5.1875;1.5;
1441975827451351;-0.47509765625;0.4891357421875;0.5904541015625;0.43157958984375;16.953877003780377;12.367298103059827;17.284354525483103;-0.96533203125;0.15087890625;0.07177734375;-7.0625;3.875;1.625;
1441975827474353;-0.4749755859375;0.48968505859375;0.59039306640625;0.43121337890625;16.95010448876335;12.385359252748495;17.301364877744337;-0.9619140625;0.15185546875;0.08349609375;-2.8125;3.0;2.5625;
1441975827489353;-0.47454833984375;0.4903564453125;0.59039306640625;0.430908203125;16.94339155699113;12.401409958294813;17.315151428985743;-0.95703125;0.1630859375;0.07470703125;1.375;2.5;3.0;
1441975827511355;-0.47412109375;0.490966796875;0.590576171875;0.43048095703125;16.935126554778208;12.416086243055993;17.32861427315446;-0.9541015625;0.1708984375;0.08154296875;2.625;2.0;3.4375;
1441975827542356;-0.473876953125;0.4912109375;0.591064453125;0.4298095703125;16.926399523419608;12.425386851322658;17.339879689596252;-0.9619140625;0.181640625;0.080078125;1.375;1.625;3.75;
1441975827549357;-0.473876953125;0.49114990234375;0.59161376953125;0.4290771484375;16.91987837183009;12.430747358531534;17.349144975876275;-0.96826171875;0.18408203125;0.08154296875;-1.5625;1.4375;3.6875;
1441975827571358;-0.473876953125;0.49114990234375;0.59210205078125;0.428466796875;16.914072495020687;12.435841545523232;17.35741797263033;-0.96728515625;0.17529296875;0.07958984375;-3.5;1.25;3.5;
1441975827594359;-0.47381591796875;0.4912109375;0.5924072265625;0.42791748046875;16.909049155837067;12.442600851696723;17.366331166469948;-0.96728515625;0.1689453125;0.08154296875;-2.9375;1.375;3.375;
1441975827609360;-0.473876953125;0.4913330078125;0.5927734375;0.4273681640625;16.904356076825305;12.450893814382002;17.377076589765426;-0.96240234375;0.17041015625;0.07861328125;-1.875;1.4375;3.125;
1441975827631362;-0.473876953125;0.4912109375;0.59320068359375;0.42681884765625;16.899599148660933;12.45296386444914;17.382352178328574;-0.962890625;0.17236328125;0.07177734375;-2.1875;1.1875;2.9375;
1441975827654363;-0.4739990234375;0.49114990234375;0.593505859375;0.4263916015625;16.896899400781997;12.456603173760929;17.388632286010214;-0.9638671875;0.173828125;0.0751953125;-2.9375;0.875;2.625;
1441975827669364;-0.47406005859375;0.49102783203125;0.59375;0.426025390625;16.89459468578668;12.458124617865584;17.392470787181942;-0.96435546875;0.16650390625;0.0673828125;-2.8125;0.5625;2.3125;
1441975827691365;-0.47418212890625;0.49102783203125;0.59393310546875;0.42578125;16.8932779511299;12.46123803022649;17.39714739529226;-0.96142578125;0.1650390625;0.0693359375;-2.125;0.5;2.1875;
1441975827714366;-0.47412109375;0.4910888671875;0.59405517578125;0.425537109375;16.89074557991278;12.464654973071443;17.401291732585523;-0.9658203125;0.15966796875;0.06396484375;-1.5;0.1875;2.0;
1441975827735367;-0.47406005859375;0.49114990234375;0.5941162109375;0.4254150390625;16.88914195949969;12.46669822776225;17.403523538235895;-0.96240234375;0.1669921875;0.06494140625;-0.5625;0.0625;1.875;
1441975827751368;-0.47406005859375;0.4910888671875;0.59423828125;0.4254150390625;16.88855596826041;12.464095964137007;17.401433398838726;-0.9609375;0.16845703125;0.068359375;-0.1875;0.0625;1.5;
1441975827774370;-0.47406005859375;0.49114990234375;0.59417724609375;0.42529296875;16.888211161521554;12.468054930696752;17.405419160033276;-0.9619140625;0.16357421875;0.0693359375;-0.25;-0.0625;1.1875;
1441975827795371;-0.47406005859375;0.49114990234375;0.59417724609375;0.42535400390625;16.888478923948153;12.467029737016773;17.404205395733108;-0.962890625;0.16552734375;0.05859375;-0.125;-0.125;1.0625;
1441975827811372;-0.47412109375;0.49114990234375;0.59417724609375;0.42535400390625;16.888946961888596;12.467562430698447;17.40489986540017;-0.9619140625;0.1640625;0.0615234375;0.125;-0.0625;0.875;
1441975827834373;-0.47412109375;0.49114990234375;0.5941162109375;0.42535400390625;16.889342277506582;12.468257380327998;17.405433039044333;-0.95751953125;0.1650390625;0.0634765625;0.1875;0.1875;0.8125;
1441975827855374;-0.47412109375;0.49114990234375;0.5941162109375;0.42535400390625;16.889342277506582;12.468257380327998;17.405433039044333;-0.9638671875;0.16748046875;0.0654296875;0.1875;0.1875;0.625;
1441975827871375;-0.47418212890625;0.49114990234375;0.5941162109375;0.42535400390625;16.889810192454057;12.468791034441546;17.406128469143265;-0.96435546875;0.17041015625;0.0625;0.375;0.5;0.125;
1441975827900377;-0.47418212890625;0.49114990234375;0.5941162109375;0.42535400390625;16.889810192454057;12.468791034441546;17.406128469143265;-0.95654296875;0.17041015625;0.0654296875;0.1875;0.6875;-0.4375;
1441975827923378;-0.47442626953125;0.49114990234375;0.59375;0.425537109375;16.894856584918394;12.472034302243602;17.408482521446647;-0.95849609375;0.1689453125;0.05712890625;0.5;0.75;-0.875;
1441975827931379;-0.4747314453125;0.4910888671875;0.593505859375;0.4256591796875;16.899517185480786;12.474249651156848;17.410671133874715;-0.9736328125;0.1669921875;0.060546875;0.9375;0.8125;-1.5;
1441975827954380;-0.4749755859375;0.49078369140625;0.5933837890625;0.42584228515625;16.90401303576176;12.468575200008065;17.40569729730239;-0.974609375;0.17822265625;0.06103515625;-0.0625;0.8125;-2.0625;
1441975827983382;-0.475341796875;0.49066162109375;0.593017578125;0.42608642578125;16.910674892823096;12.469427819824283;17.406172856958342;-0.966796875;0.17236328125;0.0732421875;-0.75;0.5625;-2.375;
1441975827991382;-0.4754638671875;0.49066162109375;0.5926513671875;0.42645263671875;16.915589825173296;12.468469999651946;17.403436921180873;-0.966796875;0.1650390625;0.064453125;0.5;0.875;-2.4375;
1441975828014383;-0.47564697265625;0.49078369140625;0.59222412109375;0.42669677734375;16.920420847434162;12.473369379853061;17.40655832049969;-0.955078125;0.1640625;0.0732421875;1.5625;1.125;-2.125;
1441975828035385;-0.47589111328125;0.4908447265625;0.59197998046875;0.4267578125;16.92393159654876;12.478639627352509;17.411451779847646;-0.96044921875;0.16796875;0.06494140625;1.875;1.3125;-1.8125;
1441975828051386;-0.47607421875;0.49072265625;0.59185791015625;0.42681884765625;16.926805831097866;12.478186993229988;17.411349402049126;-0.9609375;0.17431640625;0.0556640625;0.625;1.0625;-1.5625;
1441975828074387;-0.4761962890625;0.49066162109375;0.59173583984375;0.42694091796875;16.92927413746445;12.477361951981585;17.410335973668687;-0.95849609375;0.169921875;0.068359375;-0.5;0.6875;-1.4375;
1441975828097388;-0.47625732421875;0.49066162109375;0.591552734375;0.42706298828125;16.93146470433728;12.477951766420453;17.41022529026688;-0.95849609375;0.17333984375;0.06787109375;0.1875;0.6875;-1.5;
1441975828111389;-0.47637939453125;0.49072265625;0.59130859375;0.42730712890625;16.93484546417401;12.478945731294179;17.409953755133433;-0.958984375;0.17822265625;0.06689453125;0.75;0.4375;-1.75;
1441975828134390;-0.47650146484375;0.49066162109375;0.59112548828125;0.427490234375;16.937977726565393;12.477763233628078;17.40823272489417;-0.96240234375;0.17724609375;0.06396484375;1.0625;0.375;-2.125;
1441975828157392;-0.4766845703125;0.490478515625;0.5909423828125;0.427734375;16.94225788467042;12.47351853215761;17.40379973464592;-0.962890625;0.177734375;0.06494140625;0.5625;0.375;-2.4375;
1441975828171392;-0.47686767578125;0.4903564453125;0.5908203125;0.42779541015625;16.94513219079526;12.473043639541604;17.403675057119866;-0.96435546875;0.171875;0.0673828125;-0.0625;0.3125;-2.4375;
1441975828185393;-0.47711181640625;0.4901123046875;0.59075927734375;0.42791748046875;16.948755889082577;12.468761572268061;17.40025530151127;-0.9619140625;0.1767578125;0.06494140625;-0.3125;0.5625;-2.3125;
1441975828207394;-0.47735595703125;0.489990234375;0.5906982421875;0.4278564453125;16.95116667443979;12.470296733342192;17.40284103234697;-0.955078125;0.169921875;0.06494140625;-0.8125;0.3125;-2.0;
1441975828230396;-0.47760009765625;0.48968505859375;0.59075927734375;0.42779541015625;16.95340352445256;12.466527048795944;17.401010619023754;-0.96630859375;0.17578125;0.05859375;-1.125;0.4375;-1.875;
1441975828245397;-0.4779052734375;0.4893798828125;0.59088134765625;0.427734375;16.95570791356055;12.462583554249008;17.399329840212854;-0.96728515625;0.17626953125;0.06689453125;-2.125;0.4375;-1.625;
1441975828267398;-0.47821044921875;0.489013671875;0.5909423828125;0.42767333984375;16.958615994783816;12.458069389352092;17.397104996019568;-0.96728515625;0.16845703125;0.06982421875;-2.3125;0.4375;-1.4375;
1441975828290399;-0.47833251953125;0.48876953125;0.59100341796875;0.427734375;16.96023846163402;12.45220341788896;17.392289415856496;-0.97021484375;0.16064453125;0.068359375;-2.0625;0.3125;-1.1875;
1441975828305400;-0.47833251953125;0.48883056640625;0.59100341796875;0.42767333984375;16.959768894534594;12.45460193934176;17.394687937309296;-0.9716796875;0.16259765625;0.0693359375;-1.125;0.1875;-0.6875;
1441975828336402;-0.4783935546875;0.48858642578125;0.59124755859375;0.42755126953125;16.95893420935942;12.449286432955729;17.391311603162773;-0.96875;0.1728515625;0.06640625;-1.0;-0.0625;-0.4375;
1441975828350403;-0.47845458984375;0.48822021484375;0.591552734375;0.427490234375;16.958368407160837;12.439559488707141;17.383873957609254;-0.962890625;0.171875;0.0673828125;-2.0625;-0.4375;-0.3125;
1441975828373404;-0.478515625;0.48785400390625;0.591796875;0.42742919921875;16.95819395592755;12.43056337737427;17.377005762404835;-0.96728515625;0.17529296875;0.07275390625;-2.4375;-0.8125;-0.5625;
1441975828396405;-0.47857666015625;0.4874267578125;0.59210205078125;0.42742919921875;16.95807124108403;12.418444670872;17.367176426535565;-0.96484375;0.17138671875;0.06884765625;-2.0;-0.9375;-0.9375;
1441975828410406;-0.4786376953125;0.4869384765625;0.59246826171875;0.427490234375;16.95798766242227;12.403204072087295;17.354386425637305;-0.95751953125;0.1669921875;0.07470703125;-2.5625;-1.0625;-1.0625;
1441975828427407;-0.478759765625;0.48663330078125;0.5926513671875;0.427490234375;16.958713302160717;12.395659582318883;17.348592261713115;-0.9619140625;0.1650390625;0.07421875;-2.5625;-1.375;-1.0;
1441975828447408;-0.4788818359375;0.486083984375;0.59307861328125;0.42730712890625;16.957840806686406;12.38341452303381;17.340064544639905;-0.9775390625;0.17431640625;0.06103515625;-1.8125;-1.4375;-1.125;
1441975828471410;-0.47918701171875;0.4852294921875;0.59368896484375;0.4271240234375;16.958131616574256;12.364165308497844;17.32644403709584;-0.9697265625;0.18359375;0.0703125;-4.125;-1.5;-1.5;
1441975828485410;-0.47943115234375;0.484619140625;0.593994140625;0.4271240234375;16.959928073008857;12.349713893965141;17.31533190005303;-0.96533203125;0.16748046875;0.076171875;-5.625;-1.6875;-1.5625;
1441975828507412;-0.4794921875;0.48431396484375;0.59429931640625;0.427001953125;16.958829633827808;12.342470742578604;17.310377976167153;-0.95068359375;0.15380859375;0.07763671875;-3.625;-0.8125;-1.0625;
1441975828530413;-0.479736328125;0.4840087890625;0.59478759765625;0.4263916015625;16.955941603410622;12.343738162217887;17.316413271046425;-0.943359375;0.169921875;0.07958984375;-2.1875;-0.3125;-0.6875;
1441975828545414;-0.48040771484375;0.48333740234375;0.59552001953125;0.42523193359375;16.953649939082037;12.348142642899957;17.330193953219066;-0.94482421875;0.185546875;0.06640625;-4.8125;0.3125;0.0;
1441975828567415;-0.48126220703125;0.4822998046875;0.59649658203125;0.42413330078125;16.95256602680487;12.342407636200065;17.335905877589248;-0.94140625;0.18603515625;0.05517578125;-9.375;0.75;0.25;
1441975828590416;-0.4820556640625;0.48138427734375;0.59722900390625;0.4232177734375;16.95299919154523;12.338169597914973;17.341365220410463;-0.96533203125;0.173828125;0.0634765625;-11.625;0.3125;0.0;
1441975828605417;-0.482666015625;0.4805908203125;0.597900390625;0.4224853515625;16.952784021040525;12.332295545222168;17.343598933160976;-0.97900390625;0.1689453125;0.0546875;-10.0625;-0.25;0.0;
1441975828627419;-0.48321533203125;0.47979736328125;0.59857177734375;0.42181396484375;16.952346088355704;12.324778510481318;17.34383986180332;-0.97607421875;0.1728515625;0.0576171875;-8.3125;-0.4375;-0.125;
1441975828650420;-0.48370361328125;0.4788818359375;0.59930419921875;0.4212646484375;16.951907924511506;12.311210456879076;17.33802977298328;-0.978515625;0.17529296875;0.0625;-7.8125;-0.875;-0.4375;
1441975828665421;-0.4840087890625;0.47802734375;0.5999755859375;0.42083740234375;16.95074187819915;12.295843858055568;17.329213606956557;-0.97509765625;0.16015625;0.0673828125;-7.875;-1.375;-0.125;
1441975828687422;-0.484375;0.47735595703125;0.6007080078125;0.4202880859375;16.948575022541988;12.286504145559533;17.32655019227124;-0.97021484375;0.1611328125;0.083984375;-6.625;-1.0;0.125;
1441975828710423;-0.48486328125;0.4764404296875;0.60150146484375;0.4195556640625;16.946966654874984;12.27566267982664;17.324199318265908;-0.96484375;0.1650390625;0.080078125;-6.5625;-0.5;0.5;
1441975828725424;-0.485595703125;0.4752197265625;0.60247802734375;0.41864013671875;16.946242550916914;12.261685466638816;17.32135210848996;-0.9697265625;0.166015625;0.07470703125;-8.6875;-0.5625;0.5;
1441975828747425;-0.4864501953125;0.473876953125;0.60357666015625;0.41778564453125;16.946264218367652;12.24366776010898;17.315286176392593;-0.9716796875;0.15673828125;0.0771484375;-11.3125;-0.6875;0.4375;
1441975828777427;-0.48724365234375;0.4725341796875;0.60455322265625;0.41693115234375;16.946611333653202;12.226464682672411;17.30956233872428;-0.9658203125;0.15380859375;0.08349609375;-11.875;-0.5;0.1875;
1441975828787428;-0.4879150390625;0.47125244140625;0.60546875;0.41619873046875;16.946689032582636;12.20798614401804;17.301515372046566;-0.95947265625;0.14892578125;0.08056640625;-11.4375;-0.625;0.125;
1441975828807429;-0.4886474609375;0.47027587890625;0.606201171875;0.4154052734375;16.947332462986612;12.199650611690169;17.302527288369845;-0.95263671875;0.150390625;0.08642578125;-10.375;-0.5;0.0;
1441975828838431;-0.48944091796875;0.4691162109375;0.60693359375;0.4146728515625;16.94923161043191;12.186712038351297;17.29947833233188;-0.955078125;0.16259765625;0.07568359375;-9.5625;-0.25;-0.4375;
1441975828845431;-0.4903564453125;0.4677734375;0.6075439453125;0.4141845703125;16.954381977965593;12.16748001162195;17.28994231661807;-0.9609375;0.16162109375;0.07373046875;-9.8125;-0.25;-1.375;
1441975828867432;-0.49127197265625;0.4664306640625;0.60809326171875;0.413818359375;16.960383850092747;12.146451012361165;17.27806586464573;-0.96240234375;0.14599609375;0.07373046875;-10.1875;-0.8125;-2.1875;
1441975828890434;-0.49212646484375;0.4652099609375;0.6085205078125;0.41357421875;16.96681077576517;12.126409727282194;17.26593523875474;-0.9609375;0.1416015625;0.07763671875;-9.1875;-0.75;-2.5;
1441975828906434;-0.492919921875;0.46405029296875;0.60894775390625;0.413330078125;16.972551043813553;12.107056011262541;17.25414231556551;-0.96240234375;0.1396484375;0.0859375;-8.0;-0.375;-3.0;
1441975828936436;-0.4937744140625;0.462890625;0.6092529296875;0.41314697265625;16.97980745093976;12.088076168620702;17.242373587782794;-0.9541015625;0.1474609375;0.080078125;-7.6875;-0.5;-3.25;
1441975828950437;-0.49481201171875;0.4617919921875;0.6094970703125;0.41278076171875;16.988091080286384;12.075881471188627;17.238086742564132;-0.96728515625;0.150390625;0.083984375;-7.3125;-0.125;-3.9375;
1441975828965438;-0.49609375;0.460205078125;0.60980224609375;0.4124755859375;16.999435514070164;12.052396445505131;17.224641445371095;-0.97802734375;0.162109375;0.07177734375;-8.3125;0.625;-4.9375;
1441975828987439;-0.49737548828125;0.45855712890625;0.610107421875;0.412353515625;17.011543335959654;12.023376203516719;17.205269642112984;-0.9716796875;0.15380859375;0.0859375;-10.3125;0.6875;-6.125;
1441975829010440;-0.49871826171875;0.45709228515625;0.610107421875;0.412353515625;17.02614021919624;11.999152513463942;17.18910321298306;-0.97265625;0.14453125;0.09912109375;-9.75;1.0625;-6.9375;
1441975829025441;-0.50006103515625;0.45562744140625;0.6102294921875;0.41217041015625;17.039219212130636;11.976912935103986;17.17581135059381;-0.96435546875;0.134765625;0.0966796875;-8.0625;2.1875;-7.125;
1441975829047443;-0.50164794921875;0.45391845703125;0.61065673828125;0.41156005859375;17.051282514237464;11.956066144526664;17.167436122715916;-0.95703125;0.14111328125;0.0966796875;-9.1875;2.375;-7.0625;
1441975829070444;-0.5035400390625;0.4517822265625;0.611328125;0.41064453125;17.06412745196048;11.930696517169402;17.158256255292844;-0.94970703125;0.15576171875;0.095703125;-12.4375;2.8125;-7.25;
1441975829085445;-0.50579833984375;0.44921875;0.6119384765625;0.40966796875;17.08117590845462;11.898802357325662;17.1448776061439;-0.9404296875;0.15966796875;0.09912109375;-16.5;3.375;-8.125;
1441975829107446;-0.50823974609375;0.4466552734375;0.61248779296875;0.40863037109375;17.09989863531509;11.869439493373264;17.13452534574901;-0.9453125;0.1513671875;0.10498046875;-18.625;4.125;-9.9375;
1441975829129447;-0.5108642578125;0.44415283203125;0.61285400390625;0.4075927734375;17.121228883711236;11.844109759756087;17.128003360922385;-0.916015625;0.15771484375;0.0986328125;-19.0625;4.9375;-11.25;
1441975829153449;-0.5137939453125;0.44146728515625;0.61309814453125;0.4063720703125;17.145749941645267;11.821033424122493;17.125364366099134;-0.90283203125;0.1689453125;0.09130859375;-19.0625;6.125;-13.125;
1441975829167449;-0.51739501953125;0.43829345703125;0.6134033203125;0.40484619140625;17.17547591927719;11.795800211699163;17.124925617377492;-0.90380859375;0.18310546875;0.08544921875;-20.875;7.1875;-15.625;
1441975829190451;-0.521484375;0.434326171875;0.6138916015625;0.403076171875;17.208921174116874;11.754758722900483;17.113676784397736;-0.896484375;0.19140625;0.07080078125;-25.5625;7.8125;-18.0625;
1441975829213452;-0.5260009765625;0.43011474609375;0.614013671875;0.40155029296875;17.249665874216475;11.704617444052996;17.093462460681145;-0.90673828125;0.1865234375;0.06494140625;-30.1875;7.6875;-20.6875;
1441975829227453;-0.53070068359375;0.4256591796875;0.6138916015625;0.40032958984375;17.29490313368677;11.637504905232362;17.055915470829717;-0.93505859375;0.18115234375;0.04541015625;-30.8125;7.625;-23.9375;
1441975829250454;-0.53533935546875;0.4208984375;0.61383056640625;0.3992919921875;17.33996505205934;11.54535589610336;16.99371886353559;-0.9619140625;0.17626953125;0.02734375;-30.75;6.375;-26.375;
1441975829273455;-0.53985595703125;0.4161376953125;0.61358642578125;0.3985595703125;17.385520339942044;11.432192502538612;16.908767084170794;-0.96875;0.1640625;0.02001953125;-30.875;4.625;-27.875;
1441975829287456;-0.54376220703125;0.41162109375;0.61322021484375;0.3985595703125;17.42708849954079;11.282590354053069;16.782414737177202;-0.9560546875;0.140625;0.00146484375;-29.6875;2.5625;-27.9375;
1441975829309458;-0.546875;0.40802001953125;0.612548828125;0.3990478515625;17.462717222241853;11.131048220706084;16.64689406300923;-0.947265625;0.1142578125;0.00341796875;-24.6875;0.3125;-27.3125;
1441975829333459;-0.5489501953125;0.4056396484375;0.611572265625;0.400146484375;17.49047366193974;10.98932700802044;16.511984367483148;-0.95849609375;0.091796875;-0.01123046875;-17.0625;-1.75;-24.0625;
1441975829347460;-0.5496826171875;0.40484619140625;0.61041259765625;0.401611328125;17.507051489584242;10.892736341102443;16.412169106553645;-0.9697265625;0.07421875;-0.0146484375;-7.9375;-3.4375;-19.75;
1441975829370461;-0.54931640625;0.40545654296875;0.60968017578125;0.40264892578125;17.51019871887878;10.877448705720154;16.388851370886563;-0.9716796875;0.078125;-0.02197265625;2.4375;-5.1875;-14.125;
1441975829393462;-0.54840087890625;0.4068603515625;0.6097412109375;0.40234375;17.501451850895627;10.95767670320088;16.46344271179344;-0.97998046875;0.11474609375;-0.02880859375;7.125;-6.9375;-6.875;
1441975829407463;-0.54730224609375;0.40887451171875;0.61083984375;0.400146484375;17.48014129153299;11.137895069481058;16.64426982219864;-0.97412109375;0.1513671875;-0.048828125;5.0;-7.25;0.875;
1441975829430464;-0.546630859375;0.41180419921875;0.61181640625;0.396484375;17.45719245673584;11.406518864468842;16.91603793450781;-0.9599609375;0.21142578125;-0.03466796875;-1.125;-4.5;8.3125;
1441975829453466;-0.54681396484375;0.41455078125;0.61322021484375;0.3912353515625;17.42947196261026;11.706552370936434;17.228080057588333;-0.93212890625;0.220703125;-0.03564453125;-3.125;3.25;15.0;
1441975829467467;-0.5462646484375;0.417724609375;0.61553955078125;0.3848876953125;17.378480767313842;11.999967391724333;17.536169005996662;-0.91357421875;0.1787109375;-0.08837890625;-11.75;4.875;22.3125;
1441975829489468;-0.54510498046875;0.42236328125;0.618408203125;0.3768310546875;17.300329567476957;12.31654254395087;17.868101801717387;-0.85693359375;0.1826171875;-0.08447265625;-14.1875;3.8125;31.5;
1441975829513469;-0.544189453125;0.42767333984375;0.6217041015625;0.3665771484375;17.199592346433512;12.625447515526774;0.1990313945939436;-0.80419921875;0.22802734375;-0.08740234375;-14.625;7.4375;42.25;
1441975829527470;-0.5435791015625;0.43182373046875;0.62615966796875;0.3548583984375;17.084306441057194;12.845311969698006;0.4531181429142293;-0.75927734375;0.25439453125;-0.12890625;-21.1875;11.25;51.9375;
1441975829550471;-0.542236328125;0.43585205078125;0.6314697265625;0.34234619140625;16.95120111703787;12.99423851885119;0.639695149040114;-0.701171875;0.19482421875;-0.14697265625;-33.3125;9.625;59.5625;
1441975829573473;-0.53985595703125;0.44097900390625;0.63690185546875;0.32916259765625;16.79805510222555;13.112416226105722;0.7920996446650407;-0.59912109375;0.14404296875;-0.1103515625;-36.6875;9.0;69.3125;
1441975829587473;-0.53643798828125;0.4476318359375;0.642333984375;0.3150634765625;16.621858653220198;13.214296338534009;0.9239073585358517;-0.501953125;0.12109375;-0.078125;-32.4375;10.875;79.375;
1441975829610475;-0.5325927734375;0.455810546875;0.64691162109375;0.300048828125;16.429483153307356;13.318833296390707;1.0535449276200552;-0.44970703125;0.1806640625;-0.07568359375;-28.1875;13.0625;86.0;
1441975829633476;-0.5294189453125;0.46429443359375;0.650146484375;0.2852783203125;16.243491156185957;13.421950742377788;1.1784970240712598;-0.47314453125;0.302734375;-0.111328125;-23.3125;16.875;87.125;
1441975829647477;-0.5272216796875;0.47137451171875;0.652587890625;0.2718505859375;16.08162575098655;13.503338726598873;1.2824369294826696;-0.56787109375;0.3916015625;-0.17138671875;-20.3125;19.6875;80.625;
1441975829670478;-0.52532958984375;0.4769287109375;0.65472412109375;0.260498046875;15.945746841454069;13.556413826515879;1.3562484522637483;-0.66845703125;0.404296875;-0.2021484375;-21.75;18.0625;69.75;
1441975829693479;-0.52349853515625;0.4815673828125;0.65643310546875;0.251220703125;15.832083691151992;13.592626376846457;1.4084211760733973;-0.68701171875;0.38134765625;-0.18701171875;-20.875;13.6875;59.625;
1441975829707480;-0.5218505859375;0.48583984375;0.65740966796875;0.2437744140625;15.737264917766101;13.6248010587361;1.4502723165005795;-0.6396484375;0.33984375;-0.15478515625;-16.0625;10.6875;50.75;
1441975829730482;-0.52069091796875;0.48931884765625;0.65777587890625;0.23809814453125;15.664823558559522;13.65325208589296;1.484726733407853;-0.60595703125;0.3173828125;-0.1357421875;-9.875;9.5625;42.5;
1441975829753483;-0.5203857421875;0.49151611328125;0.65765380859375;0.2344970703125;15.621838063241418;13.676970800024781;1.512462368292085;-0.603515625;0.29345703125;-0.11767578125;-6.0625;8.5;33.5;
1441975829767484;-0.5203857421875;0.49273681640625;0.65765380859375;0.232177734375;15.596079848505012;13.691256374675161;1.530622090158366;-0.67041015625;0.2353515625;-0.115234375;-4.25;6.125;24.3125;
1441975829790485;-0.520263671875;0.4931640625;0.65802001953125;0.2303466796875;15.577546407470965;13.694505598819186;1.539355760348;-0.70068359375;0.19580078125;-0.0888671875;-4.5;3.75;19.875;
1441975829813486;-0.5205078125;0.49310302734375;0.65826416015625;0.2291259765625;15.568972973090348;13.696892406115357;1.5473284443094384;-0.67236328125;0.1748046875;-0.03955078125;-5.75;2.9375;16.9375;
1441975829827487;-0.520751953125;0.4935302734375;0.6580810546875;0.228271484375;15.561232991038331;13.705391322689803;1.5574696031526551;-0.66552734375;0.1455078125;0.00927734375;-4.375;5.4375;13.875;
1441975829850488;-0.521240234375;0.49517822265625;0.65643310546875;0.22845458984375;15.55856804065565;13.734509740838394;1.5776048365941042;-0.67626953125;0.1669921875;0.06201171875;1.5625;9.8125;12.4375;
1441975829873490;-0.52191162109375;0.498046875;0.65289306640625;0.23065185546875;15.569063018365544;13.785630083784762;1.6046122428075729;-0.71923828125;0.19091796875;0.06982421875;13.125;14.5;9.125;
1441975829887491;-0.52313232421875;0.50152587890625;0.6480712890625;0.23406982421875;15.590303888825737;13.854627126700361;1.6414649503436358;-0.8447265625;0.24560546875;0.0546875;28.6875;16.4375;2.25;
1441975829909492;-0.52496337890625;0.50396728515625;0.64306640625;0.23846435546875;15.628499120831226;13.923016833377309;1.6789013908040706;-1.01904296875;0.3330078125;0.05712890625;38.375;20.875;-4.625;
1441975829933493;-0.52691650390625;0.5047607421875;0.6392822265625;0.24261474609375;15.672963200754895;13.972628112713378;1.7071908409827632;-1.12890625;0.2890625;0.04638671875;36.75;20.4375;-7.6875;
1441975829947494;-0.5286865234375;0.50555419921875;0.635498046875;0.24700927734375;15.718226357945177;14.021652752526785;1.7336700221417731;-1.1513671875;0.24609375;0.09716796875;27.5625;18.8125;-8.0625;
1441975829969495;-0.5301513671875;0.5072021484375;0.63104248046875;0.25189208984375;15.761355394918098;14.08054541253951;1.7632054690129886;-1.17431640625;0.220703125;0.12548828125;29.3125;20.3125;-6.8125;
1441975829992497;-0.5311279296875;0.50909423828125;0.62677001953125;0.25653076171875;15.79808547275045;14.13662610985508;1.7892795894916134;-1.25048828125;0.2236328125;0.1181640625;35.5625;21.375;-4.9375;
1441975830007497;-0.53076171875;0.51104736328125;0.62371826171875;0.26080322265625;15.823789813767661;14.169365332323043;1.7928157141734162;-1.29248046875;0.212890625;0.08935546875;35.5;19.0;-0.5;
1441975830030499;-0.5294189453125;0.51422119140625;0.62078857421875;0.26446533203125;15.83221740018983;14.200176857555393;1.7903903823191005;-1.21826171875;0.17236328125;0.12158203125;33.9375;13.625;7.0625;
1441975830052500;-0.5279541015625;0.51776123046875;0.61773681640625;0.2674560546875;15.832322988892894;14.234642411619138;1.7921020933396776;-1.17041015625;0.2021484375;0.10546875;36.9375;12.3125;12.4375;
1441975830067501;-0.5269775390625;0.52093505859375;0.61505126953125;0.2694091796875;15.82754502176397;14.269359161473766;1.8008311613996018;-1.181640625;0.2578125;0.0625;35.875;12.625;12.75;
1441975830090502;-0.52655029296875;0.52386474609375;0.6124267578125;0.2705078125;15.819146904813547;14.308464537780246;1.8191035635834925;-1.17822265625;0.2900390625;0.03662109375;29.75;14.0625;12.0;
1441975830112503;-0.52618408203125;0.52642822265625;0.609375;0.2730712890625;15.826129408948908;14.34849682040629;1.8337198960587797;-1.154296875;0.3173828125;-0.02685546875;23.8125;14.375;10.8125;
1441975830127504;-0.52410888671875;0.52984619140625;0.60614013671875;0.2777099609375;15.838733454248185;14.376177172242429;1.8216192315701583;-1.123046875;0.23291015625;-0.0556640625;26.8125;9.0625;7.6875;
1441975830150506;-0.522216796875;0.5350341796875;0.6002197265625;0.28411865234375;15.858403598933592;14.442642528363152;1.8304502050777742;-1.0458984375;0.2705078125;-4.8828125E-4;41.0;2.125;3.4375;
1441975830172507;-0.52093505859375;0.54022216796875;0.593017578125;0.2916259765625;15.890728170498145;14.529035791361322;1.8539689005282503;-0.9990234375;0.2958984375;-0.02587890625;60.125;6.125;-5.375;
1441975830187508;-0.51983642578125;0.54449462890625;0.58624267578125;0.29925537109375;15.929998693484825;14.609308201068716;1.875561774408358;-1.041015625;0.35693359375;-0.064453125;66.0;7.9375;-16.6875;
1441975830210509;-0.51934814453125;0.54705810546875;0.580078125;0.30731201171875;15.985585233809452;14.681819942410772;1.8967226413414782;-1.1005859375;0.37060546875;-0.03857421875;63.0;7.625;-20.3125;
1441975830232510;-0.52001953125;0.54925537109375;0.57330322265625;0.31488037109375;16.04286457529263;14.775692599932649;1.9434938559771284;-1.09912109375;0.3525390625;-9.765625E-4;55.875;6.5625;-27.0;
1441975830247511;-0.52288818359375;0.5513916015625;0.565185546875;0.32110595703125;16.094029842743684;14.915874638633728;2.0433542301172665;-1.09765625;0.3603515625;-0.01025390625;53.5625;12.875;-33.25;
1441975830269512;-0.5274658203125;0.5516357421875;0.5584716796875;0.32476806640625;16.136327552086822;15.056141851429182;2.165621944283066;-1.16650390625;0.3271484375;-0.087890625;47.625;24.8125;-36.0;
1441975830292514;-0.53289794921875;0.55035400390625;0.55322265625;0.32708740234375;16.17564673207777;15.186606178325341;2.29324481348698;-1.16552734375;0.30908203125;-0.1650390625;24.875;26.5;-36.1875;
1441975830307515;-0.5396728515625;0.55133056640625;0.54595947265625;0.3265380859375;16.16997888129467;15.367895481150514;2.4719109954033156;-1.0849609375;0.2861328125;-0.16015625;10.0625;25.875;-37.5625;
1441975830330516;-0.55084228515625;0.55206298828125;0.5360107421875;0.3231201171875;16.132690143180344;15.627459167841693;2.7432005533150825;-1.05126953125;0.35986328125;-0.27490234375;11.375;42.9375;-35.9375;
1441975830352517;-0.5611572265625;0.5528564453125;0.525390625;0.3214111328125;16.09348347784531;15.880295786865984;2.9981804223663273;-1.255859375;0.193359375;-0.45751953125;-2.375;66.1875;-33.0;
1441975830368518;-0.56793212890625;0.55755615234375;0.51434326171875;0.31927490234375;16.010947226196862;16.084413859272857;3.1830657179391992;-1.55859375;0.0361328125;-0.57763671875;3.375;60.0;-22.375;
1441975830390519;-0.574951171875;0.56561279296875;0.50164794921875;0.31268310546875;15.853587024766126;16.26851169238666;3.3477348863737335;-1.5771484375;0.087890625;-0.44091796875;24.875;71.875;-2.25;
1441975830412521;-0.57684326171875;0.57867431640625;0.49517822265625;0.2952880859375;15.592662356888987;16.263211928211284;3.3443579215926507;-1.55712890625;-0.193359375;-0.5859375;17.8125;92.125;36.0;
1441975830427521;-0.5716552734375;0.59771728515625;0.48944091796875;0.2762451171875;15.285912349882917;16.1910902326446;3.243463054505807;-1.6279296875;0.00390625;-0.806640625;-5.25;102.9375;81.8125;
1441975830450523;-0.561767578125;0.61383056640625;0.4898681640625;0.260009765625;15.041617790247614;16.060547379669234;3.088111519723006;-1.78125;0.5126953125;-1.00146484375;17.5;95.6875;125.125;
1441975830472524;-0.55255126953125;0.62567138671875;0.49530029296875;0.2406005859375;14.80425151269106;15.901877643615382;2.943781215910446;-2.4140625;0.439453125;-0.8681640625;6.0625;51.875;132.8125;
1441975830487525;-0.52899169921875;0.6513671875;0.49432373046875;0.2269287109375;14.494924117136039;15.765425804045641;2.7015272880153605;-2.3818359375;0.75341796875;-0.6650390625;-34.3125;42.5625;133.0625;
1441975830509526;-0.51092529296875;0.678466796875;0.474853515625;0.23046875;14.293851324201981;15.864047107767101;2.5962922998062767;-1.00830078125;0.65478515625;0.1787109375;71.0;30.5625;201.1875;
1441975830532527;-0.49920654296875;0.6983642578125;0.4609375;0.2247314453125;14.073092994441147;15.924619482445838;2.5373209979743856;-0.65380859375;0.92236328125;-0.1259765625;189.875;33.5625;106.0625;
1441975830563529;-0.48614501953125;0.71728515625;0.449951171875;0.21600341796875;13.836510657049267;15.952184300525182;2.460789511038131;-0.8330078125;1.04443359375;-0.06005859375;114.8125;63.75;93.375;
1441975830569530;-0.47027587890625;0.7327880859375;0.44720458984375;0.2044677734375;13.608154149713082;15.905566932286561;2.3444798941072307;-0.39501953125;0.79296875;-0.20263671875;91.0;57.1875;107.875;
1441975830592531;-0.4598388671875;0.740234375;0.45037841796875;0.19415283203125;13.456242780425931;15.83716062480266;2.262090046001868;-0.12548828125;0.91015625;0.02783203125;72.125;40.25;92.8125;
1441975830607532;-0.45587158203125;0.740478515625;0.45928955078125;0.1812744140625;13.341349695724883;15.742770346579308;2.222209748406904;-0.00244140625;1.005859375;-0.06396484375;24.25;14.125;44.875;
1441975830629533;-0.4581298828125;0.73486328125;0.46844482421875;0.17498779296875;13.334762917895576;15.671138320140594;2.22331397033823;-0.03466796875;0.93701171875;-0.21533203125;-41.0;12.0625;17.0;
1441975830652534;-0.46484375;0.7255859375;0.4764404296875;0.17431640625;13.410281437546283;15.625367170783692;2.2541213951694705;-0.1767578125;0.671875;-0.3349609375;-61.5;-7.75;-23.75;
1441975830670535;-0.47503662109375;0.71429443359375;0.482421875;0.17706298828125;13.534207766078634;15.60823883611019;2.313002328864124;-0.341796875;0.55615234375;-0.28369140625;-58.75;-11.75;-57.0;
1441975830691537;-0.48614501953125;0.7012939453125;0.49005126953125;0.17779541015625;13.654458552274757;15.57881553366214;2.378432200575068;-0.6171875;0.5419921875;-0.26318359375;-50.1875;-3.6875;-78.875;
1441975830721538;-0.49462890625;0.68902587890625;0.49853515625;0.17889404296875;13.770914341040722;15.535564215933713;2.420563347819615;-0.9677734375;0.541015625;-0.40625;-73.625;4.1875;-67.625;
1441975830727539;-0.49920654296875;0.68035888671875;0.505615234375;0.179443359375;13.850625240429856;15.490991128568103;2.4357089002563455;-1.17333984375;0.37939453125;-0.48046875;-79.5625;-5.1875;-40.625;
1441975830751540;-0.50335693359375;0.67352294921875;0.51116943359375;0.1778564453125;13.895866678379328;15.455000342749827;2.4546997858597157;-1.07080078125;0.32568359375;-0.4599609375;-62.625;-9.9375;-15.625;
1441975830772541;-0.50830078125;0.666015625;0.51629638671875;0.17730712890625;13.95601405639854;15.425985451140688;2.480283094744386;-0.98388671875;0.38671875;-0.45458984375;-55.375;-0.0625;-10.625;
1441975830787542;-0.512451171875;0.65740966796875;0.52276611328125;0.178466796875;14.039799300187433;15.384251609219204;2.4923701565182057;-1.01708984375;0.35791015625;-0.51708984375;-56.75;-4.5;-16.6875;
1441975830811543;-0.51519775390625;0.6510009765625;0.52783203125;0.17926025390625;14.101355328912724;15.349298330637433;2.4972873616514812;-1.02392578125;0.283203125;-0.3984375;-57.4375;-13.0625;-16.875;
1441975830832545;-0.51763916015625;0.64532470703125;0.5316162109375;0.181396484375;14.167971377015961;15.325467297517179;2.5019663837118493;-0.92138671875;0.31494140625;-0.33251953125;-42.3125;-9.75;-11.375;
1441975830847546;-0.52044677734375;0.63818359375;0.53662109375;0.18402099609375;14.251082484189125;15.291835850475287;2.5042000678392378;-0.93505859375;0.35107421875;-0.33349609375;-29.9375;-11.625;-15.0;
1441975830869547;-0.522705078125;0.63226318359375;0.54107666015625;0.1849365234375;14.308714041009615;15.25898784318943;2.5058321456947743;-0.9404296875;0.24609375;-0.27099609375;-38.9375;-14.8125;-15.5625;
1441975830892548;-0.52508544921875;0.6268310546875;0.54473876953125;0.18597412109375;14.363448809718284;15.233670976494674;2.511074506052131;-0.85546875;0.2392578125;-0.25439453125;-36.9375;-9.5;-7.9375;
1441975830915549;-0.52685546875;0.6204833984375;0.54974365234375;0.1876220703125;14.430225924283137;15.193272931970297;2.5040490290473634;-0.85595703125;0.265625;-0.26318359375;-32.4375;-7.6875;-10.0625;
1441975830930550;-0.52728271484375;0.61407470703125;0.5557861328125;0.1895751953125;14.498271717849644;15.136721981355391;2.4791367494702348;-0.9541015625;0.2900390625;-0.21728515625;-35.375;-12.75;-9.3125;
1441975830952552;-0.52783203125;0.60675048828125;0.56292724609375;0.19061279296875;14.564866444465194;15.067338146928481;2.4505952985820265;-0.93408203125;0.265625;-0.1494140625;-35.75;-19.0;-4.375;
1441975830968552;-0.5294189453125;0.59686279296875;0.57171630859375;0.19110107421875;14.64654841922311;14.98180451981142;2.4230828788031564;-0.85888671875;0.259765625;-0.14208984375;-45.5;-21.6875;-5.5;
1441975830990554;-0.5316162109375;0.58770751953125;0.57855224609375;0.19293212890625;14.734590020600598;14.916679138351066;2.4052968757063944;-0.83642578125;0.22900390625;-0.0859375;-61.1875;-22.8125;-12.875;
1441975831020555;-0.53338623046875;0.580810546875;0.5823974609375;0.19720458984375;14.82587020882945;14.88032114086207;2.3915867270245985;-0.802734375;0.181640625;-0.1279296875;-51.125;-22.6875;-17.9375;
1441975831028556;-0.534912109375;0.57611083984375;0.58355712890625;0.20330810546875;14.916408323181265;14.871848399725478;2.3847300889271628;-0.82666015625;0.193359375;-0.1533203125;-26.5;-22.875;-21.5625;
1441975831049557;-0.5367431640625;0.5723876953125;0.5828857421875;0.21099853515625;15.014273905251427;14.885181984697004;2.387195968340002;-0.81298828125;0.2294921875;-0.2255859375;-6.1875;-24.375;-26.375;
1441975831072558;-0.53851318359375;0.568603515625;0.582275390625;0.21820068359375;15.108027029925225;14.897517203238118;2.390595330370936;-0.7880859375;0.2265625;-0.298828125;5.5;-26.9375;-33.4375;
1441975831094560;-0.538330078125;0.5655517578125;0.582763671875;0.225341796875;15.191955906526763;14.888029678054925;2.3678627744579015;-0.7724609375;0.2685546875;-0.34912109375;2.875;-29.6875;-35.6875;
1441975831111561;-0.53497314453125;0.56536865234375;0.583251953125;0.23223876953125;15.246004442390596;14.862666298605301;2.3127165208558838;-0.78271484375;0.29736328125;-0.3486328125;4.8125;-38.5625;-27.625;
1441975831132562;-0.52935791015625;0.5704345703125;0.5804443359375;0.2396240234375;15.261664428461696;14.867372357745353;2.2547548009395646;-0.72998046875;0.40869140625;-0.34228515625;19.8125;-45.75;-16.6875;
1441975831155563;-0.52398681640625;0.57489013671875;0.57940673828125;0.24322509765625;15.248863001781405;14.853448249404522;2.1979259368515263;-0.6787109375;0.44775390625;-0.431640625;50.1875;-44.1875;-3.1875;
1441975831169564;-0.51800537109375;0.57769775390625;0.58062744140625;0.24639892578125;15.241300959895094;14.808510680903256;2.1211135013940208;-0.640625;0.55615234375;-0.3984375;33.1875;-35.75;1.1875;
1441975831192565;-0.51129150390625;0.57904052734375;0.583251953125;0.25115966796875;15.2537463441087;14.740071387060794;2.022076282838732;-0.6318359375;0.5654296875;-0.30126953125;22.625;-39.6875;2.3125;
1441975831215567;-0.5023193359375;0.58563232421875;0.58282470703125;0.2548828125;15.214301391739555;14.704009367658543;1.9279966001983992;-0.66650390625;0.53076171875;-0.15087890625;22.375;-44.125;0.625;
1441975831229567;-0.49188232421875;0.59576416015625;0.5806884765625;0.256591796875;15.129042977284923;14.690057617331902;1.842693619105823;-0.6787109375;0.63525390625;-0.220703125;49.375;-36.1875;16.875;
1441975831252569;-0.48101806640625;0.60418701171875;0.5814208984375;0.2559814453125;15.030465582263083;14.645481881556838;1.7460605526058308;-0.66943359375;0.7177734375;-0.349609375;60.125;-31.9375;31.6875;
1441975831275570;-0.46966552734375;0.6116943359375;0.58380126953125;0.25372314453125;14.918471971268914;14.585926693011091;1.6456341043331346;-0.630859375;0.77001953125;-0.349609375;39.375;-36.375;37.0;
1441975831290571;-0.4571533203125;0.61859130859375;0.58721923828125;0.25189208984375;14.805999254199152;14.514094615790363;1.5329776429914999;-0.5791015625;0.71435546875;-0.349609375;25.1875;-39.125;46.9375;
1441975831312572;-0.44207763671875;0.62921142578125;0.58856201171875;0.249267578125;14.652898916371939;14.46796440215708;1.4236601396048545;-0.568359375;0.70556640625;-0.26708984375;24.5625;-43.125;51.3125;
1441975831334573;-0.42578125;0.6396484375;0.5921630859375;0.24267578125;14.456044195510962;14.408896251349217;1.3171178934950025;-0.490234375;0.73876953125;-0.32666015625;43.5;-42.125;66.5;
1441975831349574;-0.41009521484375;0.64788818359375;0.5982666015625;0.23248291015625;14.237383598664847;14.337677697333191;1.225352088468201;-0.451171875;0.79296875;-0.3173828125;27.0625;-37.8125;84.4375;
1441975831372576;-0.39459228515625;0.6553955078125;0.6053466796875;0.219482421875;13.995419799779858;14.269047534696986;1.1506778606318595;-0.32861328125;0.8310546875;-0.28515625;1.4375;-31.25;88.1875;
1441975831394577;-0.38079833984375;0.6614990234375;0.6112060546875;0.20928955078125;13.793706782214997;14.21386739880193;1.0861780667776884;-0.28662109375;0.82861328125;-0.27880859375;-12.375;-23.125;97.0625;
1441975831410578;-0.36663818359375;0.667724609375;0.61676025390625;0.19818115234375;13.580351442582387;14.16604069315454;1.0295719413373539;-0.31640625;0.8701171875;-0.27587890625;-7.3125;-17.875;100.8125;
1441975831432579;-0.35235595703125;0.67327880859375;0.62310791015625;0.18499755859375;13.349238527576412;14.11675222192757;0.982410938240945;-0.3642578125;0.89892578125;-0.333984375;-7.625;-15.25;105.75;
1441975831463581;-0.33770751953125;0.6781005859375;0.63006591796875;0.17047119140625;13.105689737736652;14.065317115957555;0.940794869539382;-0.3994140625;0.89599609375;-0.30517578125;-17.375;-9.6875;114.1875;
1441975831469581;-0.32196044921875;0.6832275390625;0.63671875;0.1551513671875;12.84652970935738;14.018661617042664;0.9016448066960854;-0.4052734375;0.9091796875;-0.28466796875;-24.8125;-7.5;120.75;
1441975831492582;-0.3043212890625;0.68914794921875;0.642822265625;0.138427734375;12.5597712157321;13.97843110766351;0.863866560338631;-0.4189453125;0.8798828125;-0.31640625;-23.75;-7.5;128.8125;
1441975831523584;-0.28424072265625;0.69549560546875;0.648681640625;0.1207275390625;12.246363687326683;13.940280459371392;0.8219798741797321;-0.49267578125;0.875;-0.33349609375;-20.0;-7.5;144.375;
1441975831529585;-0.26190185546875;0.70294189453125;0.6533203125;0.102294921875;11.907937102449365;13.912572111219394;0.7783543213009585;-0.46337890625;0.88427734375;-0.3154296875;-17.125;-11.3125;158.8125;
1441975831552586;-0.2386474609375;0.7091064453125;0.658447265625;0.081298828125;11.544188658067624;13.88063454201245;0.7423963257711051;-0.40673828125;0.92578125;-0.296875;-7.75;-13.5;171.25;
1441975831583588;-0.21429443359375;0.71514892578125;0.6627197265625;0.0577392578125;11.15096835607466;13.854528289474349;0.7156452499804223;-0.39013671875;0.91943359375;-0.263671875;-17.75;-8.0625;183.75;
1441975831589588;-0.18890380859375;0.72119140625;0.66558837890625;0.03326416015625;10.742572132765051;13.836150135494908;0.6919297129473189;-0.32958984375;0.89990234375;-0.251953125;-17.375;-0.1875;197.8125;
1441975831621590;-0.16278076171875;0.72564697265625;0.66845703125;0.007568359375;10.321575104252771;13.813063468511572;0.6715875471441447;-0.2744140625;0.9140625;-0.24072265625;-12.9375;1.625;205.0625;
1441975831646591;-0.1358642578125;0.72882080078125;0.67071533203125;-0.01904296875;9.888873886165639;13.788800386526749;0.6540715339781471;-0.26953125;0.93603515625;-0.23876953125;-19.875;4.0;212.3125;
