1441975630892109;0.1259765625;-0.640869140625;-0.74505615234375;-0.13555908203125;11.118901471263301;13.04678582245322;17.875442586427624;-2.00390625;0.3388671875;-0.0166015625;-285.0625;86.8125;258.25;
1441975630915110;0.105224609375;-0.625;-0.765869140625;-0.10906982421875;10.730568008301585;12.905442656359654;17.893362121727478;-2.0302734375;-0.61328125;-0.17138671875;-248.4375;17.0625;228.75;
1441975630938111;0.07781982421875;-0.63238525390625;-0.76580810546875;-0.08746337890625;10.32848891387601;12.942719981785046;17.89538232827473;-1.734375;-1.095703125;-0.3681640625;-147.25;-18.75;194.0;
1441975630961113;0.0518798828125;-0.6478271484375;-0.7572021484375;-0.0660400390625;9.944598656524851;13.047006881286473;17.90475468390229;-1.31103515625;-0.6103515625;-0.27099609375;34.0625;-43.625;221.375;
1441975630975113;0.0308837890625;-0.66265869140625;-0.74688720703125;-0.046630859375;9.619570879689212;13.153550860345709;17.917220527484712;-0.94091796875;-0.140625;-0.087890625;101.5625;-27.9375;206.8125;
1441975631004115;0.01263427734375;-0.67529296875;-0.73681640625;-0.0308837890625;9.34586134625826;13.248063458673816;17.918346265578826;-0.75830078125;0.10888671875;-0.033203125;104.0;-12.0625;175.25;
1441975631012116;-0.00274658203125;-0.68658447265625;-0.72686767578125;-0.0177001953125;9.116383889640248;13.335893198099319;17.915455354408255;-0.71484375;0.0595703125;0.0830078125;95.8125;-14.375;148.375;
1441975631026116;-0.008544921875;-0.6943359375;-0.7196044921875;-0.00958251953125;9.005780848891995;13.3975804257223;17.926496223029915;-0.65234375;0.06494140625;0.17041015625;90.8125;-12.0;125.25;
1441975631048118;-0.0078125;-0.697998046875;-0.71612548828125;-0.003173828125;8.961278767322847;13.426706982623509;17.955735471106394;-0.63037109375;0.20703125;0.1572265625;71.875;6.5;99.5;
1441975631071119;-6.7138671875E-4;-0.69635009765625;-0.7177734375;-0.00213623046875;9.011522795984906;13.413194566598545;17.988537150527232;-0.62158203125;0.49462890625;0.08203125;34.1875;26.9375;66.375;
1441975631094120;0.013671875;-0.6898193359375;-0.723876953125;-0.00762939453125;9.173727242097012;13.362334030579065;0.02240180024316956;-0.5732421875;0.69970703125;0.0771484375;-9.3125;32.625;15.625;
1441975631109121;0.033935546875;-0.68206787109375;-0.7303466796875;-0.016845703125;9.416017839051234;13.30649174887537;0.06229203998703709;-0.49951171875;0.8505859375;0.1279296875;-45.1875;35.625;-46.5;
1441975631131122;0.0618896484375;-0.675048828125;-0.73455810546875;-0.0321044921875;9.771526256902447;13.265354001216707;0.10521756789132107;-0.46923828125;0.8681640625;0.1513671875;-56.25;46.5625;-111.5625;
1441975631154124;0.0955810546875;-0.67083740234375;-0.73370361328125;-0.051025390625;10.204608957862302;13.260223507850707;0.15638241143670067;-0.4931640625;0.8544921875;0.18359375;-43.625;55.5625;-167.9375;
1441975631170125;0.134765625;-0.669921875;-0.7265625;-0.072265625;10.70157597791032;13.301649760504192;0.22657453312289372;-0.48779296875;0.8896484375;0.2841796875;-10.0625;68.4375;-206.8125;
1441975631191126;0.17578125;-0.6661376953125;-0.7183837890625;-0.096923828125;11.24356041258596;13.342392651025666;0.2947186308507748;-0.50830078125;1.0078125;0.1650390625;25.375;86.9375;-239.375;
1441975631214127;0.21539306640625;-0.65283203125;-0.7156982421875;-0.123779296875;11.802562380258665;13.321538678770395;0.33843344932101976;-0.74951171875;1.3349609375;-0.1708984375;13.5625;79.3125;-263.625;
1441975631228128;0.2557373046875;-0.63250732421875;-0.71630859375;-0.14654541015625;12.348600773161436;13.262362418631275;0.39129588497652595;-0.80322265625;1.265625;-0.072265625;-41.875;54.4375;-274.9375;
1441975631251129;0.295654296875;-0.61199951171875;-0.71441650390625;-0.16632080078125;12.875649299110107;13.219994179759947;0.4583527634289023;-0.966796875;1.13671875;-0.10498046875;-89.3125;63.3125;-266.25;
1441975631282131;0.332763671875;-0.59503173828125;-0.706787109375;-0.18896484375;13.404566228754602;13.218732295094059;0.5164870408562559;-1.1982421875;1.068359375;-0.08349609375;-84.5;75.6875;-253.0;
1441975631288131;0.36676025390625;-0.57672119140625;-0.6983642578125;-0.21258544921875;13.923992248665078;13.21086372358559;0.5568476853856252;-1.37158203125;1.1943359375;0.0029296875;-41.0;67.5;-256.6875;
1441975631311133;0.400146484375;-0.55621337890625;-0.690185546875;-0.23272705078125;14.421682349552494;13.20045771998474;0.6115900014551545;-1.20263671875;1.18798828125;0.13037109375;-37.4375;53.8125;-257.8125;
1441975631334134;0.43255615234375;-0.53680419921875;-0.67901611328125;-0.2525634765625;14.91464484684305;13.222598746742536;0.6846048673764064;-1.19970703125;1.04443359375;0.158203125;-52.9375;60.3125;-246.8125;
1441975631350135;0.46307373046875;-0.51727294921875;-0.66607666015625;-0.2728271484375;15.4032988512834;13.26366428767042;0.7655016847346159;-1.345703125;0.912109375;0.11279296875;-38.625;64.875;-243.1875;
1441975631371136;0.4927978515625;-0.49505615234375;-0.65325927734375;-0.2921142578125;15.891811438738287;13.307533108050812;0.859206855302875;-1.32666015625;0.869140625;0.044921875;-30.3125;60.25;-243.6875;
1441975631394137;0.5216064453125;-0.47027587890625;-0.640869140625;-0.31005859375;16.37623426630414;13.360448240046452;0.9732222834745087;-1.3603515625;0.8515625;0.005859375;-42.75;55.0625;-246.0;
1441975631409138;0.548095703125;-0.446533203125;-0.62725830078125;-0.32684326171875;16.8352795524177;13.493207794326601;1.1587381633174132;-1.39990234375;0.68896484375;0.06787109375;-54.6875;51.1875;-244.6875;
1441975631431140;0.57171630859375;-0.42596435546875;-0.61138916015625;-0.34344482421875;17.2575972288071;13.868017424925643;1.5643010068905345;-1.39892578125;0.4775390625;0.111328125;-47.125;52.4375;-231.625;
1441975631454141;0.592041015625;-0.4073486328125;-0.5950927734375;-0.35986328125;17.614382808781926;14.959814170437687;2.67246673157803;-1.3779296875;0.39013671875;0.0810546875;-25.3125;55.625;-218.5;
1441975631468142;0.6075439453125;-0.3902587890625;-0.57989501953125;-0.3773193359375;17.75263325225014;0.39000232710439703;6.1020797731772936;-1.3623046875;0.3037109375;0.01806640625;-11.5625;48.9375;-204.125;
1441975631491143;0.6175537109375;-0.37567138671875;-0.56610107421875;-0.3963623046875;17.550541394723076;2.7510511429523063;8.439628563787938;-1.337890625;0.17529296875;0.03466796875;4.75;30.0;-188.1875;
1441975631514144;0.623779296875;-0.36468505859375;-0.55242919921875;-0.41558837890625;17.289350479197623;3.453235919823846;9.097285114342723;-1.2900390625;0.1201171875;0.1064453125;27.0;9.9375;-169.875;
1441975631528145;0.626708984375;-0.35809326171875;-0.5389404296875;-0.4342041015625;17.057598465717355;3.7567597570924143;9.336346740863185;-1.240234375;0.068359375;0.12841796875;47.5;5.375;-149.375;
1441975631551146;0.62640380859375;-0.35455322265625;-0.5269775390625;-0.451904296875;16.8706659876419;3.96787377182205;9.471704879237805;-1.24560546875;0.03662109375;0.078125;66.75;5.0;-124.9375;
1441975631574148;0.6221923828125;-0.35491943359375;-0.518798828125;-0.46673583984375;16.763649362016793;4.149992935444969;9.574135939687604;-1.212890625;0.04248046875;0.046875;78.0;-1.4375;-101.125;
1441975631597149;0.61602783203125;-0.35699462890625;-0.51300048828125;-0.47955322265625;16.699914607646438;4.324237197987313;9.670596177015122;-1.16650390625;0.064453125;0.03125;81.5;-8.0;-78.0;
1441975631611150;0.60870361328125;-0.3603515625;-0.50982666015625;-0.48968505859375;16.677984803689824;4.491749862550301;9.768417083587577;-1.09033203125;0.08447265625;0.0244140625;79.9375;-15.0;-56.875;
1441975631634151;0.60137939453125;-0.36419677734375;-0.5091552734375;-0.4964599609375;16.690642345837336;4.644412400431097;9.866868561755455;-1.01416015625;0.1318359375;0.03125;71.625;-19.25;-37.0625;
1441975631649152;0.59490966796875;-0.36767578125;-0.510986328125;-0.49981689453125;16.729002626785483;4.784587006688143;9.973433934455034;-0.9697265625;0.138671875;0.0048828125;56.625;-22.5625;-18.0625;
1441975631671153;0.58770751953125;-0.37139892578125;-0.51458740234375;-0.50189208984375;16.785702178260962;4.956222206967878;10.117426497122505;-0.9599609375;0.0791015625;-0.01416015625;36.4375;-24.625;0.75;
1441975631694155;0.5791015625;-0.3770751953125;-0.51885986328125;-0.50335693359375;16.86450743011099;5.16111432169557;10.28857520951163;-0.9501953125;9.765625E-4;0.017578125;30.75;-28.0;17.9375;
1441975631709155;0.5694580078125;-0.38427734375;-0.52398681640625;-0.5035400390625;16.964401594422206;5.410220089959318;10.502749126905359;-0.89501953125;-0.0087890625;0.00390625;37.5625;-29.125;33.8125;
1441975631731157;0.55877685546875;-0.39208984375;-0.53106689453125;-0.50201416015625;17.080456916798877;5.760843173938801;10.82430976323851;-0.88525390625;-0.06396484375;-0.01708984375;39.25;-29.9375;52.625;
1441975631754158;0.546630859375;-0.40106201171875;-0.5401611328125;-0.4986572265625;17.20686742497648;6.291378286246193;11.329354705986344;-0.89697265625;-0.11474609375;0.0048828125;34.125;-33.1875;72.9375;
1441975631768159;0.53369140625;-0.41070556640625;-0.55059814453125;-0.493408203125;17.315646723853334;7.068802701662424;12.086564666789195;-0.84423828125;-0.0830078125;0.02587890625;31.4375;-35.5625;91.4375;
1441975631791160;0.52093505859375;-0.42041015625;-0.56207275390625;-0.48583984375;17.373465656820006;8.104055742885862;13.111830481480723;-0.78173828125;-0.02978515625;0.01708984375;26.375;-34.375;105.4375;
1441975631814161;0.5084228515625;-0.42987060546875;-0.5743408203125;-0.47637939453125;17.34598686322481;9.236175821714715;14.243314789376223;-0.7734375;0.0283203125;0.00634765625;16.625;-31.4375;115.0625;
1441975631829162;0.49578857421875;-0.43896484375;-0.58721923828125;-0.465576171875;17.22785770876302;10.182057343110653;15.19515392386867;-0.798828125;0.0390625;0.00390625;7.5;-29.1875;122.5625;
1441975631854164;0.48260498046875;-0.44830322265625;-0.60003662109375;-0.45404052734375;17.046271898658624;10.85064844250941;15.86964655933942;-0.8232421875;0.0263671875;0.02734375;1.125;-29.0625;128.375;
1441975631874165;0.46881103515625;-0.45849609375;-0.6121826171875;-0.4420166015625;16.82868130555275;11.317632597859053;16.338062051957284;-0.8193359375;0.041015625;0.04638671875;1.5625;-27.875;133.5625;
1441975631890166;0.455078125;-0.46875;-0.62353515625;-0.42950439453125;16.59501289556962;11.645070150708166;16.66636317543125;-0.76611328125;0.07666015625;0.06201171875;6.3125;-24.4375;137.125;
1441975631911167;0.44195556640625;-0.4783935546875;-0.63427734375;-0.4166259765625;16.357687859915348;11.877651176896036;16.902883844555145;-0.72265625;0.11279296875;0.0654296875;7.25;-20.6875;136.6875;
1441975631934168;0.42938232421875;-0.48736572265625;-0.64453125;-0.4034423828125;16.120406514448035;12.049245792471547;17.081685267245714;-0.7109375;0.12744140625;0.0693359375;4.1875;-17.125;133.625;
1441975631949169;0.41748046875;-0.4954833984375;-0.65411376953125;-0.39044189453125;15.890387756690306;12.175909396012797;17.217733714203973;-0.68798828125;0.1474609375;0.083984375;1.125;-14.75;130.3125;
1441975631980171;0.40655517578125;-0.50250244140625;-0.6629638671875;-0.3778076171875;15.67382582763993;12.269584492690718;17.323840218885127;-0.6591796875;0.14990234375;0.0947265625;-1.1875;-12.8125;124.8125;
1441975631994172;0.39678955078125;-0.5087890625;-0.67095947265625;-0.365478515625;15.472911344240703;12.345341553794398;17.41429696162288;-0.6591796875;0.154296875;0.119140625;-4.3125;-10.375;116.625;
1441975632008173;0.38818359375;-0.5142822265625;-0.67816162109375;-0.35345458984375;15.287926398947516;12.407527566090199;17.493835459775905;-0.6630859375;0.1591796875;0.1416015625;-6.4375;-6.5625;108.875;
1441975632032174;0.3814697265625;-0.51788330078125;-0.68475341796875;-0.3427734375;15.132650086283942;12.445589091051362;17.554537611023544;-0.64990234375;0.17529296875;0.1630859375;-8.5625;-2.375;100.875;
1441975632054175;0.3760986328125;-0.52032470703125;-0.690673828125;-0.33294677734375;14.999039744354436;12.471765822616405;17.606264760903265;-0.6376953125;0.1884765625;0.17236328125;-12.375;0.75;91.0;
1441975632068176;0.3719482421875;-0.52203369140625;-0.69573974609375;-0.3243408203125;14.88807176957666;12.490543478585217;17.65009711332229;-0.61865234375;0.18603515625;0.1796875;-15.4375;3.5;80.625;
1441975632091177;0.3692626953125;-0.52294921875;-0.69970703125;-0.31719970703125;14.804664161169413;12.503678368328627;17.687146714472725;-0.6142578125;0.19921875;0.18798828125;-15.1875;5.25;68.375;
1441975632114179;0.367919921875;-0.52301025390625;-0.703125;-0.3111572265625;14.743409888459913;12.5103008866927;17.719029510516048;-0.62060546875;0.2158203125;0.189453125;-14.5;7.125;54.625;
1441975632128179;0.367919921875;-0.52239990234375;-0.70574951171875;-0.30609130859375;14.704397712396833;12.514318525256957;17.74878060393359;-0.60302734375;0.2294921875;0.197265625;-16.4375;9.875;42.25;
1441975632151181;0.36962890625;-0.5213623046875;-0.70709228515625;-0.302734375;14.69643894521678;12.518351855813123;17.7753938338474;-0.5869140625;0.259765625;0.2021484375;-17.1875;12.8125;29.5;
1441975632174182;0.37335205078125;-0.51922607421875;-0.7071533203125;-0.3017578125;14.727785277774094;12.515597718021647;17.79278728330703;-0.6123046875;0.3134765625;0.18798828125;-15.625;15.1875;12.25;
1441975632197183;0.37860107421875;-0.51568603515625;-0.706298828125;-0.3031005859375;14.793230829094227;12.50073649693176;17.796508393650733;-0.6806640625;0.33056640625;0.16357421875;-15.8125;15.375;-6.875;
1441975632211184;0.38525390625;-0.51129150390625;-0.7044677734375;-0.3065185546875;14.889037843258068;12.47835869316247;17.78962356160183;-0.74462890625;0.34375;0.15966796875;-16.75;13.125;-24.4375;
1441975632234185;0.393798828125;-0.5059814453125;-0.70086669921875;-0.3126220703125;15.026479620425786;12.449400820830721;17.77044441293794;-0.79541015625;0.38671875;0.15576171875;-15.875;12.1875;-42.5625;
1441975632250186;0.4036865234375;-0.49945068359375;-0.69598388671875;-0.3214111328125;15.199142780291162;12.404284935075353;17.730292011407517;-0.8701171875;0.36865234375;0.12841796875;-13.3125;12.3125;-61.9375;
1441975632280188;0.41339111328125;-0.49285888671875;-0.68988037109375;-0.33209228515625;15.385868007948492;12.348139583548708;17.669476212138893;-0.93408203125;0.28662109375;0.1328125;-9.3125;10.25;-76.625;
1441975632294189;0.42242431640625;-0.48681640625;-0.6826171875;-0.344482421875;15.578972501535555;12.281672502268508;17.586337224853978;-0.9365234375;0.22021484375;0.14013671875;-0.6875;7.5;-84.25;
1441975632309190;0.43084716796875;-0.4814453125;-0.674072265625;-0.35821533203125;15.77687154790394;12.205065815524;17.48183922027976;-0.90087890625;0.1796875;0.14111328125;10.4375;4.75;-90.5;
1441975632331191;0.43804931640625;-0.47686767578125;-0.6651611328125;-0.37200927734375;15.96247477895205;12.11799075931295;17.360304412809015;-0.8857421875;0.1630859375;0.13623046875;20.5;3.25;-96.5625;
1441975632354192;0.44476318359375;-0.47259521484375;-0.655517578125;-0.38616943359375;16.146194274772547;12.013467862634553;17.216278582040154;-0.9052734375;0.14208984375;0.15087890625;26.5625;2.25;-100.125;
1441975632368193;0.4510498046875;-0.46826171875;-0.645751953125;-0.40045166015625;16.323501086220343;11.879135338486636;17.041064037634392;-0.91552734375;0.1376953125;0.1513671875;31.75;1.9375;-101.625;
1441975632391194;0.45751953125;-0.46319580078125;-0.63580322265625;-0.4146728515625;16.49860910087434;11.699374421803572;16.823149489475256;-0.91796875;0.12841796875;0.140625;32.875;0.25;-101.4375;
1441975632414196;0.46331787109375;-0.4578857421875;-0.62646484375;-0.4281005859375;16.653130291729056;11.472861390111216;16.56177252740936;-0.9501953125;0.0986328125;0.12353515625;30.5625;-2.0;-98.75;
1441975632428197;0.46783447265625;-0.45294189453125;-0.6180419921875;-0.44049072265625;16.776413701957303;11.209265302046939;16.264594007306087;-0.97998046875;0.05224609375;0.12060546875;27.875;-5.0625;-91.875;
1441975632451198;0.47149658203125;-0.44879150390625;-0.610107421875;-0.45184326171875;16.874843638975964;10.9261179270579;15.94775586330071;-0.96337890625;0.0380859375;0.1328125;27.0;-7.25;-82.9375;
1441975632474199;0.47454833984375;-0.44561767578125;-0.6025390625;-0.4617919921875;16.95324743744461;10.645532777770514;15.634232460594344;-0.94970703125;0.03662109375;0.13134765625;27.625;-7.0;-75.25;
1441975632488200;0.47674560546875;-0.44329833984375;-0.5958251953125;-0.4703369140625;17.009333799247454;10.38160586936902;15.339109961589923;-0.95751953125;0.02880859375;0.12353515625;27.8125;-4.625;-66.125;
1441975632511201;0.478271484375;-0.44195556640625;-0.59002685546875;-0.477294921875;17.049181403995295;10.158167094594244;15.08702993822486;-0.9658203125;0.04052734375;0.12255859375;26.75;-3.6875;-56.625;
1441975632534203;0.479248046875;-0.4410400390625;-0.585693359375;-0.4825439453125;17.07327297643463;9.981632965401129;14.888244940221062;-1.00244140625;0.06396484375;0.109375;24.9375;-3.5;-46.9375;
1441975632548203;0.47991943359375;-0.4403076171875;-0.58270263671875;-0.486083984375;17.08734121160408;9.853758878637137;14.745574176129088;-1.0166015625;0.08984375;0.10498046875;18.9375;-4.1875;-37.1875;
1441975632571205;0.48040771484375;-0.44000244140625;-0.58074951171875;-0.48828125;17.096832253113384;9.774234573730741;14.6563420638292;-1.01025390625;0.10546875;0.10888671875;12.0625;-3.875;-27.8125;
1441975632594206;0.48046875;-0.44049072265625;-0.57940673828125;-0.4893798828125;17.10491552871857;9.74829810491731;14.622122619491039;-1.0;0.1083984375;0.11181640625;7.8125;-2.3125;-19.5;
1441975632608207;0.47998046875;-0.4417724609375;-0.57867431640625;-0.48956298828125;17.110618185806814;9.775077594129934;14.641156341367251;-0.990234375;0.10888671875;0.11474609375;7.0;0.0625;-11.0;
1441975632631208;0.47857666015625;-0.4439697265625;-0.57830810546875;-0.4893798828125;17.111208996873298;9.848362002772587;14.703544995438051;-0.9765625;0.1123046875;0.12109375;7.25;1.625;-3.0625;
1441975632654209;0.47637939453125;-0.44720458984375;-0.57843017578125;-0.4884033203125;17.10737532832245;9.979422326442974;14.822144622652548;-0.9580078125;0.12109375;0.125;10.5;1.8125;3.875;
1441975632670210;0.4739990234375;-0.45074462890625;-0.57916259765625;-0.48663330078125;17.098732173320006;10.141401954286863;14.974299146646512;-0.94775390625;0.15625;0.11279296875;12.875;2.125;10.4375;
1441975632691212;0.4718017578125;-0.4539794921875;-0.580810546875;-0.4837646484375;17.0833917752491;10.320736454719894;15.151037521718646;-0.93994140625;0.16796875;0.107421875;10.1875;2.375;16.0625;
1441975632714213;0.46966552734375;-0.45709228515625;-0.58282470703125;-0.48040771484375;17.062781275585944;10.502526319051302;15.333238331898198;-0.9384765625;0.16748046875;0.11328125;3.8125;3.0;21.375;
1441975632728214;0.46722412109375;-0.4603271484375;-0.58526611328125;-0.4766845703125;17.0332202972086;10.68943274574261;15.52162724672704;-0.95068359375;0.14794921875;0.11181640625;1.0;3.1875;26.125;
1441975632751215;0.4644775390625;-0.46405029296875;-0.58782958984375;-0.47271728515625;16.9967958512954;10.882823290501987;15.715264208160846;-0.9638671875;0.142578125;0.1240234375;0.5625;3.0;30.5;
1441975632773216;0.46148681640625;-0.46795654296875;-0.59039306640625;-0.4686279296875;16.95409428967595;11.06915854731279;15.90100017068772;-0.9677734375;0.14501953125;0.1142578125;2.0;2.8125;34.5625;
1441975632788217;0.4581298828125;-0.47186279296875;-0.5931396484375;-0.46441650390625;16.902716899470104;11.242285141672456;16.07340248140324;-0.9833984375;0.13232421875;0.10546875;3.1875;2.5;38.1875;
1441975632811218;0.45428466796875;-0.47613525390625;-0.59600830078125;-0.46014404296875;16.842402011420866;11.407647255143644;16.236119774231668;-0.9775390625;0.1181640625;0.11181640625;3.6875;1.625;42.0;
1441975632833220;0.45025634765625;-0.48052978515625;-0.5989990234375;-0.45562744140625;16.775680639541758;11.56219750735003;16.388228016593686;-0.97119140625;0.1201171875;0.11572265625;5.6875;1.1875;45.5625;
1441975632849221;0.44622802734375;-0.48492431640625;-0.6021728515625;-0.45074462890625;16.703679719959325;11.705526342531385;16.53072289904005;-0.96728515625;0.13037109375;0.11767578125;6.0625;1.5;48.0;
1441975632871222;0.44244384765625;-0.48883056640625;-0.60577392578125;-0.4454345703125;16.627423654071166;11.829485210924592;16.658457980023723;-0.9716796875;0.14306640625;0.11083984375;4.0625;1.4375;50.125;
1441975632893223;0.4388427734375;-0.49237060546875;-0.6094970703125;-0.44000244140625;16.54977694679999;11.935439539072132;16.770512409971037;-0.97265625;0.15087890625;0.10986328125;-0.125;1.0625;51.125;
1441975632909224;0.43524169921875;-0.49578857421875;-0.6131591796875;-0.4345703125;16.470918754696736;12.028676394221778;16.870067116979392;-0.97216796875;0.16162109375;0.115234375;-2.5;1.125;51.25;
1441975632931225;0.43194580078125;-0.49908447265625;-0.61639404296875;-0.42950439453125;16.397482559576407;12.11008741882301;16.956728757522516;-0.966796875;0.1787109375;0.12158203125;-2.5;1.875;50.0625;
1441975632953227;0.4288330078125;-0.50225830078125;-0.61920166015625;-0.4248046875;16.32879459232472;12.181729969613912;17.032219930949143;-0.97509765625;0.181640625;0.126953125;-1.5;2.625;48.0625;
1441975632968227;0.4259033203125;-0.50531005859375;-0.62176513671875;-0.42041015625;16.263700655391528;12.244951616126954;17.098569020750897;-0.97998046875;0.19140625;0.12744140625;-0.25;2.875;45.1875;
1441975632991229;0.42333984375;-0.50799560546875;-0.6240234375;-0.41632080078125;16.204929691639613;12.299024310978377;17.1561277227672;-0.966796875;0.205078125;0.11767578125;0.25;2.8125;42.125;
1441975633013230;0.42156982421875;-0.510009765625;-0.6260986328125;-0.41259765625;16.156487148761972;12.341770729888108;17.20496198166738;-0.947265625;0.21435546875;0.11572265625;-0.625;3.0625;38.4375;
1441975633028231;0.42034912109375;-0.5113525390625;-0.62799072265625;-0.40924072265625;16.11662893018527;12.373717162833744;17.244938279525442;-0.94775390625;0.208984375;0.1123046875;-3.0625;3.1875;33.6875;
1441975633051232;0.4197998046875;-0.51214599609375;-0.629638671875;-0.40643310546875;16.08741459682662;12.396697079981989;17.277113866456876;-0.9443359375;0.2138671875;0.10986328125;-5.5625;3.1875;28.8125;
1441975633073233;0.419677734375;-0.512451171875;-0.630859375;-0.40411376953125;16.067676618096616;12.413094764330172;17.302713815256613;-0.9404296875;0.20849609375;0.109375;-7.0;3.3125;23.625;
1441975633088234;0.41998291015625;-0.5125732421875;-0.631591796875;-0.402587890625;16.0584146190181;12.424790002143727;17.321560335391403;-0.9384765625;0.21435546875;0.11279296875;-7.0625;3.4375;18.25;
1441975633112236;0.4207763671875;-0.5125732421875;-0.631591796875;-0.4017333984375;16.060920933144168;12.435915944316767;17.337476310791338;-0.94140625;0.22412109375;0.11474609375;-5.5625;3.75;12.3125;
1441975633133237;0.42193603515625;-0.51214599609375;-0.63116455078125;-0.4017333984375;16.074097425273166;12.43862979157084;17.343489335293558;-0.951171875;0.2314453125;0.09814453125;-3.8125;3.5625;5.875;
1441975633148238;0.4234619140625;-0.5113525390625;-0.63031005859375;-0.40240478515625;16.09695508996847;12.435274926851115;17.342320836837903;-0.94921875;0.22314453125;0.09326171875;-3.0625;2.5625;0.25;
1441975633171239;0.42523193359375;-0.51043701171875;-0.6290283203125;-0.40374755859375;16.127805364834305;12.428108437399402;17.335142426621037;-0.93798828125;0.21484375;0.09521484375;-1.8125;2.3125;-4.9375;
1441975633193240;0.42730712890625;-0.50927734375;-0.62725830078125;-0.40576171875;16.167831953344997;12.415937744875269;17.32114293381455;-0.92822265625;0.21240234375;0.0869140625;-0.5;1.625;-10.0;
1441975633208241;0.42962646484375;-0.50787353515625;-0.62518310546875;-0.40838623046875;16.21508828188526;12.397170754669888;17.299251155051373;-0.9365234375;0.20263671875;0.07861328125;1.0625;0.75;-14.625;
1441975633231242;0.4320068359375;-0.50628662109375;-0.62274169921875;-0.4114990234375;16.267670580294595;12.372679082040586;17.26987476488331;-0.953125;0.2021484375;0.076171875;1.9375;-0.25;-19.0;
1441975633253244;0.434326171875;-0.5047607421875;-0.61993408203125;-0.41510009765625;16.323835239210716;12.344441453638552;17.23391375927122;-0.958984375;0.19775390625;0.078125;3.3125;-0.75;-22.375;
1441975633269245;0.43670654296875;-0.50323486328125;-0.61676025390625;-0.41912841796875;16.384397851692928;12.312096821432277;17.19171868701611;-0.9521484375;0.1923828125;0.078125;6.125;-0.9375;-25.5;
1441975633291246;0.43896484375;-0.50177001953125;-0.613525390625;-0.42333984375;16.444655151984193;12.275449780549264;17.14399190616212;-0.95068359375;0.18408203125;0.078125;8.0625;-1.1875;-28.0;
1441975633314247;0.44134521484375;-0.5003662109375;-0.6099853515625;-0.4276123046875;16.50764447710107;12.238499673242707;17.09511013879315;-0.94189453125;0.1884765625;0.0888671875;9.3125;-0.8125;-29.5;
1441975633337249;0.44384765625;-0.4989013671875;-0.6063232421875;-0.431884765625;16.572238958628024;12.198297000633245;17.04317979266457;-0.94970703125;0.185546875;0.08203125;9.875;-0.3125;-31.0;
1441975633351249;0.44647216796875;-0.49737548828125;-0.6026611328125;-0.43603515625;16.63714451508588;12.155044607673267;16.989105544541562;-0.97705078125;0.18212890625;0.07568359375;10.125;-0.25;-32.0;
1441975633373251;0.448974609375;-0.49578857421875;-0.59918212890625;-0.44012451171875;16.69928844786578;12.104792079383092;16.928583099876562;-0.98583984375;0.169921875;0.06787109375;8.75;-0.125;-32.0625;
1441975633405252;0.4512939453125;-0.494384765625;-0.5955810546875;-0.44415283203125;16.75966286333083;12.053582171330122;16.86591655143349;-0.9833984375;0.1630859375;0.078125;8.625;0.125;-31.3125;
1441975633411253;0.45330810546875;-0.4932861328125;-0.59197998046875;-0.44805908203125;16.816016612388996;12.003419847078057;16.802924660038517;-0.990234375;0.1435546875;0.07666015625;9.75;0.3125;-30.125;
1441975633433254;0.45501708984375;-0.4925537109375;-0.588623046875;-0.45166015625;16.866057017256708;11.957735659305335;16.744072697213326;-0.98681640625;0.13818359375;0.07763671875;11.3125;0.5625;-28.125;
1441975633457255;0.45648193359375;-0.491943359375;-0.58551025390625;-0.454833984375;16.91052492887696;11.915228059888282;16.689329515663772;-0.97412109375;0.14013671875;0.07763671875;11.9375;0.75;-25.9375;
1441975633471256;0.4576416015625;-0.4915771484375;-0.582763671875;-0.45758056640625;16.947961262476163;11.87873941915057;16.641331707450558;-0.96728515625;0.13525390625;0.080078125;11.1875;1.0625;-22.875;
1441975633493257;0.45855712890625;-0.491455078125;-0.58026123046875;-0.4599609375;16.980055888632723;11.849698091098347;16.601154396649946;-0.9677734375;0.13037109375;0.08056640625;10.5625;1.4375;-19.4375;
1441975633517259;0.45916748046875;-0.49169921875;-0.57818603515625;-0.461669921875;17.004155771806335;11.837243196252059;16.578818709769905;-0.97021484375;0.1337890625;0.0830078125;10.5;1.8125;-16.0625;
1441975633531260;0.459716796875;-0.4920654296875;-0.57647705078125;-0.462890625;17.023671423679776;11.834642815289694;16.568276786371054;-0.97216796875;0.140625;0.0791015625;9.375;2.3125;-12.625;
1441975633553261;0.46002197265625;-0.4925537109375;-0.5751953125;-0.46368408203125;17.03680203782917;11.840042283201003;16.5671536738704;-0.97705078125;0.14404296875;0.07666015625;7.375;2.625;-9.375;
1441975633577262;0.460205078125;-0.4932861328125;-0.57415771484375;-0.46405029296875;17.045709035563608;11.858739017323055;16.580212592824527;-0.9765625;0.1572265625;0.08349609375;6.4375;3.0625;-6.6875;
1441975633591263;0.460205078125;-0.49407958984375;-0.573486328125;-0.4639892578125;17.049214803360154;11.885066867904596;16.60250133225928;-0.97314453125;0.1640625;0.07763671875;5.5;3.3125;-4.5;
1441975633622265;0.46026611328125;-0.4947509765625;-0.5731201171875;-0.46368408203125;17.050503311291425;11.911819095821484;16.627318380073376;-0.96923828125;0.177734375;0.0791015625;3.9375;3.5;-2.5;
1441975633630265;0.46026611328125;-0.49530029296875;-0.572998046875;-0.4632568359375;17.049323741864267;11.93597703350595;16.65077502428512;-0.97265625;0.17626953125;0.07861328125;1.8125;3.3125;-1.0625;
1441975633651267;0.46002197265625;-0.49609375;-0.57281494140625;-0.46282958984375;17.046065668538137;11.965312154738937;16.677837403786274;-0.97216796875;0.17041015625;0.08447265625;0.9375;2.9375;0.3125;
1441975633673268;0.4595947265625;-0.4969482421875;-0.5726318359375;-0.46258544921875;17.04161105347315;11.990943024945523;16.69996150006313;-0.97021484375;0.1708984375;0.080078125;2.5;2.8125;1.25;
1441975633705270;0.45892333984375;-0.4979248046875;-0.5726318359375;-0.462158203125;17.03300345923928;12.02027705942971;16.72580118923401;-0.96923828125;0.16748046875;0.08740234375;3.6875;2.3125;2.375;
1441975633711270;0.458251953125;-0.49884033203125;-0.57293701171875;-0.46148681640625;17.021518524628224;12.050143360561696;16.753926339543828;-0.96826171875;0.1708984375;0.0869140625;3.5625;2.125;3.6875;
1441975633733271;0.457763671875;-0.4996337890625;-0.573486328125;-0.46051025390625;17.00901223365771;12.081720275420386;16.786217278102825;-0.9638671875;0.181640625;0.09326171875;2.0;1.875;4.8125;
1441975633750272;0.4573974609375;-0.4998779296875;-0.5743408203125;-0.45941162109375;16.99602307334576;12.100169631488004;16.808563297159317;-0.986328125;0.1923828125;0.08056640625;-0.5;1.875;5.3125;
1441975633771273;0.45721435546875;-0.50006103515625;-0.57537841796875;-0.45819091796875;16.98292235415113;12.11863528120654;16.8324860705258;-0.9833984375;0.181640625;0.09130859375;-3.625;1.1875;5.5;
1441975633793275;0.45684814453125;-0.50048828125;-0.57611083984375;-0.45709228515625;16.970279968270017;12.141310892218415;16.85817684475067;-0.97998046875;0.1787109375;0.09375;-4.9375;1.1875;5.9375;
1441975633810276;0.45648193359375;-0.5008544921875;-0.576904296875;-0.4560546875;16.957481186783955;12.160290857963298;16.88034148837162;-0.99169921875;0.1884765625;0.0849609375;-2.75;1.625;5.75;
1441975633831277;0.4561767578125;-0.50103759765625;-0.57781982421875;-0.4549560546875;16.944496196998216;12.175163722914379;16.899634766181528;-0.98681640625;0.18603515625;0.08544921875;-3.125;0.8125;5.9375;
1441975633853278;0.455810546875;-0.50115966796875;-0.578857421875;-0.45391845703125;16.930483681655637;12.185630633439786;16.91469163770364;-0.98291015625;0.17236328125;0.083984375;-4.125;0.25;6.6875;
1441975633870279;0.455322265625;-0.50140380859375;-0.57989501953125;-0.45281982421875;16.91496137438178;12.198735119108338;16.931867608926506;-0.962890625;0.15869140625;0.08740234375;-4.25;-0.125;7.6875;
1441975633899281;0.4547119140625;-0.50164794921875;-0.58111572265625;-0.45166015625;16.89694351965639;12.210065558483032;16.94762155999114;-0.96337890625;0.15283203125;0.08251953125;-3.625;-0.4375;9.25;
1441975633913282;0.4539794921875;-0.50164794921875;-0.582763671875;-0.45025634765625;16.874707311631944;12.21558641807665;16.959871208116756;-0.96826171875;0.14501953125;0.08056640625;-4.25;-1.4375;11.0;
1441975633931283;0.453125;-0.5018310546875;-0.5845947265625;-0.44854736328125;16.84867633154629;12.227341827098961;16.978892416950405;-0.9462890625;0.13916015625;0.091796875;-6.3125;-1.9375;13.125;
1441975633954284;0.45220947265625;-0.50213623046875;-0.58648681640625;-0.4466552734375;16.82073488005591;12.242974643315412;17.00197777107228;-0.9345703125;0.15234375;0.08837890625;-6.5625;-1.9375;14.75;
1441975633975285;0.45135498046875;-0.50213623046875;-0.588623046875;-0.44464111328125;16.791902442651;12.252033851776458;17.02061718680771;-0.95263671875;0.1650390625;0.07861328125;-6.8125;-2.0625;15.6875;
1441975633990286;0.4505615234375;-0.5020751953125;-0.59075927734375;-0.44268798828125;16.763921196726653;12.258697941743842;17.03703417379389;-0.94287109375;0.16015625;0.0888671875;-9.125;-2.25;16.0;
1441975634011287;0.44976806640625;-0.50225830078125;-0.59259033203125;-0.44085693359375;16.7378132181679;12.270102250961383;17.056254927059985;-0.93359375;0.1591796875;0.09716796875;-9.3125;-2.0625;16.0;
1441975634033288;0.44891357421875;-0.502685546875;-0.59423828125;-0.43902587890625;16.71177128802718;12.286510566794984;17.079077626527436;-0.93310546875;0.16357421875;0.091796875;-6.9375;-1.4375;15.4375;
1441975634050289;0.44830322265625;-0.50274658203125;-0.59600830078125;-0.43707275390625;16.68732024953827;12.297831883506241;17.09929564880918;-0.927734375;0.18701171875;0.0830078125;-6.0625;-1.125;14.3125;
1441975634071291;0.44818115234375;-0.5025634765625;-0.59771728515625;-0.4351806640625;16.668056331895013;12.30680291393892;17.118888125995724;-0.9326171875;0.1982421875;0.09130859375;-8.3125;-0.6875;12.75;
1441975634093292;0.4483642578125;-0.5020751953125;-0.59918212890625;-0.43353271484375;16.654626112597555;12.310492386347603;17.133553684574633;-0.93505859375;0.1982421875;0.08056640625;-10.25;-0.5;10.8125;
1441975634110293;0.44866943359375;-0.50140380859375;-0.600341796875;-0.432373046875;16.646621597468027;12.307280297838398;17.13989399924033;-0.94921875;0.189453125;0.07568359375;-10.625;-0.6875;8.625;
1441975634131294;0.44891357421875;-0.50091552734375;-0.60113525390625;-0.431640625;16.64175108750473;12.30392149679206;17.143069760747302;-0.953125;0.17041015625;0.08056640625;-9.3125;-1.0625;7.125;
1441975634153295;0.4490966796875;-0.500732421875;-0.60150146484375;-0.43109130859375;16.639115962352456;12.306462162868733;17.149333039211257;-0.9423828125;0.16015625;0.08154296875;-6.4375;-1.0;5.875;
1441975634170296;0.4493408203125;-0.50048828125;-0.6016845703125;-0.43084716796875;16.6395585435344;12.30557244143277;17.15109044147997;-0.9462890625;0.169921875;0.0732421875;-3.6875;-0.5625;4.3125;
1441975634191297;0.44970703125;-0.50018310546875;-0.601806640625;-0.4306640625;16.641793403332755;12.30400328251982;17.152333486071548;-0.95947265625;0.1728515625;0.0791015625;-2.625;-0.6875;2.625;
1441975634214299;0.4503173828125;-0.49969482421875;-0.601806640625;-0.43060302734375;16.64777747076404;12.30001869709159;17.151677373866804;-0.9580078125;0.1826171875;0.0771484375;-2.9375;-0.4375;1.0;
1441975634236300;0.4510498046875;-0.4991455078125;-0.60162353515625;-0.4306640625;16.65660141132807;12.295492484932026;17.150127747897802;-0.96240234375;0.18359375;0.0830078125;-3.1875;0.3125;-0.875;
1441975634254301;0.4520263671875;-0.49853515625;-0.601318359375;-0.4307861328125;16.668600671422315;12.291461950626589;17.149402853748512;-0.951171875;0.1826171875;0.083984375;-3.125;1.0625;-2.5;
1441975634274302;0.4532470703125;-0.49786376953125;-0.60089111328125;-0.43096923828125;16.683774897653812;12.287928551634671;17.1495033740969;-0.95361328125;0.185546875;0.0869140625;-3.375;1.875;-4.125;
1441975634296303;0.45458984375;-0.49700927734375;-0.60040283203125;-0.43115234375;16.70082933896041;12.282357732498044;17.14828996854577;-0.955078125;0.1845703125;0.08251953125;-3.5625;2.375;-5.6875;
1441975634311304;0.45611572265625;-0.49609375;-0.59979248046875;-0.43145751953125;16.720807430638825;12.275950789198193;17.14621648486323;-0.95361328125;0.1826171875;0.08154296875;-4.3125;2.6875;-7.0;
1441975634333306;0.457763671875;-0.49505615234375;-0.5989990234375;-0.43194580078125;16.744025454460623;12.266739574319619;17.1409859081246;-0.9541015625;0.1787109375;0.08154296875;-4.5625;3.0;-8.125;
1441975634356307;0.45928955078125;-0.494140625;-0.59820556640625;-0.43255615234375;16.76639814024235;12.25686260087409;17.13401189796095;-0.958984375;0.16748046875;0.07763671875;-4.125;3.0;-9.0;
1441975634371308;0.460693359375;-0.4932861328125;-0.5972900390625;-0.4332275390625;16.788670191566418;12.247191751955903;17.126213197965374;-0.96142578125;0.17236328125;0.0810546875;-3.1875;2.875;-9.8125;
1441975634393309;0.462158203125;-0.49237060546875;-0.596435546875;-0.43402099609375;16.81163183847669;12.233840197906092;17.11487350176186;-0.95458984375;0.17724609375;0.08251953125;-2.125;2.6875;-10.3125;
1441975634416310;0.46343994140625;-0.4915771484375;-0.59552001953125;-0.43475341796875;16.832963187904713;12.222820240439964;17.105022722416553;-0.95263671875;0.1728515625;0.0830078125;-2.125;2.5625;-10.5625;
1441975634431311;0.46484375;-0.49072265625;-0.59454345703125;-0.435546875;16.856060475032823;12.210506176123092;17.094041024292995;-0.95751953125;0.1796875;0.08056640625;-1.5;2.5;-10.75;
1441975634453312;0.46624755859375;-0.48974609375;-0.59375;-0.436279296875;16.877981294930475;12.19455199077195;17.080470399860303;-0.9638671875;0.17138671875;0.07568359375;-1.75;2.375;-11.125;
1441975634476314;0.467529296875;-0.48895263671875;-0.59283447265625;-0.43701171875;16.899256501891124;12.182194805298773;17.06928089753637;-0.94970703125;0.16748046875;0.08349609375;-2.5625;2.1875;-11.0;
1441975634491315;0.46881103515625;-0.48834228515625;-0.5919189453125;-0.4376220703125;16.9196083119455;12.175545058187641;17.063611333933025;-0.96728515625;0.17578125;0.0791015625;-1.5;2.5;-10.875;
1441975634513316;0.47021484375;-0.4873046875;-0.5911865234375;-0.43817138671875;16.94054537992094;12.159560127316189;17.050919448798176;-0.9794921875;0.189453125;0.0703125;-1.3125;2.625;-11.3125;
1441975634537317;0.47161865234375;-0.486083984375;-0.590576171875;-0.43890380859375;16.961702936248457;12.134208817669453;17.029186445549996;-0.9697265625;0.18212890625;0.0771484375;-3.6875;2.1875;-11.875;
1441975634552318;0.47271728515625;-0.4852294921875;-0.5897216796875;-0.43975830078125;16.981548082548333;12.114061293908003;17.00969104677336;-0.9638671875;0.1552734375;0.083984375;-4.125;1.625;-11.0625;
1441975634582320;0.4735107421875;-0.48480224609375;-0.5887451171875;-0.440673828125;16.998907791074277;12.100882812170076;16.994525929847946;-0.9609375;0.1494140625;0.0908203125;-0.875;2.0625;-10.1875;
1441975634596321;0.474365234375;-0.48431396484375;-0.58807373046875;-0.44122314453125;17.01352462153576;12.090759329712771;16.98470441827036;-0.96533203125;0.1513671875;0.080078125;1.5;2.0;-9.1875;
1441975634612321;0.47515869140625;-0.48358154296875;-0.58782958984375;-0.44146728515625;17.024206028586732;12.076285174084342;16.973194370807995;-0.9755859375;0.15576171875;0.07666015625;-0.4375;1.3125;-7.6875;
1441975634633323;0.47589111328125;-0.48291015625;-0.58770751953125;-0.441650390625;17.033170953045403;12.062674173768245;16.962709886426296;-0.9619140625;0.1494140625;0.0810546875;-3.0;1.0625;-6.0;
1441975634656324;0.476318359375;-0.482421875;-0.587646484375;-0.4417724609375;17.03859446720121;12.051868666019331;16.954004782664576;-0.9619140625;0.1376953125;0.0810546875;-3.4375;0.75;-4.4375;
1441975634672325;0.4765625;-0.482177734375;-0.58770751953125;-0.44171142578125;17.040510406719115;12.048348811389824;16.95223518201852;-0.9609375;0.140625;0.08544921875;-2.25;0.4375;-2.875;
1441975634693326;0.4766845703125;-0.48193359375;-0.58782958984375;-0.44158935546875;17.04080945625855;12.044682202860002;16.950343575892013;-0.9658203125;0.1494140625;0.080078125;-1.5625;0.125;-1.8125;
1441975634716327;0.4766845703125;-0.48175048828125;-0.588134765625;-0.44140625;17.03848653099644;12.041196619322308;16.94879568972873;-0.9609375;0.15380859375;0.0771484375;-1.9375;-0.25;-0.75;
1441975634732328;0.47662353515625;-0.4815673828125;-0.58837890625;-0.44134521484375;17.036488859919587;12.035303839860234;16.944140552801105;-0.9638671875;0.1552734375;0.08154296875;-2.125;-0.625;-0.1875;
1441975634755330;0.47637939453125;-0.4815673828125;-0.58856201171875;-0.44140625;17.033404466061832;12.030619509153492;16.939106177293578;-0.9619140625;0.14892578125;0.08154296875;-1.3125;-1.0;0.125;
1441975634784331;0.4759521484375;-0.48175048828125;-0.588623046875;-0.44158935546875;17.029666885375597;12.027728069072221;16.934114404351664;-0.95751953125;0.1474609375;0.0830078125;0.3125;-1.125;0.3125;
1441975634792332;0.47552490234375;-0.4820556640625;-0.588623046875;-0.44171142578125;17.025892139826833;12.02964583155586;16.933581640256495;-0.95263671875;0.14990234375;0.0859375;1.9375;-1.1875;0.5625;
1441975634816333;0.47509765625;-0.482177734375;-0.5887451171875;-0.44183349609375;17.021665558156688;12.02604309997923;16.928415805450737;-0.95947265625;0.15576171875;0.07666015625;2.25;-1.375;0.625;
1441975634836334;0.47454833984375;-0.48248291015625;-0.58892822265625;-0.44183349609375;17.01521629586272;12.028004394592614;16.928463705148364;-0.9658203125;0.15283203125;0.08447265625;1.625;-1.75;0.75;
1441975634852335;0.47393798828125;-0.483154296875;-0.589111328125;-0.4415283203125;17.00646956198414;12.04444630813943;16.942641851024746;-0.958984375;0.1669921875;0.10009765625;1.625;-0.3125;1.25;
1441975634873336;0.47344970703125;-0.48370361328125;-0.58953857421875;-0.44091796875;16.996257358234093;12.06248199321854;16.960701912856354;-0.94677734375;0.16650390625;0.109375;2.5625;1.8125;3.3125;
1441975634904338;0.4732666015625;-0.48406982421875;-0.59027099609375;-0.439697265625;16.984746218634694;12.087278301536777;16.989586759185894;-0.9423828125;0.1884765625;0.10498046875;0.25;2.125;2.9375;
1441975634912339;0.4736328125;-0.48382568359375;-0.59161376953125;-0.437744140625;16.972329751300652;12.109935101925535;17.023549912096257;-0.94677734375;0.22119140625;0.09521484375;-3.8125;2.375;2.5625;
1441975634933340;0.47503662109375;-0.4825439453125;-0.5936279296875;-0.4349365234375;16.963157912885617;12.125981454444032;17.061273822359144;-0.947265625;0.24072265625;0.08349609375;-11.375;2.8125;2.3125;
1441975634956341;0.47711181640625;-0.48016357421875;-0.5960693359375;-0.431884765625;16.958320913308956;12.122472221708712;17.086501002597377;-0.96435546875;0.2294921875;0.0673828125;-21.5625;2.875;1.75;
1441975634972342;0.479248046875;-0.47747802734375;-0.5986328125;-0.428955078125;16.954358832652375;12.109034866472559;17.10285275911567;-0.97607421875;0.21044921875;0.07568359375;-28.8125;2.375;1.0;
1441975635001344;0.48126220703125;-0.474853515625;-0.6009521484375;-0.42645263671875;16.95247117860095;12.090320811375824;17.111448675724326;-0.9697265625;0.19482421875;0.08740234375;-29.875;1.9375;0.3125;
1441975635016345;0.48297119140625;-0.47247314453125;-0.6029052734375;-0.42437744140625;16.95154478788022;12.07028779428226;17.11487865780174;-0.97265625;0.1796875;0.087890625;-27.1875;1.0625;-0.125;
1441975635032346;0.484375;-0.47027587890625;-0.604736328125;-0.422607421875;16.949601685938628;12.047580729221647;17.112996861706915;-0.9775390625;0.16650390625;0.078125;-23.5625;-0.25;0.1875;
1441975635053347;0.485595703125;-0.4681396484375;-0.60650634765625;-0.4210205078125;16.947067777294546;12.022126305190358;17.10697075404574;-0.982421875;0.1572265625;0.0869140625;-20.875;-0.9375;0.75;
1441975635076348;0.48675537109375;-0.46588134765625;-0.60845947265625;-0.4193115234375;16.942631300872183;11.994283173586757;17.09964151105779;-0.9873046875;0.15869140625;0.0859375;-19.75;-1.75;0.625;
1441975635092349;0.4879150390625;-0.46343994140625;-0.61041259765625;-0.4178466796875;16.93940483098377;11.957916231463091;17.083596882725708;-0.9775390625;0.15625;0.0927734375;-20.5625;-2.375;1.125;
1441975635113350;0.48895263671875;-0.4613037109375;-0.6121826171875;-0.41650390625;16.9360839513612;11.926992398998209;17.070862530150297;-0.9638671875;0.1376953125;0.10107421875;-20.375;-2.625;1.25;
1441975635144352;0.48974609375;-0.4593505859375;-0.61370849609375;-0.41534423828125;16.932595993959048;11.89740824531073;17.057065460700002;-0.9560546875;0.12890625;0.09912109375;-18.125;-2.75;1.6875;
1441975635152352;0.4906005859375;-0.45751953125;-0.615234375;-0.41412353515625;16.929100501534062;11.872172537780576;17.047578130371726;-0.96923828125;0.1298828125;0.1044921875;-15.8125;-2.5;1.9375;
1441975635173354;0.49163818359375;-0.455322265625;-0.6170654296875;-0.41253662109375;16.924591304827032;11.844411785140192;17.03913775217486;-0.97021484375;0.13134765625;0.09521484375;-16.0;-2.6875;2.1875;
1441975635197355;0.492919921875;-0.4527587890625;-0.619140625;-0.4107666015625;16.920556029859878;11.81156839859729;17.028601134125562;-0.955078125;0.1328125;0.1015625;-19.1875;-2.5;2.25;
1441975635214356;0.494384765625;-0.44989013671875;-0.62127685546875;-0.40899658203125;16.91817594240909;11.772664629336282;17.013594444631636;-0.95263671875;0.1259765625;0.107421875;-22.5;-2.375;2.0625;
1441975635233357;0.49591064453125;-0.44708251953125;-0.623291015625;-0.40716552734375;16.91679865788877;11.737629609650423;17.002305005138588;-0.94580078125;0.125;0.10888671875;-23.8125;-2.5625;1.25;
1441975635256358;0.497314453125;-0.44415283203125;-0.62530517578125;-0.405517578125;16.915095313400926;11.695886141099763;16.98380929648825;-0.93212890625;0.12060546875;0.1025390625;-23.75;-2.375;0.875;
1441975635272359;0.49871826171875;-0.4412841796875;-0.62725830078125;-0.4039306640625;16.913782392233884;11.65487584751836;16.965501573970712;-0.92041015625;0.1220703125;0.1142578125;-23.3125;-2.5;0.3125;
1441975635293360;0.50006103515625;-0.4383544921875;-0.62933349609375;-0.4022216796875;16.910769712519812;11.613770711154705;16.947844745922247;-0.91357421875;0.115234375;0.11181640625;-22.8125;-2.625;-0.0625;
1441975635316362;0.50146484375;-0.43548583984375;-0.63128662109375;-0.4005126953125;16.90895037855005;11.575271152222816;16.93244705494192;-0.89990234375;0.12353515625;0.11962890625;-23.5625;-2.625;-0.25;
1441975635332363;0.50286865234375;-0.43292236328125;-0.6328125;-0.39910888671875;16.91040068488842;11.540667092674413;16.91791403414281;-0.8720703125;0.12548828125;0.14404296875;-22.75;-0.25;-0.5;
1441975635353364;0.50421142578125;-0.4305419921875;-0.6341552734375;-0.39794921875;16.91290066413859;11.506364556755283;16.901691506905966;-0.85888671875;0.1025390625;0.13623046875;-20.1875;0.5;-0.5625;
1441975635376365;0.505126953125;-0.428466796875;-0.6353759765625;-0.39697265625;16.91258100736158;11.474416649908507;16.8849011942217;-0.83642578125;0.0966796875;0.1376953125;-17.5;0.8125;-1.0;
1441975635392366;0.5054931640625;-0.42608642578125;-0.63775634765625;-0.395263671875;16.897898634118597;11.440645881282311;16.871168166728584;-0.80517578125;0.07861328125;0.12353515625;-15.0625;-1.0;0.6875;
1441975635421368;0.505615234375;-0.4229736328125;-0.641357421875;-0.3927001953125;16.87131581565476;11.399556010952255;16.857688489470497;-0.76611328125;0.1064453125;0.1181640625;-20.1875;-5.5;4.0;
1441975635444369;0.50579833984375;-0.41937255859375;-0.645263671875;-0.389892578125;16.843048983990606;11.352245450075506;16.841295290204005;-0.7353515625;0.13623046875;0.13232421875;-27.5;-8.3125;6.4375;
1441975635452370;0.50579833984375;-0.41534423828125;-0.64947509765625;-0.38720703125;16.8116190710633;11.293376408926276;16.814663047482107;-0.72119140625;0.1357421875;0.12158203125;-31.3125;-10.625;6.1875;
1441975635482371;0.5054931640625;-0.41143798828125;-0.65386962890625;-0.38433837890625;16.775551852342662;11.240791427912534;16.794255479208324;-0.697265625;0.12255859375;0.13671875;-32.75;-12.5;6.5;
1441975635496372;0.50506591796875;-0.407470703125;-0.65838623046875;-0.38140869140625;16.737338409305455;11.189320713786827;16.775395144912373;-0.65966796875;0.126953125;0.138671875;-32.375;-13.25;7.875;
1441975635514373;0.5047607421875;-0.40325927734375;-0.66302490234375;-0.37823486328125;16.698926616055136;11.138797594742451;16.759713167752547;-0.62353515625;0.12451171875;0.14794921875;-33.25;-13.3125;8.25;
1441975635543375;0.50482177734375;-0.3988037109375;-0.6676025390625;-0.37481689453125;16.663789923427327;11.090064338737221;16.74819410949071;-0.6025390625;0.12353515625;0.14306640625;-35.125;-13.4375;8.625;
1441975635556375;0.5052490234375;-0.3936767578125;-0.67230224609375;-0.3712158203125;16.630992519441985;11.033196627608149;16.73257434176324;-0.6015625;0.12353515625;0.12548828125;-37.375;-13.6875;7.9375;
1441975635588377;0.50592041015625;-0.38800048828125;-0.6771240234375;-0.3675537109375;16.59948558771347;10.96874940451122;16.71230590534609;-0.61474609375;0.103515625;0.1083984375;-42.25;-15.0625;7.6875;
1441975635595378;0.50628662109375;-0.38226318359375;-0.6820068359375;-0.3638916015625;16.564656261948123;10.904709406115813;16.692150658323246;-0.61083984375;0.0556640625;0.10546875;-44.375;-15.9375;8.875;
1441975635616379;0.50628662109375;-0.37713623046875;-0.6868896484375;-0.36016845703125;16.526167966082234;10.854028388643659;16.682693769121048;-0.59765625;0.04443359375;0.125;-43.625;-16.5;10.625;
1441975635640380;0.50677490234375;-0.3721923828125;-0.69073486328125;-0.35723876953125;16.50026776437241;10.79968863054281;16.665031670001905;-0.60595703125;0.09521484375;0.1533203125;-41.4375;-14.9375;9.75;
1441975635656381;0.50787353515625;-0.3665771484375;-0.6942138671875;-0.35467529296875;16.4826374453847;10.730918268860643;16.63454261565329;-0.66015625;0.10302734375;0.1435546875;-37.1875;-13.0;4.3125;
1441975635676382;0.50860595703125;-0.3612060546875;-0.69793701171875;-0.35186767578125;16.45943698294611;10.67035201905668;16.612019221844772;-0.7109375;0.0458984375;0.173828125;-38.5;-10.8125;2.6875;
1441975635692383;0.5089111328125;-0.35675048828125;-0.701416015625;-0.3489990234375;16.434065229957298;10.627629009101154;16.602955491043037;-0.71044921875;0.0244140625;0.2236328125;-36.8125;-8.75;7.1875;
1441975635722385;0.509765625;-0.3526611328125;-0.70452880859375;-0.345703125;16.41589723469735;10.597504539438106;16.607100354273573;-0.69873046875;0.0439453125;0.2421875;-32.3125;-6.8125;9.0;
1441975635736386;0.511474609375;-0.34783935546875;-0.7076416015625;-0.34161376953125;16.404583189077535;10.565371242191059;16.61640251775973;-0.7529296875;0.0771484375;0.21435546875;-33.1875;-5.0;8.0625;
1441975635752387;0.51416015625;-0.34161376953125;-0.71063232421875;-0.337646484375;16.40257387477917;10.508459943501952;16.607219448189333;-0.86279296875;0.126953125;0.20166015625;-41.0;-4.0;5.1875;
1441975635775388;0.51727294921875;-0.33428955078125;-0.71343994140625;-0.334228515625;16.40536786516592;10.42642251103662;16.57536018273016;-0.97802734375;0.125;0.18896484375;-48.5;-5.6875;-1.0;
1441975635796389;0.5203857421875;-0.32720947265625;-0.7158203125;-0.331298828125;16.411009439824632;10.342242405761354;16.53788697828376;-1.01318359375;0.07861328125;0.19287109375;-51.0625;-7.375;-3.875;
1441975635812390;0.52313232421875;-0.3209228515625;-0.71734619140625;-0.32977294921875;16.419672904820008;10.2535130902401;16.48557727145105;-1.04052734375;0.06884765625;0.20068359375;-47.5;-6.5625;-6.0625;
1441975635842392;0.525634765625;-0.31561279296875;-0.7178955078125;-0.32989501953125;16.433053865048713;10.159252697567325;16.415901849496546;-1.10693359375;0.06640625;0.2509765625;-37.75;-4.5625;-10.5;
1441975635856393;0.52783203125;-0.30999755859375;-0.7186279296875;-0.33001708984375;16.44074889776549;10.059451381674181;16.341556291598664;-1.142578125;0.02294921875;0.2666015625;-25.5;-3.4375;-12.9375;
1441975635878394;0.529296875;-0.30462646484375;-0.71990966796875;-0.32989501953125;16.43718286433574;9.968822117550577;16.276040203594604;-1.13916015625;-0.00244140625;0.28125;-26.25;-5.3125;-11.9375;
1441975635895395;0.530029296875;-0.30010986328125;-0.7210693359375;-0.330322265625;16.42790659616245;9.887846884998188;16.213480500800582;-1.12451171875;-0.02294921875;0.318359375;-25.0625;-5.875;-7.5;
1441975635925397;0.52947998046875;-0.29656982421875;-0.72296142578125;-0.33026123046875;16.40353734733731;9.835468675832209;16.176730239994942;-1.1689453125;-0.04052734375;0.3193359375;-18.25;-9.75;-5.0;
1441975635938397;0.52813720703125;-0.2938232421875;-0.72564697265625;-0.3289794921875;16.36899455640785;9.816127623727464;16.17459212266522;-1.2099609375;0.0;0.33740234375;-15.0625;-14.0625;0.9375;
1441975635955398;0.52691650390625;-0.2904052734375;-0.72869873046875;-0.3271484375;16.332225661855638;9.793470544631182;16.174519767817205;-1.18896484375;0.095703125;0.3466796875;-17.3125;-15.8125;4.1875;
1441975635976400;0.52520751953125;-0.28662109375;-0.732177734375;-0.3255615234375;16.287216216871073;9.76523422863814;16.169230095938932;-1.1884765625;0.1103515625;0.35986328125;-22.6875;-16.5625;4.375;
1441975635998401;0.5220947265625;-0.2833251953125;-0.7359619140625;-0.32489013671875;16.2276280775402;9.740172291642258;16.159998826834304;-1.21044921875;0.095703125;0.369140625;-23.3125;-21.1875;4.625;
1441975636015402;0.517822265625;-0.28070068359375;-0.73992919921875;-0.324951171875;16.1570160648091;9.722246281846255;16.15100011539645;-1.185546875;0.095703125;0.39208984375;-16.0625;-27.875;5.125;
1441975636036403;0.51275634765625;-0.279052734375;-0.74420166015625;-0.32476806640625;16.079518605184393;9.724276082111716;16.158393953922683;-1.1376953125;0.07958984375;0.4091796875;-8.875;-32.0625;7.3125;
1441975636058404;0.50732421875;-0.2777099609375;-0.74859619140625;-0.32421875;15.998878525318373;9.7348174674403;16.1741033687096;-1.08984375;0.1171875;0.4130859375;-5.375;-33.875;10.25;
1441975636076405;0.50164794921875;-0.27655029296875;-0.75335693359375;-0.322998046875;15.914518707443628;9.753992974868847;16.200491527439503;-1.07568359375;0.15380859375;0.4267578125;-5.125;-34.625;11.8125;
1441975636096406;0.4962158203125;-0.27471923828125;-0.7584228515625;-0.3211669921875;15.829401232420304;9.767997998662409;16.22747635366372;-1.07080078125;0.2041015625;0.416015625;-7.8125;-37.0;13.0625;
1441975636118408;0.49114990234375;-0.271728515625;-0.763427734375;-0.3197021484375;15.745379852959259;9.76237240409919;16.238368347569256;-1.0849609375;0.2275390625;0.40234375;-14.0;-39.625;13.125;
1441975636135409;0.486328125;-0.2679443359375;-0.7681884765625;-0.31878662109375;15.66316275519101;9.742006328188326;16.235481328238638;-1.10693359375;0.177734375;0.3857421875;-17.8125;-43.1875;11.25;
1441975636156410;0.48095703125;-0.26519775390625;-0.77288818359375;-0.31787109375;15.578404324631421;9.735585569728915;16.241626997896496;-1.08544921875;0.08447265625;0.3837890625;-17.125;-44.5625;11.8125;
1441975636178411;0.47503662109375;-0.2642822265625;-0.7772216796875;-0.31689453125;15.494696242429896;9.750980100928402;16.26136479597487;-1.0390625;0.08056640625;0.4091796875;-11.1875;-43.0;15.6875;
1441975636195412;0.46966552734375;-0.263671875;-0.78118896484375;-0.3157958984375;15.419034180632583;9.767878028634568;16.282249381301597;-1.0009765625;0.158203125;0.427734375;-3.9375;-39.875;16.1875;
1441975636216413;0.4654541015625;-0.261962890625;-0.78448486328125;-0.315185546875;15.355855691727026;9.76567554216363;16.287203489452782;-1.005859375;0.23046875;0.42626953125;-5.3125;-36.8125;11.9375;
1441975636238414;0.4615478515625;-0.25982666015625;-0.78759765625;-0.31500244140625;15.295568616289941;9.755297851310083;16.284213816027528;-1.03759765625;0.2138671875;0.423828125;-9.5;-34.75;5.5625;
1441975636255415;0.4583740234375;-0.25836181640625;-0.78973388671875;-0.31549072265625;15.249183494470872;9.745493837190804;16.27630080099665;-1.05419921875;0.20751953125;0.47998046875;-10.4375;-31.625;2.3125;
1441975636276417;0.45623779296875;-0.25726318359375;-0.79058837890625;-0.3172607421875;15.22038699837093;9.728328160208466;16.25435459142058;-1.060546875;0.2158203125;0.50341796875;-5.125;-25.5625;-2.1875;
1441975636298418;0.45489501953125;-0.255859375;-0.79107666015625;-0.3192138671875;15.200383666258132;9.705154657023238;16.227605003192096;-1.07568359375;0.173828125;0.49365234375;0.625;-19.75;-8.25;
1441975636315419;0.45361328125;-0.25408935546875;-0.79150390625;-0.32122802734375;15.18021773300737;9.67807257530671;16.198101123040686;-1.0791015625;0.1337890625;0.4853515625;0.0;-17.25;-9.4375;
1441975636336420;0.4522705078125;-0.252685546875;-0.79205322265625;-0.32293701171875;15.159615806047775;9.657182954089677;16.174662908733737;-1.0458984375;0.09765625;0.4931640625;-0.3125;-16.4375;-8.875;
1441975636358421;0.4510498046875;-0.2508544921875;-0.79296875;-0.3238525390625;15.137443477417827;9.637218574526377;16.15763699173498;-1.0166015625;0.1083984375;0.50390625;-0.0625;-14.8125;-7.4375;
1441975636375422;0.45050048828125;-0.2484130859375;-0.79388427734375;-0.32427978515625;15.12040101958738;9.612710763754492;16.141419428827312;-1.0;0.12890625;0.521484375;-5.375;-13.0625;-6.125;
1441975636396424;0.450439453125;-0.24542236328125;-0.79473876953125;-0.3245849609375;15.10689935224351;9.58241744268005;16.122720921594777;-1.01025390625;0.13134765625;0.53857421875;-10.8125;-10.25;-6.625;
1441975636414425;0.4503173828125;-0.24224853515625;-0.79559326171875;-0.32489013671875;15.092141870720324;9.550727389856801;16.103224020477274;-1.00439453125;0.0947265625;0.544921875;-13.375;-8.4375;-6.5;
1441975636442426;0.4498291015625;-0.23956298828125;-0.79669189453125;-0.32501220703125;15.073825259896793;9.526378870509948;16.089703110178167;-0.96435546875;0.05322265625;0.5556640625;-13.0;-7.3125;-4.6875;
1441975636457427;0.4493408203125;-0.23687744140625;-0.79779052734375;-0.324951171875;15.05559680198837;9.503324661305527;16.078183715622195;-0.90869140625;0.0615234375;0.57373046875;-10.6875;-5.75;-3.0;
1441975636474428;0.44921875;-0.23297119140625;-0.79937744140625;-0.32403564453125;15.03549355076727;9.473209417231379;16.069013490628997;-0.8759765625;0.0966796875;0.560546875;-13.25;-5.625;-4.4375;
1441975636495429;0.44970703125;-0.22796630859375;-0.801025390625;-0.32275390625;15.018011797167738;9.43327911309157;16.056802533394368;-0.853515625;0.111328125;0.572265625;-22.5;-4.75;-5.0625;
1441975636517430;0.4508056640625;-0.22235107421875;-0.80230712890625;-0.32196044921875;15.005758571635486;9.382837930837303;16.03498173950761;-0.8466796875;0.11865234375;0.58203125;-30.5;-3.4375;-7.5625;
1441975636538432;0.4522705078125;-0.21685791015625;-0.8031005859375;-0.32171630859375;14.998899997673558;9.328970254835475;16.006959855425208;-0.8681640625;0.10400390625;0.5830078125;-32.5625;-2.25;-12.0625;
1441975636555433;0.45367431640625;-0.21160888671875;-0.8035888671875;-0.32208251953125;14.992470974087105;9.273941572982073;15.973884240714142;-0.86962890625;0.0693359375;0.5634765625;-29.75;-1.1875;-14.5;
1441975636577434;0.45477294921875;-0.20672607421875;-0.8040771484375;-0.32244873046875;14.983751362632333;9.223517508528527;15.943506098715673;-0.85791015625;0.0224609375;0.5361328125;-25.5625;-2.5;-14.5625;
1441975636598435;0.4561767578125;-0.20233154296875;-0.80426025390625;-0.32281494140625;14.98065604687238;9.17630145469601;15.91445286440609;-0.833984375;0.025390625;0.5341796875;-23.375;-2.5625;-14.3125;
1441975636616436;0.45819091796875;-0.19830322265625;-0.8038330078125;-0.32342529296875;14.98687743851103;9.128015117476243;15.881964649853074;-0.81396484375;0.0419921875;0.5029296875;-22.5;-0.625;-15.0;
1441975636637437;0.4603271484375;-0.19464111328125;-0.802978515625;-0.32476806640625;14.995835156503466;9.077751855643346;15.842746324284832;-0.8193359375;0.0302734375;0.46044921875;-20.625;1.0;-17.3125;
1441975636661439;0.46234130859375;-0.19183349609375;-0.80181884765625;-0.3265380859375;15.00685543427025;9.032651152835156;15.803032474654696;-0.82568359375;-0.005859375;0.4384765625;-15.6875;1.3125;-18.625;
1441975636675439;0.46368408203125;-0.19049072265625;-0.80084228515625;-0.32769775390625;15.016961001226132;9.00696601125961;15.77864014867497;-0.83984375;-0.04248046875;0.42041015625;-9.3125;1.375;-16.9375;
1441975636697441;0.464111328125;-0.1905517578125;-0.800048828125;-0.3291015625;15.02227282393363;8.996665538214195;15.762075567536602;-0.86962890625;-0.0087890625;0.41748046875;-4.0;0.0625;-11.8125;
1441975636721442;0.4642333984375;-0.1917724609375;-0.79901123046875;-0.3306884765625;15.030033811084188;8.996666389215616;15.749733668391162;-0.89306640625;-0.03173828125;0.4208984375;4.875;-2.875;-6.5;
1441975636735443;0.46356201171875;-0.19451904296875;-0.79840087890625;-0.3314208984375;15.035911902805992;9.01934755883137;15.756888841200444;-0.90576171875;-0.0703125;0.3955078125;13.0;-3.5;-1.6875;
1441975636757444;0.46197509765625;-0.19854736328125;-0.7984619140625;-0.33111572265625;15.036638776308788;9.064493194431332;15.785172537174804;-0.94384765625;-0.0068359375;0.38916015625;17.0;-6.125;4.0625;
1441975636778445;0.45953369140625;-0.20465087890625;-0.7987060546875;-0.330322265625;15.036366879487344;9.135158254625082;15.831755741806134;-0.93017578125;0.02685546875;0.41015625;19.875;-7.0;12.9375;
1441975636795446;0.45635986328125;-0.21234130859375;-0.798583984375;-0.33001708984375;15.034671268678588;9.219853849511257;15.882562774337497;-0.919921875;0.08447265625;0.44873046875;27.875;-3.625;19.1875;
1441975636817448;0.45123291015625;-0.22332763671875;-0.798828125;-0.3292236328125;15.022286709200987;9.345141740013576;15.960505730123906;-0.97021484375;0.0537109375;0.47802734375;39.9375;-3.6875;24.375;
1441975636838449;0.4459228515625;-0.2374267578125;-0.7978515625;-0.3289794921875;15.020006704530486;9.49510782679524;16.046688739650197;-1.00048828125;0.166015625;0.556640625;54.0;-3.0625;33.25;
1441975636855450;0.43798828125;-0.2547607421875;-0.79656982421875;-0.329833984375;14.997304617327165;9.675700013628692;16.14182523157194;-1.02685546875;0.2080078125;0.5556640625;71.1875;3.6875;35.875;
1441975636877451;0.427734375;-0.27294921875;-0.7962646484375;-0.3294677734375;14.942874012505658;9.874300802962953;16.2537928000937;-1.1416015625;0.2685546875;0.58984375;93.9375;-4.5625;41.3125;
1441975636898452;0.41595458984375;-0.29339599609375;-0.79718017578125;-0.3248291015625;14.861586704530604;10.114514661792509;16.414131995699822;-1.18896484375;0.35009765625;0.62646484375;100.75;-11.9375;59.9375;
1441975636915453;0.403564453125;-0.31524658203125;-0.7979736328125;-0.31787109375;14.761220802873217;10.37022533155354;16.591648977392154;-1.0869140625;0.42724609375;0.6630859375;97.375;-7.0625;80.5625;
1441975636937454;0.39117431640625;-0.33807373046875;-0.7979736328125;-0.309814453125;14.648334955342042;10.62784258328272;16.769537715916734;-0.9990234375;0.513671875;0.63330078125;98.5;-1.625;92.875;
1441975636958456;0.37713623046875;-0.3619384765625;-0.7979736328125;-0.300048828125;14.499176608462307;10.888023005143486;16.94858953034099;-0.986328125;0.5771484375;0.63671875;106.8125;0.5;108.9375;
1441975636975457;0.364501953125;-0.383544921875;-0.79833984375;-0.28765869140625;14.337937858718696;11.122851655458915;17.123455564353982;-0.8876953125;0.73388671875;0.57421875;110.0625;-1.5;120.3125;
1441975636997458;0.3521728515625;-0.4071044921875;-0.79718017578125;-0.27349853515625;14.164031626402606;11.36719495811659;17.303955012594407;-0.83837890625;0.671875;0.5224609375;91.625;4.9375;126.8125;
1441975637018459;0.342041015625;-0.430419921875;-0.794677734375;-0.2574462890625;13.992573232726256;11.604685754573339;17.486733442465706;-0.765625;0.705078125;0.53466796875;99.75;17.6875;135.6875;
1441975637035460;0.3348388671875;-0.451171875;-0.79248046875;-0.2374267578125;13.815008254408138;11.822653318626429;17.680876400476482;-0.830078125;0.76953125;0.4755859375;94.75;33.375;137.125;
1441975637057461;0.33026123046875;-0.47052001953125;-0.7900390625;-0.213134765625;13.62505814235116;12.031678495169443;17.892347121135785;-0.79345703125;0.72607421875;0.474609375;71.3125;52.75;144.75;
1441975637078463;0.3292236328125;-0.49066162109375;-0.7845458984375;-0.1883544921875;13.453379793301073;12.247531656516319;0.11064985172942957;-0.66845703125;0.6962890625;0.45556640625;54.5625;74.6875;154.125;
1441975637095464;0.33209228515625;-0.510986328125;-0.77569580078125;-0.1644287109375;13.309075175476181;12.468432800424349;0.3313792509802158;-0.6513671875;0.7314453125;0.30615234375;59.625;97.625;144.875;
1441975637117465;0.33746337890625;-0.531494140625;-0.76397705078125;-0.14166259765625;13.177059284047264;12.69293946596459;0.5497774268081744;-0.72216796875;0.72314453125;0.15185546875;66.625;117.375;128.25;
1441975637138466;0.34600830078125;-0.55078125;-0.750244140625;-0.11907958984375;13.056209829616465;12.915435332050306;0.7727497500807752;-0.76806640625;0.837890625;0.029296875;74.5625;129.5;113.375;
1441975637155467;0.36053466796875;-0.563720703125;-0.73699951171875;-0.09600830078125;12.976007372674127;13.108965082250995;1.0079528261078197;-0.81396484375;0.8115234375;-0.0947265625;72.375;145.125;100.3125;
1441975637176468;0.37701416015625;-0.5748291015625;-0.722412109375;-0.07464599609375;12.908881542858259;13.297264937779861;1.2400602978145923;-0.892578125;0.751953125;-0.1181640625;38.875;167.4375;73.5625;
1441975637199469;0.39080810546875;-0.5899658203125;-0.704345703125;-0.05682373046875;12.813383835865144;13.505312626849244;1.4487348932455695;-0.986328125;0.69775390625;-0.02099609375;40.125;173.75;57.625;
1441975637214470;0.402587890625;-0.60174560546875;-0.68865966796875;-0.04022216796875;12.70758774106412;13.673546051430648;1.6267674869021524;-0.96533203125;0.75537109375;-0.125;76.1875;160.0625;58.1875;
1441975637236472;0.40960693359375;-0.61053466796875;-0.6773681640625;-0.02667236328125;12.597536782959992;13.787167683893346;1.7491972867109435;-0.95166015625;0.78662109375;-0.1044921875;58.875;141.875;53.375;
1441975637259473;0.41375732421875;-0.61956787109375;-0.6668701171875;-0.01629638671875;12.489085001856406;13.885607585126236;1.838261177878504;-1.05615234375;0.61865234375;0.06005859375;42.6875;104.625;55.375;
1441975637274474;0.416015625;-0.6285400390625;-0.6572265625;-0.001708984375;12.329410108401158;13.968793068949259;1.9264838899341168;-0.89501953125;0.587890625;0.02587890625;53.125;86.25;72.75;
1441975637304475;0.40576171875;-0.641845703125;-0.65069580078125;0.006103515625;12.134522923600098;14.016543369965145;1.9127256367227985;-0.806640625;0.64208984375;0.05029296875;43.0625;93.9375;90.25;
1441975637319476;0.38848876953125;-0.647216796875;-0.65594482421875;0.001220703125;12.053300012531333;13.966151964159993;1.7924176435628887;-0.919921875;0.95703125;0.14990234375;59.6875;8.75;102.5625;
1441975637334477;0.36895751953125;-0.65863037109375;-0.6558837890625;-0.00103759765625;11.90321799411454;13.95977493031889;1.6829250224419057;-0.5126953125;0.4658203125;0.48779296875;44.3125;-72.0625;72.25;
1441975637358479;0.34716796875;-0.681396484375;-0.64434814453125;-0.00579833984375;11.70826655802894;14.049062888633866;1.5765774746336718;-0.2861328125;0.7236328125;0.2724609375;71.4375;-69.3125;82.3125;
1441975637379480;0.320556640625;-0.69683837890625;-0.64166259765625;-7.32421875E-4;11.435377660305289;14.058863546209722;1.4648012502816836;-0.181640625;1.1171875;0.271484375;146.8125;-72.375;106.375;
1441975637394481;0.28851318359375;-0.7091064453125;-0.643310546875;0.00921630859375;11.098567923350968;14.031210157320618;1.340199384244302;-0.17236328125;1.32568359375;0.06640625;63.3125;-71.3125;146.6875;
1441975637416482;0.2552490234375;-0.720458984375;-0.64453125;0.0213623046875;10.735094849917685;14.00784865880378;1.223257396926381;0.00927734375;1.11279296875;0.0966796875;25.5;-80.4375;180.125;
1441975637439483;0.22198486328125;-0.72576904296875;-0.64996337890625;0.03985595703125;10.333817185815485;13.94926503727219;1.1302493348559337;0.10791015625;1.00244140625;-0.09326171875;16.5625;-76.6875;192.0;
1441975637454484;0.18914794921875;-0.7269287109375;-0.6575927734375;0.0582275390625;9.944534265065172;13.873899528389128;1.0439593579583897;0.1240234375;0.7958984375;-0.10302734375;-33.625;-56.125;207.4375;
1441975637480486;0.15679931640625;-0.732177734375;-0.658935546875;0.07171630859375;9.58325886339573;13.850265136709186;0.950721791349877;0.11865234375;0.60693359375;0.06884765625;-55.8125;-56.0625;201.125;
1441975637499487;0.1258544921875;-0.73516845703125;-0.660888671875;0.08355712890625;9.24926681215793;13.823420423889448;0.8601326451157382;0.03564453125;0.59814453125;-0.048828125;-10.8125;-68.875;189.3125;
1441975637515488;0.09600830078125;-0.7354736328125;-0.66436767578125;0.092529296875;8.951095359883755;13.787500107760007;0.7658440609488214;-0.01025390625;0.63916015625;-0.13037109375;-21.5;-70.4375;176.25;
1441975637536489;0.06878662109375;-0.73394775390625;-0.66851806640625;0.0989990234375;8.694220903343187;13.748994763123754;0.6755722712598371;-0.05419921875;0.57470703125;-0.1103515625;-34.9375;-78.0;159.0625;
1441975637559490;0.0452880859375;-0.73199462890625;-0.67218017578125;0.10174560546875;8.494758962835801;13.717878264812393;0.5881588296633488;-0.06494140625;0.41064453125;-0.11181640625;-42.9375;-77.6875;137.875;
1441975637575491;0.02679443359375;-0.73193359375;-0.673583984375;0.099365234375;8.372173577463265;13.710157486198476;0.5013831961018861;-0.0634765625;0.4169921875;-0.0986328125;-38.4375;-78.5625;108.125;
1441975637596492;0.01287841796875;-0.73193359375;-0.67462158203125;0.09521484375;8.29926372596022;13.707152669269325;0.4267633885922966;-0.04638671875;0.34521484375;-0.07421875;-19.75;-80.75;73.4375;
1441975637619493;0.0048828125;-0.73272705078125;-0.675048828125;0.0865478515625;8.309472128677184;13.712944031940804;0.358742931101646;-0.01513671875;0.36328125;-0.064453125;-14.3125;-70.8125;45.6875;
1441975637643495;0.00347900390625;-0.73382568359375;-0.6754150390625;0.07373046875;8.4059407980918;13.721656051591886;0.30209155508936686;-0.0224609375;0.38525390625;-0.0517578125;-4.0625;-67.0;4.75;
1441975637656496;0.00714111328125;-0.73468017578125;-0.676025390625;0.0574951171875;8.570930545627359;13.728576529339525;0.25376923486252584;-0.0654296875;0.345703125;-0.06689453125;-0.5625;-59.0625;-37.3125;
1441975637679497;0.0135498046875;-0.73431396484375;-0.67767333984375;0.03814697265625;8.784199567771662;13.725843071073374;0.20542629003783722;-0.1572265625;0.3056640625;-0.0712890625;-0.875;-53.25;-65.875;
1441975637695498;0.02130126953125;-0.7335205078125;-0.67919921875;0.01702880859375;9.022650370219669;13.720510915009315;0.15585353647353123;-0.2021484375;0.3701171875;-0.037109375;-5.875;-55.4375;-87.5625;
1441975637724499;0.0323486328125;-0.7298583984375;-0.682861328125;-0.00811767578125;9.32115557050286;13.69344317823128;0.10368897773304905;-0.19140625;0.49169921875;-0.10693359375;-7.75;-58.1875;-111.8125;
1441975637739500;0.047119140625;-0.7259521484375;-0.6851806640625;-0.03717041015625;9.68071877829409;13.668495749115431;0.05041782453007639;-0.20068359375;0.50537109375;-0.076171875;-26.0;-62.75;-142.375;
1441975637761502;0.06634521484375;-0.72430419921875;-0.682861328125;-0.06927490234375;10.100759138608463;13.669116014563906;0.004371180102478507;-0.22998046875;0.4853515625;-0.05322265625;-20.6875;-64.375;-173.125;
1441975637776502;0.08990478515625;-0.72283935546875;-0.67694091796875;-0.10595703125;10.595516240188699;13.68217545995557;17.9598366999172;-0.2802734375;0.509765625;-0.0771484375;6.8125;-57.75;-203.9375;
1441975637799504;0.11724853515625;-0.71881103515625;-0.6690673828125;-0.1483154296875;11.172082023113235;13.687572103938598;17.90776665155212;-0.392578125;0.68115234375;-0.13623046875;21.8125;-58.5625;-241.5;
1441975637821505;0.14849853515625;-0.7103271484375;-0.66156005859375;-0.18914794921875;11.772119888403987;13.672190314259005;17.872779778369296;-0.529296875;0.66943359375;-0.09130859375;21.1875;-67.9375;-280.5;
1441975637836506;0.18096923828125;-0.70001220703125;-0.65264892578125;-0.22662353515625;12.360438455225111;13.656424597210393;17.853936291950646;-0.77099609375;0.51806640625;-0.080078125;-1.25;-50.5;-290.25;
1441975637859507;0.21099853515625;-0.6895751953125;-0.64117431640625;-0.2625732421875;12.924581909430989;13.647965601773972;17.830819880144197;-1.0078125;0.44970703125;-0.060546875;-6.9375;-33.0;-282.6875;
1441975637881508;0.24029541015625;-0.67486572265625;-0.62884521484375;-0.3023681640625;13.525864145017472;13.607107560334459;17.772060328192783;-1.17431640625;0.4697265625;-0.10986328125;4.125;-33.6875;-270.5;
1441975637896509;0.269775390625;-0.65399169921875;-0.61669921875;-0.34539794921875;14.166851293278205;13.50400078423657;17.66135466122107;-1.20556640625;0.4443359375;-0.1220703125;-2.875;-57.875;-289.375;
1441975637919511;0.298583984375;-0.63238525390625;-0.60247802734375;-0.384765625;14.781648304300152;13.381859475189017;17.535531936119764;-1.42138671875;0.228515625;0.0224609375;-20.0;-79.4375;-307.25;
1441975637935512;0.32672119140625;-0.61181640625;-0.5858154296875;-0.41937255859375;15.361755447036806;13.254828149607437;17.40550655979978;-1.46044921875;0.1435546875;0.029296875;-19.1875;-66.6875;-297.625;
1441975637956513;0.353271484375;-0.5908203125;-0.56854248046875;-0.4505615234375;15.906614189837704;13.07856700641798;17.230039237991882;-1.4755859375;0.0859375;-0.00732421875;-13.5;-46.1875;-283.6875;
1441975637979514;0.376708984375;-0.57049560546875;-0.54937744140625;-0.48052978515625;16.417424854865363;12.80684141545417;16.945254912798056;-1.564453125;-0.05615234375;0.03515625;-15.375;-39.3125;-268.5625;
1441975638003515;0.395751953125;-0.55230712890625;-0.5269775390625;-0.5106201171875;16.882622416686146;12.333120037630229;16.429252076743925;-1.61328125;-0.119140625;0.08203125;-0.6875;-39.125;-258.25;
1441975638016516;0.4117431640625;-0.53564453125;-0.50347900390625;-0.53863525390625;17.25578531131421;11.385186103871405;15.4280874039911;-1.609375;-0.0693359375;0.0791015625;28.875;-41.0625;-252.0;
1441975638039518;0.4276123046875;-0.517578125;-0.48248291015625;-0.56256103515625;17.424843137725606;9.526927544049453;13.538583215133048;-1.67822265625;0.05615234375;-0.01708984375;40.4375;-38.875;-240.0625;
1441975638061519;0.44122314453125;-0.5008544921875;-0.461181640625;-0.58465576171875;17.301561668970976;7.682944186031272;11.656681693974472;-1.7626953125;-0.0068359375;-0.048828125;19.5625;-37.75;-224.875;
1441975638076520;0.45111083984375;-0.48638916015625;-0.43768310546875;-0.60699462890625;17.01554514053971;6.726998861644924;10.637709007119556;-1.74462890625;0.01953125;-0.0166015625;27.0;-33.375;-213.1875;
1441975638099521;0.45904541015625;-0.47161865234375;-0.4132080078125;-0.62939453125;16.66571082020859;6.270649729702759;10.10937464371779;-1.66943359375;0.10400390625;-0.0302734375;52.4375;-31.0;-208.3125;
1441975638121522;0.467529296875;-0.45416259765625;-0.390625;-0.65008544921875;16.288227715461776;6.035832895044386;9.821050377332295;-1.64404296875;0.1767578125;-0.095703125;61.0625;-35.9375;-210.1875;
1441975638138523;0.4761962890625;-0.43572998046875;-0.36895751953125;-0.6688232421875;15.909486400843447;5.89363899715609;9.635796039405697;-1.5712890625;0.1640625;-0.03955078125;43.1875;-44.25;-209.1875;
1441975638160524;0.48370361328125;-0.41741943359375;-0.346923828125;-0.6866455078125;15.534180680660382;5.805589623200023;9.501134541421974;-1.44921875;0.1005859375;-0.017578125;33.0625;-44.375;-204.25;
1441975638189526;0.48931884765625;-0.4002685546875;-0.32501220703125;-0.70343017578125;15.177626616085625;5.756133677141192;9.398198694656799;-1.33984375;0.02001953125;-0.015625;35.9375;-43.375;-199.9375;
1441975638196526;0.4940185546875;-0.383544921875;-0.30364990234375;-0.71881103515625;14.836037812338791;5.726093822703538;9.315056301526289;-1.2421875;-9.765625E-4;0.02978515625;42.25;-39.5;-189.9375;
1441975638219528;0.49853515625;-0.36669921875;-0.28326416015625;-0.73272705078125;14.50553768229566;5.7061254627012525;9.247779350240053;-1.0908203125;0.02294921875;0.03515625;41.875;-37.375;-181.875;
1441975638241529;0.50238037109375;-0.3497314453125;-0.263427734375;-0.74560546875;14.183083874422207;5.696252752233896;9.192196516962468;-1.04736328125;-0.017578125;0.06640625;35.5625;-37.75;-175.125;
1441975638256530;0.50457763671875;-0.333251953125;-0.2447509765625;-0.7579345703125;13.877614145831265;5.703167989417022;9.1509452469398;-0.97998046875;-0.0810546875;0.091796875;34.125;-38.4375;-169.375;
1441975638279531;0.507080078125;-0.318359375;-0.22705078125;-0.76812744140625;13.599734738317018;5.702333654589645;9.106993087035676;-0.88720703125;-0.13330078125;0.0947265625;38.1875;-40.5625;-157.875;
1441975638301533;0.50921630859375;-0.304443359375;-0.2105712890625;-0.7769775390625;13.343484674431116;5.702965364013975;9.067716371457342;-0.76611328125;-0.12353515625;0.08984375;31.125;-32.25;-146.0625;
1441975638316533;0.50982666015625;-0.29144287109375;-0.1949462890625;-0.78558349609375;13.104700933494236;5.7147029339678665;9.034653182707027;-0.67578125;-0.12548828125;0.1083984375;27.6875;-28.8125;-134.4375;
1441975638339535;0.5086669921875;-0.2791748046875;-0.18017578125;-0.7943115234375;12.881116014215518;5.739373348115192;9.008151611879562;-0.6513671875;-0.166015625;0.109375;33.5;-28.9375;-125.0625;
1441975638361536;0.50787353515625;-0.26806640625;-0.16668701171875;-0.801513671875;12.680026597019173;5.757938855678404;8.981811390689796;-0.5986328125;-0.1494140625;0.12451171875;40.875;-29.9375;-115.6875;
1441975638376537;0.50836181640625;-0.2598876953125;-0.1561279296875;-0.8060302734375;12.528710765005757;5.7620393346521;8.955967072285814;-0.4765625;-0.1025390625;0.107421875;34.0625;-25.125;-105.0;
1441975638399538;0.50799560546875;-0.25323486328125;-0.1470947265625;-0.81005859375;12.403549225634961;5.770699707196413;8.934403350623619;-0.4052734375;-0.14892578125;0.11328125;16.8125;-18.625;-92.375;
1441975638421539;0.5062255859375;-0.248046875;-0.1390380859375;-0.814208984375;12.300149228376794;5.787895599768138;8.915540031211046;-0.375;-0.14306640625;0.12451171875;18.1875;-15.0;-78.0;
1441975638436540;0.5052490234375;-0.2431640625;-0.13214111328125;-0.81744384765625;12.207515725526754;5.799193247589678;8.899640199178835;-0.31982421875;-0.08056640625;0.1103515625;23.875;-12.1875;-67.1875;
1441975638459542;0.50579833984375;-0.23974609375;-0.12750244140625;-0.81884765625;12.143770048876817;5.79778591340123;8.886771578100797;-0.24267578125;-0.05322265625;0.07421875;17.125;-11.5625;-58.3125;
1441975638481543;0.50628662109375;-0.238525390625;-0.125;-0.81927490234375;12.115653428428455;5.794249901086564;8.87709083667994;-0.2109375;-0.0595703125;0.087890625;2.1875;-6.3125;-42.5;
1441975638498544;0.5067138671875;-0.2393798828125;-0.1243896484375;-0.81884765625;12.120270767208158;5.788642457322288;8.869734080206587;-0.20947265625;-0.015625;0.06640625;-1.75;-1.75;-27.0625;
1441975638519545;0.50750732421875;-0.24267578125;-0.126220703125;-0.81707763671875;12.164699478609794;5.777232068557755;8.865156449847328;-0.2373046875;0.00927734375;0.056640625;-5.3125;2.375;-13.4375;
1441975638541546;0.508056640625;-0.24774169921875;-0.13031005859375;-0.8145751953125;12.24125954699835;5.765871522224157;8.866118445902897;-0.26171875;0.033203125;0.02587890625;-11.1875;7.5625;3.3125;
1441975638564548;0.505615234375;-0.2562255859375;-0.1361083984375;-0.81256103515625;12.364123936654199;5.771356448809148;8.869512116436496;-0.26611328125;-0.0478515625;0.0107421875;-11.3125;9.5;22.5;
1441975638579548;0.5003662109375;-0.2681884765625;-0.14410400390625;-0.810546875;12.537623089769603;5.792231748035048;8.877773205928973;-0.28173828125;-0.029296875;0.0;4.4375;16.75;43.375;
1441975638608550;0.49322509765625;-0.2835693359375;-0.15447998046875;-0.8077392578125;12.76251937561838;5.8218879431025155;8.890853174821805;-0.3173828125;0.06884765625;-0.0283203125;15.75;22.5;62.125;
1441975638619551;0.486328125;-0.298828125;-0.166015625;-0.80413818359375;12.994606338905776;5.8513851226958975;8.911582528288132;-0.4716796875;0.10693359375;-0.076171875;23.125;25.625;77.875;
1441975638639552;0.48095703125;-0.31622314453125;-0.1805419921875;-0.797607421875;13.269136299314246;5.866363581272902;8.936952395779048;-0.61669921875;0.19873046875;-0.09423828125;16.5625;32.8125;101.3125;
1441975638663553;0.47540283203125;-0.33697509765625;-0.19775390625;-0.78826904296875;13.599297372491003;5.875489062857178;8.964409275453944;-0.70849609375;0.2138671875;-0.09326171875;-1.875;40.8125;120.4375;
1441975638678554;0.4654541015625;-0.36309814453125;-0.21710205078125;-0.7774658203125;14.005293669846042;5.90828374369227;8.998071810965287;-0.83251953125;0.21337890625;-0.12451171875;-10.0625;52.3125;144.125;
1441975638699555;0.45751953125;-0.39111328125;-0.24127197265625;-0.76129150390625;14.470797944845868;5.923804804927592;9.046969795712505;-1.05322265625;0.462890625;-0.26513671875;8.125;65.6875;173.75;
1441975638721557;0.44818115234375;-0.421142578125;-0.26873779296875;-0.7413330078125;14.991482323142206;5.953484745410132;9.119770533105232;-1.34765625;0.3974609375;-0.35791015625;-21.9375;72.6875;201.5;
1441975638738557;0.43389892578125;-0.45550537109375;-0.29656982421875;-0.71856689453125;15.577530572527333;6.027252963956176;9.216103099213257;-1.67138671875;0.35595703125;-0.2412109375;-31.125;80.0;229.4375;
1441975638759559;0.41937255859375;-0.489990234375;-0.32904052734375;-0.6898193359375;16.215937534319266;6.1642896585508575;9.403192628112828;-1.94189453125;0.4814453125;-0.150390625;-13.0;98.1875;256.5625;
1441975638783560;0.3990478515625;-0.52642822265625;-0.36480712890625;-0.65625;16.910522011367945;6.618373149172653;9.904088794384307;-2.19970703125;0.283203125;-0.140625;-37.8125;103.0;292.1875;
1441975638798561;0.36920166015625;-0.5667724609375;-0.3992919921875;-0.61895751953125;17.511767188872007;8.851003913736912;12.145806198847168;-2.51904296875;0.0634765625;-0.04931640625;-32.3125;114.125;350.0625;
1441975638819562;0.34185791015625;-0.60198974609375;-0.440673828125;-0.57147216796875;17.161260132374036;12.67323810723264;16.043001285143845;-2.7431640625;0.275390625;-0.1064453125;7.25;123.1875;390.8125;
1441975638841563;0.30816650390625;-0.63323974609375;-0.48095703125;-0.52227783203125;16.33021188140641;13.41888673598545;16.851873219022004;-2.92236328125;0.28173828125;-0.0654296875;-57.3125;129.4375;419.5625;
1441975638858564;0.25933837890625;-0.67266845703125;-0.50506591796875;-0.474609375;15.421056781860878;13.75973021476757;17.127189174393354;-2.91845703125;-0.22607421875;0.1494140625;-46.4375;108.3125;435.125;
1441975638879566;0.2113037109375;-0.70770263671875;-0.522705078125;-0.42584228515625;14.544615687525244;13.961246420049843;17.25368905493157;-2.63330078125;0.27001953125;-0.09765625;83.3125;114.0;451.75;
1441975638901567;0.1827392578125;-0.72021484375;-0.55645751953125;-0.3719482421875;13.765220620456166;13.94450676089526;17.35359578197112;-2.5361328125;1.0615234375;-0.3125;92.0625;118.5625;427.375;
1441975638918568;0.172119140625;-0.71429443359375;-0.602783203125;-0.31121826171875;13.069815920173797;13.801461591515835;17.509019764795948;-2.61669921875;1.18310546875;0.05322265625;-95.25;122.9375;375.625;
1441975638946569;0.17059326171875;-0.69525146484375;-0.6492919921875;-0.257080078125;12.53742815491208;13.587155629738513;17.659751243359537;-2.29736328125;0.6767578125;0.17626953125;-252.0;156.0625;330.9375;
1441975638961570;0.16387939453125;-0.6710205078125;-0.69097900390625;-0.21337890625;12.08493524985854;13.346921590796885;17.74961498259412;-2.4296875;0.296875;-0.05712890625;-307.625;136.625;258.125;
1441975638978571;0.1461181640625;-0.65667724609375;-0.717529296875;-0.1807861328125;11.655626118536118;13.195343255470611;17.783527922316217;-2.4306640625;-0.849609375;-0.33740234375;-289.5625;72.75;227.25;
