1441975177976203;-0.9041748046875;-0.08447265625;-0.3302001953125;-0.25762939453125;5.63889739157082;16.060940286413356;10.140531604819019;1.67138671875;-0.33935546875;-0.33837890625;418.375;59.4375;-182.0625;
1441975177999205;-0.91888427734375;-0.13861083984375;-0.3233642578125;-0.17889404296875;5.700231070742193;16.503906070738086;10.310362253639372;1.46337890625;0.15380859375;-0.5625;520.3125;56.9375;-169.125;
1441975178013206;-0.92498779296875;-0.1832275390625;-0.31512451171875;-0.10797119140625;5.7089236015956235;16.89745534171511;10.449818825900916;1.1064453125;0.76611328125;-0.62109375;542.75;46.8125;-136.625;
1441975178036207;-0.9248046875;-0.21270751953125;-0.308837890625;-0.0654296875;5.7091276640450435;17.125332627421706;10.555468103233872;0.88720703125;1.064453125;-0.55908203125;481.625;40.3125;-103.125;
1441975178059208;-0.91986083984375;-0.2252197265625;-0.31463623046875;-0.06488037109375;5.666192453817041;17.089532730327615;10.650495475893335;0.794921875;1.5654296875;-0.33154296875;305.6875;20.9375;-72.8125;
1441975178074209;-0.91668701171875;-0.2210693359375;-0.3238525390625;-0.07757568359375;5.598596452505104;16.993053074484553;10.666757005227229;0.81005859375;1.16064453125;-0.39013671875;74.0;13.875;-39.75;
1441975178096210;-0.9146728515625;-0.2125244140625;-0.3326416015625;-0.08734130859375;5.5155508888701785;16.923667986787528;10.649445426551276;0.88720703125;0.24267578125;-0.37158203125;-81.9375;2.4375;-9.25;
1441975178119212;-0.91265869140625;-0.2095947265625;-0.34039306640625;-0.0859375;5.418103768852719;16.916150986782117;10.647446719777708;0.77001953125;-0.11279296875;-0.3115234375;-91.5625;4.5625;7.6875;
1441975178133212;-0.9102783203125;-0.21392822265625;-0.34619140625;-0.076416015625;5.3306781486556405;16.950510141740068;10.674068056433464;0.75439453125;-0.10693359375;-0.3505859375;-22.0625;19.5;-0.5;
1441975178157214;-0.90765380859375;-0.22100830078125;-0.34979248046875;-0.07110595703125;5.287930318094093;16.958011751990565;10.72181281739271;0.755859375;-0.0205078125;-0.41064453125;40.5625;25.9375;-20.1875;
1441975178187215;-0.9051513671875;-0.225341796875;-0.35333251953125;-0.071533203125;5.259995784682089;16.934400825929586;10.762397469329542;0.669921875;0.1787109375;-0.5478515625;34.875;21.8125;-33.875;
1441975178202216;-0.90264892578125;-0.22833251953125;-0.3575439453125;-0.07269287109375;5.224712369429594;16.906583841654438;10.797480194229404;0.67578125;0.107421875;-0.56494140625;-5.1875;13.625;-34.4375;
1441975178216217;-0.8994140625;-0.232421875;-0.36334228515625;-0.0712890625;5.16538083156402;16.886909729314542;10.840277682070296;0.75634765625;0.13134765625;-0.5859375;-11.9375;12.8125;-29.25;
1441975178240219;-0.8958740234375;-0.238525390625;-0.3687744140625;-0.0677490234375;5.106873207805173;16.876581596114605;10.892480439431885;0.8134765625;0.26025390625;-0.5615234375;8.375;23.1875;-25.6875;
1441975178253219;-0.892333984375;-0.24407958984375;-0.373779296875;-0.067626953125;5.065535345002401;16.846180592909306;10.947215163857894;0.77685546875;0.275390625;-0.56884765625;24.0625;28.0625;-31.0;
1441975178294222;-0.88885498046875;-0.2459716796875;-0.3804931640625;-0.0692138671875;5.003846831867389;16.806424802546875;10.986326022946935;0.7080078125;0.275390625;-0.5302734375;6.5625;23.9375;-33.6875;
1441975178299222;-0.8846435546875;-0.24688720703125;-0.3892822265625;-0.07073974609375;4.9174138387662865;16.760217564958793;11.027027240892188;0.744140625;0.11962890625;-0.5390625;-20.6875;28.0;-26.3125;
1441975178322223;-0.87969970703125;-0.24920654296875;-0.3990478515625;-0.06982421875;4.814689411321085;16.720563343409403;11.077969393568452;0.81982421875;0.18310546875;-0.4853515625;-22.0625;34.625;-20.375;
1441975178336224;-0.87359619140625;-0.2537841796875;-0.40966796875;-0.06829833984375;4.707381870281842;16.67271762821157;11.149752005401927;0.90234375;0.1796875;-0.521484375;-9.375;44.375;-24.625;
1441975178359225;-0.867431640625;-0.25775146484375;-0.42034912109375;-0.0673828125;4.6017573276040356;16.619148992808405;11.221746802182299;0.9013671875;0.28662109375;-0.53125;1.125;55.5;-31.125;
1441975178373226;-0.861328125;-0.25994873046875;-0.4317626953125;-0.06524658203125;4.478453408342964;16.5717916921531;11.284484937433286;0.826171875;0.314453125;-0.572265625;-3.375;61.6875;-26.375;
1441975178396227;-0.8543701171875;-0.26361083984375;-0.4439697265625;-0.059814453125;4.336435704686016;16.534003813186736;11.358071332712893;0.8828125;0.24658203125;-0.578125;-6.4375;66.0;-18.9375;
1441975178418229;-0.84600830078125;-0.2703857421875;-0.45684814453125;-0.05035400390625;4.178058527128083;16.504553860985798;11.454035477511951;0.9638671875;0.2412109375;-0.5126953125;12.8125;72.125;-20.9375;
1441975178436230;-0.836181640625;-0.280517578125;-0.46978759765625;-0.03887939453125;4.020275090866769;16.470149489273137;11.57811602147184;1.048828125;0.2578125;-0.47265625;40.5625;83.25;-28.6875;
1441975178456231;-0.826171875;-0.29241943359375;-0.48095703125;-0.02642822265625;3.881424611384821;16.438800434425247;11.711421927896351;1.0546875;0.3564453125;-0.53515625;60.6875;96.625;-35.75;
1441975178479232;-0.81561279296875;-0.30255126953125;-0.49298095703125;-0.017578125;3.7491214885833988;16.375429293454317;11.853122626555109;0.9638671875;0.3515625;-0.5732421875;71.5;101.6875;-38.0625;
1441975178493233;-0.80487060546875;-0.30853271484375;-0.50689697265625;-0.01470947265625;3.621951926167439;16.264801581879418;11.997729304306727;0.8994140625;0.55810546875;-0.60009765625;49.75;102.5625;-36.8125;
1441975178524235;-0.79388427734375;-0.3109130859375;-0.52239990234375;-0.01568603515625;3.4951095919966533;16.118824791920723;12.145331340152907;0.955078125;0.5693359375;-0.5478515625;6.4375;100.5625;-34.8125;
1441975178539236;-0.78240966796875;-0.3125;-0.53851318359375;-0.016845703125;3.3688761758374537;15.956899066597444;12.304724609902708;1.0341796875;0.4814453125;-0.49658203125;-25.0;100.6875;-31.4375;
1441975178554236;-0.770263671875;-0.316650390625;-0.553466796875;-0.01605224609375;3.261271775905052;15.794160100081122;12.485238802002433;1.140625;0.36083984375;-0.48291015625;-30.75;104.5625;-31.3125;
1441975178576238;-0.75750732421875;-0.32391357421875;-0.56671142578125;-0.01275634765625;3.1760088221100053;15.638201429111707;12.684113541623248;1.15283203125;0.27001953125;-0.4619140625;-12.875;105.4375;-40.0625;
1441975178599239;-0.7451171875;-0.32940673828125;-0.57989501953125;-0.0111083984375;3.1044520749595064;15.469552386032788;12.881228713484543;1.07373046875;0.27880859375;-0.54052734375;10.375;106.8125;-46.5625;
1441975178613240;-0.734375;-0.33050537109375;-0.5927734375;-0.013916015625;3.053276559075033;15.288302620835694;13.053404931854056;1.00830078125;0.48291015625;-0.5615234375;-1.4375;103.3125;-40.375;
1441975178636241;-0.72442626953125;-0.32867431640625;-0.60577392578125;-0.01788330078125;3.0022024922085984;15.10253416143658;13.212546727861154;1.0654296875;0.52685546875;-0.515625;-37.1875;94.5625;-32.625;
1441975178658242;-0.714599609375;-0.32708740234375;-0.6181640625;-0.01947021484375;2.946961428755671;14.927352315588024;13.372339322449392;1.1376953125;0.4306640625;-0.458984375;-54.1875;87.875;-31.3125;
1441975178682244;-0.70562744140625;-0.32647705078125;-0.628662109375;-0.0203857421875;2.909922277639697;14.771549224818918;13.520483334410477;1.14990234375;0.30908203125;-0.4375;-44.9375;89.875;-32.1875;
1441975178696245;-0.697998046875;-0.32391357421875;-0.63824462890625;-0.02520751953125;2.900727368602997;14.61565604523929;13.64442738242732;1.0205078125;0.275390625;-0.4990234375;-38.0625;88.8125;-31.0625;
1441975178721246;-0.6923828125;-0.31646728515625;-0.6475830078125;-0.0338134765625;2.8919152989215875;14.45998959314879;13.731151470617686;0.9287109375;0.43896484375;-0.501953125;-58.0;75.5;-22.5;
1441975178742247;-0.68798828125;-0.30792236328125;-0.6558837890625;-0.04205322265625;2.877720726599291;14.32160278989522;13.797475339576472;0.97216796875;0.3623046875;-0.4306640625;-89.5625;56.5625;-19.875;
1441975178756248;-0.68505859375;-0.30047607421875;-0.6619873046875;-0.0479736328125;2.8590165629280904;14.220246481441945;13.841436902106334;0.9833984375;0.2470703125;-0.30224609375;-88.0;41.5;-19.9375;
1441975178778249;-0.68328857421875;-0.2947998046875;-0.66607666015625;-0.05181884765625;2.8408820956909877;14.152533501008547;13.868255472744588;0.9482421875;0.158203125;-0.25048828125;-69.75;30.375;-17.75;
1441975178793250;-0.682861328125;-0.291015625;-0.66796875;-0.054443359375;2.83029960473251;14.120099808494748;13.873253175201521;0.89453125;0.15771484375;-0.203125;-49.5625;20.125;-13.875;
1441975178816251;-0.68389892578125;-0.288330078125;-0.6678466796875;-0.056884765625;2.8287372220541096;14.118912055848815;13.852682501753744;0.822265625;0.17041015625;-0.21728515625;-33.8125;10.75;-11.375;
1441975178839253;-0.68658447265625;-0.2861328125;-0.665771484375;-0.05963134765625;2.835482599651959;14.147636968312003;13.80316539631649;0.74072265625;0.16357421875;-0.1728515625;-23.625;-3.9375;-11.0625;
1441975178853254;-0.69085693359375;-0.2838134765625;-0.662109375;-0.06201171875;2.8407457335397006;14.203101525291448;13.72790899769233;0.6787109375;0.123046875;-0.1181640625;-17.875;-21.5;-12.5;
1441975178876255;-0.6968994140625;-0.28125;-0.6566162109375;-0.0643310546875;2.8483138524988694;14.287687804236507;13.622811035971193;0.7431640625;0.13330078125;-0.08056640625;-12.125;-36.75;-10.3125;
1441975178898256;-0.7042236328125;-0.27734375;-0.65020751953125;-0.067138671875;2.854648828178184;14.3866719177587;13.495509486196932;0.81689453125;0.14501953125;-0.107421875;-9.8125;-49.9375;-7.9375;
1441975178914257;-0.71282958984375;-0.27197265625;-0.6427001953125;-0.07012939453125;2.8591087936457966;14.50270999136933;13.34422189389798;0.82666015625;0.15234375;-0.10107421875;-14.375;-61.375;-2.5625;
1441975178936258;-0.7225341796875;-0.265380859375;-0.6341552734375;-0.0736083984375;2.868378337327394;14.63290579224582;13.171658322710554;0.81982421875;0.123046875;-0.0966796875;-18.375;-72.875;3.0625;
1441975178958260;-0.7330322265625;-0.25811767578125;-0.62469482421875;-0.07659912109375;2.8808335106038374;14.777501989515356;12.983986795998751;0.80029296875;0.09912109375;-0.09375;-22.625;-83.4375;7.3125;
1441975178975261;-0.74420166015625;-0.25042724609375;-0.6143798828125;-0.07830810546875;2.8943489075457705;14.938502493168146;12.783533014815607;0.7890625;0.11865234375;-0.0986328125;-21.0625;-90.6875;14.125;
1441975179004262;-0.755615234375;-0.24072265625;-0.6041259765625;-0.0791015625;2.898112381762882;15.10618521465197;12.57166162655996;0.79833984375;0.2158203125;-0.140625;-14.8125;-93.4375;27.75;
1441975179018263;-0.7669677734375;-0.22845458984375;-0.594482421875;-0.07904052734375;2.887130308927805;15.27763038630455;12.348662961733623;0.81494140625;0.29296875;-0.17578125;-17.5625;-93.4375;44.75;
1441975179034264;-0.778076171875;-0.2139892578125;-0.58563232421875;-0.0771484375;2.857188905574386;15.459754846910696;12.113259416877955;0.8466796875;0.36328125;-0.17626953125;-21.3125;-92.25;63.6875;
1441975179056265;-0.7886962890625;-0.19769287109375;-0.57757568359375;-0.07354736328125;2.8131005436151524;15.654369880733725;11.864819150889307;0.86328125;0.37353515625;-0.212890625;-22.0;-86.125;81.125;
1441975179080267;-0.7994384765625;-0.18017578125;-0.569091796875;-0.068115234375;2.7711532092820756;15.876705895105452;11.591409717831096;0.8203125;0.33056640625;-0.20947265625;-21.5625;-79.8125;95.0625;
1441975179094267;-0.80914306640625;-0.16229248046875;-0.5616455078125;-0.06024169921875;2.7222417256716374;16.114887667765;11.310875489329078;0.81103515625;0.2958984375;-0.19921875;-18.5625;-77.3125;105.625;
1441975179116269;-0.817138671875;-0.14422607421875;-0.55584716796875;-0.05108642578125;2.667215601654857;16.355156926608707;11.032927575817913;0.91259765625;0.3203125;-0.2236328125;-9.875;-66.875;115.25;
1441975179146270;-0.8231201171875;-0.12554931640625;-0.55230712890625;-0.04229736328125;2.603838518097721;16.583681644952414;10.762696046360661;1.02001953125;0.390625;-0.2548828125;-6.0625;-52.875;120.5;
1441975179156271;-0.82757568359375;-0.1070556640625;-0.550048828125;-0.03466796875;2.5457713442217806;16.79779924481868;10.502986535530528;1.03466796875;0.3837890625;-0.33837890625;-12.3125;-35.375;121.4375;
1441975179177272;-0.8309326171875;-0.090087890625;-0.54840087890625;-0.0284423828125;2.502308935000715;16.989975459433072;10.265921945219937;0.9423828125;0.34228515625;-0.263671875;-18.3125;-26.1875;116.5625;
1441975179209274;-0.83270263671875;-0.07342529296875;-0.54840087890625;-0.02490234375;2.4561223192304276;17.14669449940095;10.05452265111571;0.87890625;0.2822265625;-0.22412109375;-21.0625;-20.625;104.1875;
1441975179222275;-0.83392333984375;-0.0570068359375;-0.54864501953125;-0.02117919921875;2.414470748327405;17.30788780835183;9.840554259491856;0.861328125;0.1982421875;-0.1875;-30.8125;-18.375;96.625;
1441975179236275;-0.83428955078125;-0.04302978515625;-0.549560546875;-0.01544189453125;2.371992196732326;17.476860361858776;9.637347119866975;0.8779296875;0.12255859375;-0.1669921875;-31.5;-17.0625;92.625;
1441975179260277;-0.8336181640625;-0.0325927734375;-0.5513916015625;-0.00665283203125;2.3246880826946414;17.657817678426866;9.449479429195723;0.92333984375;0.11083984375;-0.14892578125;-14.125;-12.875;87.5625;
1441975179275278;-0.8319091796875;-0.02490234375;-0.55438232421875;0.00347900390625;2.2702186533748376;17.837936099294744;9.279348346223586;1.01123046875;0.16259765625;-0.18408203125;12.625;-3.9375;84.375;
1441975179296279;-0.82940673828125;-0.017822265625;-0.5582275390625;0.012939453125;2.211359013274593;0.011920174687465746;9.115074959740795;1.0615234375;0.25634765625;-0.2236328125;30.375;7.125;83.8125;
1441975179320280;-0.826416015625;-0.00970458984375;-0.56268310546875;0.0196533203125;2.151057851571653;0.16855335954597506;8.95252035974576;1.08544921875;0.333984375;-0.271484375;31.0625;16.6875;85.0;
1441975179336281;-0.82293701171875;8.544921875E-4;-0.5677490234375;0.022705078125;2.0879938388071775;0.308744729679657;8.781271515190157;1.1025390625;0.38720703125;-0.306640625;16.5;23.625;86.75;
1441975179356282;-0.81866455078125;0.0147705078125;-0.57373046875;0.0224609375;2.0177705576269336;0.4479794210750704;8.583665670807529;1.11669921875;0.41162109375;-0.3291015625;-7.9375;30.375;89.3125;
1441975179387284;-0.81365966796875;0.03411865234375;-0.57989501953125;0.02423095703125;1.9617736839392839;0.6804298849534165;8.278917695088184;1.12109375;0.40869140625;-0.32177734375;-34.375;38.625;95.1875;
1441975179395285;-0.80755615234375;0.05517578125;-0.58673095703125;0.0257568359375;1.9144914406891944;0.9459593367359501;7.9331666106808605;1.126953125;0.3857421875;-0.32275390625;-51.75;46.9375;104.0;
1441975179416286;-0.80029296875;0.07647705078125;-0.5941162109375;0.02734375;1.8788400813756871;1.2354807292862036;7.562715767463052;1.12109375;0.3603515625;-0.3310546875;-58.0;54.125;111.3125;
1441975179438287;-0.7919921875;0.0975341796875;-0.60205078125;0.0284423828125;1.8548598372078762;1.5358255454334178;7.180436302432688;1.08349609375;0.296875;-0.32763671875;-58.4375;61.3125;112.5;
1441975179455288;-0.78265380859375;0.11834716796875;-0.6104736328125;0.0291748046875;1.8450852934219373;1.8463574322803291;6.787399010586992;1.0234375;0.25634765625;-0.31787109375;-59.6875;67.875;109.8125;
1441975179476289;-0.77252197265625;0.13836669921875;-0.61907958984375;0.02978515625;1.8525083842482515;2.1578650210816375;6.395981065853683;0.9619140625;0.19970703125;-0.31689453125;-60.4375;74.75;107.3125;
1441975179498290;-0.76300048828125;0.15521240234375;-0.62689208984375;0.02850341796875;1.8607528471610024;2.412882258018517;6.066222992773699;0.92333984375;0.15380859375;-0.29296875;-58.0625;78.125;103.0;
1441975179516291;-0.75384521484375;0.17041015625;-0.634033203125;0.0279541015625;1.8861612460294694;2.650376738889519;5.763574357711302;0.86962890625;0.10791015625;-0.251953125;-51.4375;75.875;98.0;
1441975179544293;-0.74517822265625;0.18359375;-0.64056396484375;0.02716064453125;1.9153736553798022;2.858020175645249;5.497908234516324;0.82080078125;0.07080078125;-0.2119140625;-44.3125;70.3125;90.875;
1441975179558294;-0.73724365234375;0.19488525390625;-0.646484375;0.025390625;1.9395853597413233;3.0311822311385894;5.270473198580609;0.81787109375;0.05322265625;-0.18994140625;-39.125;65.0;80.9375;
1441975179581295;-0.73040771484375;0.20477294921875;-0.65130615234375;0.02178955078125;1.9538283007231216;3.1605030223061537;5.085106202454909;0.83642578125;0.04296875;-0.189453125;-36.9375;61.1875;68.6875;
1441975179612297;-0.72479248046875;0.2137451171875;-0.65484619140625;0.01629638671875;1.9576627102078514;3.247147986754747;4.938386876762817;0.849609375;0.041015625;-0.19775390625;-40.75;55.375;55.6875;
1441975179618297;-0.7203369140625;0.22198486328125;-0.6571044921875;0.009765625;1.9559227862799338;3.298996749448843;4.825147012838478;0.83056640625;0.03515625;-0.1708984375;-47.625;46.5;43.1875;
1441975179635298;-0.7169189453125;0.22918701171875;-0.658447265625;0.002197265625;1.9430513106771938;3.322322969595972;4.740518225058801;0.83642578125;0.01220703125;-0.16552734375;-50.875;38.1875;33.875;
1441975179656299;-0.71441650390625;0.2353515625;-0.658935546875;-0.0062255859375;1.9191692158859381;3.3205920206611785;4.681762500874408;0.87451171875;0.001953125;-0.18310546875;-52.6875;32.3125;24.125;
1441975179679301;-0.7127685546875;0.2406005859375;-0.65875244140625;-0.01519775390625;1.8865201555931725;3.2979473194212225;4.6455840871977045;0.85693359375;0.013671875;-0.21142578125;-52.5625;28.875;15.9375;
1441975179696302;-0.71197509765625;0.2451171875;-0.6575927734375;-0.02447509765625;1.849333240327562;3.2509053757907336;4.635494649920404;0.85888671875;0.01708984375;-0.2197265625;-51.9375;24.375;8.4375;
1441975179716303;-0.71197509765625;0.24920654296875;-0.6556396484375;-0.033935546875;1.81054689964345;3.1818966862423497;4.648413880582601;0.859375;-4.8828125E-4;-0.2314453125;-52.125;18.125;1.8125;
1441975179747305;-0.71240234375;0.25299072265625;-0.6531982421875;-0.04315185546875;1.7736995801535063;3.1004218231056346;4.676014173805269;0.859375;-0.01171875;-0.23876953125;-52.0;12.375;-3.4375;
1441975179756305;-0.71307373046875;0.25634765625;-0.6505126953125;-0.052001953125;1.7382493310490557;3.011790615836894;4.714002840193133;0.87548828125;-0.04541015625;-0.24560546875;-51.125;8.6875;-6.625;
1441975179776306;-0.7139892578125;0.259033203125;-0.647705078125;-0.06036376953125;1.7032488937165449;2.9174317099726155;4.762510661329046;0.8818359375;-0.06640625;-0.255859375;-48.25;6.5625;-9.6875;
1441975179798308;-0.7154541015625;0.26129150390625;-0.6444091796875;-0.06866455078125;1.669396058864415;2.80581641562289;4.830321237426864;0.869140625;-0.09423828125;-0.25634765625;-44.9375;4.1875;-13.5625;
1441975179821309;-0.7171630859375;0.26324462890625;-0.640869140625;-0.076171875;1.6425429171357435;2.6890133207727422;4.907725880489958;0.86865234375;-0.1044921875;-0.25048828125;-43.5;-0.1875;-17.4375;
1441975179836310;-0.7188720703125;0.264892578125;-0.637451171875;-0.08258056640625;1.623208568094375;2.5782473395856766;4.984810497641404;0.88427734375;-0.1279296875;-0.2734375;-39.6875;-2.3125;-18.0625;
1441975179860311;-0.720703125;0.2652587890625;-0.634521484375;-0.08758544921875;1.605277434109016;2.476526577608089;5.06412801116141;0.89794921875;-0.1845703125;-0.27587890625;-34.8125;-3.75;-19.625;
1441975179881312;-0.72296142578125;0.2637939453125;-0.63214111328125;-0.09075927734375;1.5884686411409896;2.382205327375919;5.1515584508549335;0.90380859375;-0.2177734375;-0.26025390625;-24.4375;-5.3125;-22.375;
1441975179896313;-0.7255859375;0.2608642578125;-0.63006591796875;-0.09234619140625;1.5744996357598806;2.2925432809531827;5.247102134797849;0.90771484375;-0.2314453125;-0.27099609375;-9.3125;-5.625;-24.875;
1441975179927315;-0.72845458984375;0.257080078125;-0.62823486328125;-0.09283447265625;1.56387166150294;2.207339294266196;5.346418698329684;0.89892578125;-0.23876953125;-0.27880859375;2.75;-7.3125;-26.75;
1441975179941316;-0.7313232421875;0.25299072265625;-0.626708984375;-0.0921630859375;1.5593329566997616;2.1348410804301956;5.439138153732447;0.9052734375;-0.2255859375;-0.28271484375;11.1875;-8.5;-26.0;
1441975179966317;-0.73443603515625;0.24859619140625;-0.625;-0.0908203125;1.5606277929672732;2.061773780990518;5.5363573132001;0.94775390625;-0.23681640625;-0.29736328125;17.3125;-8.75;-23.5625;
1441975179987318;-0.73797607421875;0.2437744140625;-0.62298583984375;-0.089111328125;1.566437745157645;1.98125808339886;5.644296116162275;1.0234375;-0.2490234375;-0.30029296875;21.0;-11.9375;-23.0625;
1441975180010320;-0.74169921875;0.23907470703125;-0.62066650390625;-0.087158203125;1.5787757281477075;1.8994483709214047;5.753900886029841;1.08251953125;-0.24560546875;-0.2939453125;23.125;-16.9375;-23.9375;
1441975180016320;-0.74530029296875;0.2344970703125;-0.618408203125;-0.08489990234375;1.5945622831891486;1.8256394759258654;5.856184463498198;1.09814453125;-0.2734375;-0.2734375;23.0;-21.5;-24.875;
1441975180039321;-0.74859619140625;0.23052978515625;-0.6162109375;-0.08233642578125;1.6154636781456966;1.7656691855632456;5.943199425902477;1.06494140625;-0.2822265625;-0.27783203125;23.375;-21.0625;-24.25;
1441975180061323;-0.7518310546875;0.22662353515625;-0.6141357421875;-0.07940673828125;1.638856275718777;1.7143037248603072;6.022898061468453;1.0146484375;-0.31787109375;-0.29248046875;21.8125;-19.0;-23.25;
1441975180076324;-0.7554931640625;0.22216796875;-0.61175537109375;-0.0755615234375;1.6694618060352688;1.6640616183957815;6.107454218414236;0.98876953125;-0.314453125;-0.2626953125;22.8125;-21.0;-21.9375;
1441975180107325;-0.75970458984375;0.216552734375;-0.6090087890625;-0.07147216796875;1.7011819367116492;1.6014374854548827;6.210198908665996;0.9765625;-0.31494140625;-0.2705078125;28.8125;-24.375;-22.0625;
1441975180124326;-0.7645263671875;0.20977783203125;-0.60577392578125;-0.06793212890625;1.7315316250378754;1.5162134181102211;6.338126667259844;1.01123046875;-0.275390625;-0.27490234375;33.8125;-28.5;-23.875;
1441975180136327;-0.76953125;0.20294189453125;-0.6021728515625;-0.06463623046875;1.76606701839206;1.4266200671093758;6.469573440228121;1.052734375;-0.18798828125;-0.294921875;36.5;-31.625;-25.9375;
1441975180158328;-0.77435302734375;0.1978759765625;-0.5977783203125;-0.06304931640625;1.8075652173318835;1.3298660263053785;6.593449291891837;1.05517578125;-0.12255859375;-0.37744140625;37.5625;-29.0;-23.375;
1441975180181330;-0.77899169921875;0.19482421875;-0.59271240234375;-0.06298828125;1.857231173377281;1.2321849478285813;6.703356101831983;1.00732421875;-0.10009765625;-0.38232421875;22.8125;-30.125;-21.0625;
1441975180197330;-0.7835693359375;0.19305419921875;-0.587158203125;-0.06341552734375;1.9157861220980479;1.141425950480648;6.79879600685965;0.9150390625;-0.123046875;-0.34521484375;7.125;-33.0625;-19.875;
1441975180218332;-0.7879638671875;0.19183349609375;-0.5816650390625;-0.0638427734375;1.9768831516929446;1.0621017596641082;6.880496552246829;0.85205078125;-0.1640625;-0.31884765625;-1.0625;-36.0625;-19.75;
1441975180250333;-0.79168701171875;0.1910400390625;-0.5767822265625;-0.0638427734375;2.0341412899946603;1.0034827761282368;6.941450076133369;0.828125;-0.15966796875;-0.35009765625;-2.625;-33.9375;-17.125;
1441975180265334;-0.7947998046875;0.1900634765625;-0.57293701171875;-0.06304931640625;2.0828582125102773;0.9653086806732045;6.986239468574408;0.84375;-0.1669921875;-0.3515625;-2.125;-30.3125;-13.375;
1441975180278335;-0.7979736328125;0.1884765625;-0.5692138671875;-0.0614013671875;2.1326209268774483;0.9347249639998494;7.029524151661224;0.87548828125;-0.17041015625;-0.328125;2.4375;-27.5;-10.75;
1441975180318337;-0.80133056640625;0.18658447265625;-0.56524658203125;-0.06011962890625;2.18324301554744;0.8971863195821526;7.079491734286454;0.8994140625;-0.15673828125;-0.34619140625;8.625;-27.625;-9.5625;
1441975180320337;-0.80450439453125;0.18499755859375;-0.56134033203125;-0.0595703125;2.230947499725728;0.8566748830263627;7.128146539114977;0.92236328125;-0.123046875;-0.36279296875;8.9375;-28.9375;-9.8125;
1441975180347339;-0.80755615234375;0.18359375;-0.55743408203125;-0.0595703125;2.2769744118275748;0.8136841387889132;7.176225260110423;0.93310546875;-0.1162109375;-0.36376953125;4.5625;-28.75;-10.75;
1441975180361340;-0.810302734375;0.182373046875;-0.5537109375;-0.06005859375;2.3189992931963346;0.7704225011258596;7.221760704439891;0.92919921875;-0.12939453125;-0.380859375;0.875;-26.75;-12.375;
1441975180379341;-0.81304931640625;0.18115234375;-0.550048828125;-0.0606689453125;2.3605707471795596;0.7276552868681424;7.266351955310008;0.91943359375;-0.140625;-0.376953125;-2.3125;-25.3125;-13.6875;
1441975180398342;-0.81561279296875;0.1800537109375;-0.54656982421875;-0.06121826171875;2.400566396299184;0.6893374927272791;7.306247526972742;0.88818359375;-0.13818359375;-0.38623046875;-3.0625;-24.0625;-14.25;
1441975180421343;-0.81781005859375;0.178955078125;-0.54351806640625;-0.0618896484375;2.434681402317377;0.6539738027855713;7.342737134605196;0.87158203125;-0.13330078125;-0.3955078125;-2.625;-22.0625;-13.3125;
1441975180437344;-0.81982421875;0.1773681640625;-0.541015625;-0.06195068359375;2.463875662270247;0.6256907626439482;7.376898026112758;0.8818359375;-0.13330078125;-0.3896484375;-3.3125;-19.9375;-13.125;
1441975180461346;-0.82171630859375;0.17486572265625;-0.53900146484375;-0.06121826171875;2.488384454254282;0.6028316801723209;7.412887118661414;0.88525390625;-0.13818359375;-0.38671875;1.125;-18.125;-14.0625;
1441975180490347;-0.823486328125;0.17169189453125;-0.5374755859375;-0.06024169921875;2.507041400652146;0.5809034454298005;7.451959637364619;0.87939453125;-0.14208984375;-0.3916015625;8.25;-15.875;-15.875;
1441975180497348;-0.824951171875;0.1683349609375;-0.53631591796875;-0.059326171875;2.5202274559528544;0.5597817378424828;7.490778597726802;0.8818359375;-0.12548828125;-0.39453125;12.1875;-13.0625;-16.9375;
1441975180526349;-0.8262939453125;0.16522216796875;-0.53533935546875;-0.0587158203125;2.530958794707803;0.5383077449510172;7.527750508590021;0.88720703125;-0.11083984375;-0.3935546875;13.125;-10.875;-16.5;
1441975180541350;-0.8275146484375;0.16229248046875;-0.5343017578125;-0.05859375;2.540795016888866;0.5131855570112511;7.565502151563545;0.90576171875;-0.1064453125;-0.408203125;11.0625;-9.125;-16.125;
1441975180559351;-0.8287353515625;0.159423828125;-0.5333251953125;-0.05889892578125;2.5492774628845565;0.4843244860692937;7.605035712220826;0.9189453125;-0.10986328125;-0.40576171875;7.875;-9.1875;-17.0;
1441975180578352;-0.83001708984375;0.156494140625;-0.5321044921875;-0.05938720703125;2.560083071036194;0.4523967986746503;7.647018541368177;0.9287109375;-0.1142578125;-0.38427734375;5.375;-10.625;-18.5625;
1441975180601354;-0.8314208984375;0.153564453125;-0.53070068359375;-0.06024169921875;2.5727388760521737;0.4160026304326766;7.691929844670992;0.93310546875;-0.12451171875;-0.38134765625;4.0;-12.0;-20.5625;
1441975180617354;-0.8328857421875;0.1507568359375;-0.52899169921875;-0.06134033203125;2.5887215546728073;0.3771852277896349;7.737608197481937;0.9326171875;-0.1279296875;-0.3779296875;1.6875;-13.4375;-22.125;
1441975180638356;-0.8345947265625;0.14794921875;-0.5269775390625;-0.0625;2.609381235327855;0.33689044442483757;7.784479344749411;0.93994140625;-0.12744140625;-0.3828125;0.0625;-15.0625;-23.0625;
1441975180661357;-0.8365478515625;0.14501953125;-0.52459716796875;-0.06378173828125;2.63500613846148;0.29377146051747516;7.834102972218977;0.921875;-0.1435546875;-0.384765625;-1.25;-16.875;-24.6875;
1441975180677358;-0.83856201171875;0.141845703125;-0.52203369140625;-0.06500244140625;2.663119235569778;0.25006498264104754;7.88550000861491;0.89990234375;-0.14697265625;-0.37939453125;-1.75;-19.0;-26.875;
1441975180698359;-0.84063720703125;0.13848876953125;-0.51947021484375;-0.06610107421875;2.69225706974401;0.20736132590427542;7.937198550438;0.8896484375;-0.13818359375;-0.38720703125;-1.0;-20.0625;-27.875;
1441975180729361;-0.8426513671875;0.1348876953125;-0.51702880859375;-0.0670166015625;2.7205715811298408;0.16637539521023045;7.988988983197299;0.87841796875;-0.1357421875;-0.39111328125;-0.1875;-19.75;-28.5;
1441975180746362;-0.844482421875;0.13104248046875;-0.514892578125;-0.06781005859375;2.745463325090225;0.1269002764473742;8.040866412616756;0.85986328125;-0.123046875;-0.39892578125;1.8125;-18.3125;-28.8125;
1441975180769363;-0.84613037109375;0.127197265625;-0.5130615234375;-0.06854248046875;2.7670848997102704;0.08963424705563569;8.09087287505498;0.8662109375;-0.09716796875;-0.40869140625;4.0625;-16.25;-27.75;
1441975180789364;-0.84759521484375;0.1234130859375;-0.511474609375;-0.06964111328125;2.7853680101846265;0.05021761413198031;8.141311656154462;0.876953125;-0.07080078125;-0.42578125;5.375;-13.75;-26.375;
1441975180797365;-0.8487548828125;0.12005615234375;-0.5101318359375;-0.0711669921875;2.7999010419449775;0.010264808101237262;8.188726055152438;0.8759765625;-0.03955078125;-0.43896484375;4.0;-11.375;-25.0625;
1441975180821366;-0.849609375;0.1173095703125;-0.50909423828125;-0.07305908203125;2.8102712833186745;17.971418257022727;8.230999724919808;0.865234375;-0.0283203125;-0.4296875;0.875;-9.375;-23.8125;
1441975180849368;-0.85003662109375;0.114990234375;-0.5086669921875;-0.07464599609375;2.813355938813741;17.939731059255266;8.26571626483937;0.84130859375;-0.02783203125;-0.41943359375;-2.3125;-6.9375;-22.0;
1441975180857368;-0.84991455078125;0.11279296875;-0.50909423828125;-0.0758056640625;2.8057804270971456;17.914644824350084;8.295270050523907;0.8486328125;-0.0322265625;-0.40771484375;-2.625;-3.9375;-18.9375;
1441975180878369;-0.8492431640625;0.1107177734375;-0.51068115234375;-0.07598876953125;2.784989263689384;17.901971388569628;8.316291402276487;0.8583984375;-0.01220703125;-0.40673828125;0.25;0.8125;-15.3125;
1441975180902371;-0.847900390625;0.10870361328125;-0.51336669921875;-0.0755615234375;2.750264188400467;17.89744663806196;8.33166632261075;0.88623046875;0.01416015625;-0.41064453125;5.875;6.9375;-9.75;
1441975180917372;-0.84588623046875;0.107177734375;-0.51708984375;-0.07525634765625;2.7015954447578845;17.896074941951433;8.341553440792095;0.94873046875;0.06298828125;-0.42822265625;10.4375;13.625;-3.6875;
1441975180938373;-0.84332275390625;0.1063232421875;-0.52142333984375;-0.07562255859375;2.6433892920800495;17.892710895302294;8.347908690154915;1.00927734375;0.10205078125;-0.45166015625;10.25;20.4375;1.3125;
1441975180962374;-0.84002685546875;0.10614013671875;-0.52667236328125;-0.07635498046875;2.5718868497651015;17.89120468868633;8.348224813628201;1.04638671875;0.1171875;-0.46240234375;5.6875;25.75;4.6875;
1441975180977375;-0.83612060546875;0.10638427734375;-0.53271484375;-0.07696533203125;2.489360601012877;17.895455453895536;8.341633222958079;1.04443359375;0.0849609375;-0.44970703125;0.75;32.125;5.4375;
1441975180998376;-0.83172607421875;0.106201171875;-0.53955078125;-0.0767822265625;2.396791498319526;17.907452015715634;8.332482294060393;0.9921875;0.04296875;-0.421875;-0.8125;38.625;5.75;
1441975181021378;-0.82708740234375;0.10504150390625;-0.54705810546875;-0.0753173828125;2.2970745195154985;17.92908162944945;8.323175958143178;0.94970703125;0.001953125;-0.3984375;3.3125;44.625;4.8125;
1441975181037378;-0.82244873046875;0.102294921875;-0.554931640625;-0.07220458984375;2.194658050474414;17.959867682357398;8.318101962427226;0.90087890625;-0.033203125;-0.3544921875;11.875;47.9375;2.125;
1441975181083381;-0.81793212890625;0.0980224609375;-0.56292724609375;-0.0673828125;2.0926890056437264;0.0010417795129937233;8.315899237161485;0.865234375;-0.03759765625;-0.32177734375;24.9375;49.3125;0.4375;
1441975181086381;-0.81353759765625;0.09228515625;-0.57086181640625;-0.0616455078125;1.9919492782947106;0.04256605932743359;8.322971171544472;0.853515625;-0.01806640625;-0.31689453125;38.8125;50.375;-0.125;
1441975181112383;-0.80926513671875;0.08544921875;-0.57861328125;-0.0556640625;1.8929552404691337;0.07762621495747112;8.341810996366217;0.85791015625;0.02099609375;-0.3125;48.375;50.3125;-1.1875;
1441975181135384;-0.80511474609375;0.0780029296875;-0.5859375;-0.04998779296875;1.797669363445204;0.10135201700751625;8.372949651565829;0.89111328125;0.06982421875;-0.30126953125;54.75;49.0625;-2.3125;
1441975181149385;-0.80126953125;0.07098388671875;-0.59246826171875;-0.0455322265625;1.710614538564124;0.10854687373982337;8.41357313543382;0.951171875;0.11181640625;-0.296875;56.125;46.375;-3.0;
1441975181157385;-0.797607421875;0.065185546875;-0.5982666015625;-0.04241943359375;1.631109139076663;0.10536280581694628;8.453827926945422;1.00634765625;0.15283203125;-0.3076171875;49.5;42.875;-2.75;
1441975181180387;-0.79412841796875;0.06097412109375;-0.60333251953125;-0.04058837890625;1.559587797106126;0.0970965467128628;8.487228885469515;1.0478515625;0.16162109375;-0.31103515625;38.5;39.5;-1.3125;
1441975181201388;-0.7911376953125;0.05804443359375;-0.607666015625;-0.03973388671875;1.498214641821566;0.08503597427242414;8.51510898816608;1.07421875;0.138671875;-0.298828125;26.9375;35.3125;-0.25;
1441975181217389;-0.7886962890625;0.05596923828125;-0.61102294921875;-0.03955078125;1.4495933011892361;0.0687829627358659;8.540822898252674;1.07861328125;0.11669921875;-0.28076171875;17.0625;30.0;0.0625;
1441975181241390;-0.78692626953125;0.054443359375;-0.61346435546875;-0.03973388671875;1.4140712371707587;0.04998328875634055;8.565277914408492;1.076171875;0.08447265625;-0.265625;10.125;23.1875;-0.75;
1441975181261391;-0.78564453125;0.052734375;-0.61517333984375;-0.0399169921875;1.388561969421833;0.025788972024903264;8.595802690005698;1.05908203125;0.0400390625;-0.25244140625;5.8125;16.5;-3.375;
1441975181283393;-0.78515625;0.05047607421875;-0.615966796875;-0.04010009765625;1.3767734320468699;17.99053263608348;8.639591124328145;1.04150390625;0.01611328125;-0.23193359375;5.8125;10.6875;-6.5;
1441975181301394;-0.78533935546875;0.0478515625;-0.615966796875;-0.0404052734375;1.3769714250560292;17.945674760031007;8.693941903557917;1.0439453125;0.01416015625;-0.24169921875;7.3125;5.0;-9.25;
1441975181321395;-0.78619384765625;0.04486083984375;-0.61505126953125;-0.04119873046875;1.3904002488993767;17.88556681976325;8.762984001313749;1.04443359375;0.0234375;-0.23974609375;8.125;-1.125;-11.9375;
1441975181346396;-0.7877197265625;0.04180908203125;-0.6131591796875;-0.04254150390625;1.4180490922796352;17.815691546782457;8.839731592918223;1.02392578125;0.03466796875;-0.2353515625;7.625;-7.4375;-14.9375;
1441975181376398;-0.78985595703125;0.03912353515625;-0.61053466796875;-0.04473876953125;1.4575377975650134;17.738968752822117;8.918325111683673;1.00439453125;0.05224609375;-0.24755859375;4.875;-13.3125;-17.0;
1441975181398399;-0.7923583984375;0.036865234375;-0.607177734375;-0.0474853515625;1.5072150883285003;17.66343069552529;8.991662640457145;0.9921875;0.0615234375;-0.2548828125;0.125;-18.4375;-18.25;
1441975181413400;-0.7952880859375;0.0350341796875;-0.60321044921875;-0.0504150390625;1.566138906385044;17.596263619935023;9.054089919981893;0.9853515625;0.064453125;-0.2568359375;-4.0;-23.375;-18.8125;
1441975181435401;-0.7984619140625;0.03350830078125;-0.5987548828125;-0.05340576171875;1.6316963724762568;17.537535364043713;9.10651409519991;0.974609375;0.06103515625;-0.26318359375;-6.625;-27.5;-18.6875;
1441975181441402;-0.80181884765625;0.0323486328125;-0.59405517578125;-0.05633544921875;1.700868514389052;17.488946729791444;9.14752451731739;0.96337890625;0.07470703125;-0.2666015625;-7.8125;-31.0;-17.5;
1441975181465403;-0.80535888671875;0.03155517578125;-0.589111328125;-0.0592041015625;1.7734179771067113;17.449498590325632;9.178116299463708;0.95703125;0.07958984375;-0.27392578125;-8.5;-33.25;-15.5;
1441975181496405;-0.808837890625;0.0313720703125;-0.583984375;-0.0621337890625;1.8468161627499573;17.418455665257323;9.19747062942028;0.94921875;0.09423828125;-0.2822265625;-9.5625;-35.0;-13.0;
1441975181501405;-0.81231689453125;0.0318603515625;-0.57879638671875;-0.06512451171875;1.9201395620364705;17.395244935345104;9.205948830728486;0.935546875;0.10595703125;-0.28564453125;-11.6875;-36.25;-10.375;
1441975181517406;-0.81561279296875;0.03289794921875;-0.57373046875;-0.06781005859375;1.990164611692134;17.38205169796844;9.203358918224954;0.91748046875;0.1064453125;-0.2919921875;-14.125;-36.75;-7.5625;
1441975181540407;-0.8187255859375;0.0343017578125;-0.5689697265625;-0.07000732421875;2.0551914129508555;17.378267055559384;9.191865362198547;0.8974609375;0.09765625;-0.29736328125;-15.0;-35.8125;-4.5625;
1441975181564409;-0.82147216796875;0.03582763671875;-0.564697265625;-0.071533203125;2.1124662322898633;17.382737942306846;9.17438206744849;0.8798828125;0.0927734375;-0.3037109375;-14.1875;-33.625;-1.875;
1441975181593410;-0.82391357421875;0.0372314453125;-0.56097412109375;-0.0721435546875;2.1619339304723564;17.39605077664598;9.152378674334088;0.859375;0.08251953125;-0.3056640625;-11.3125;-30.625;0.6875;
1441975181607411;-0.825927734375;0.03863525390625;-0.5579833984375;-0.07183837890625;2.201057147336999;17.418597688564994;9.124994459173083;0.845703125;0.080078125;-0.3203125;-6.9375;-26.5;3.4375;
1441975181624412;-0.82733154296875;0.03997802734375;-0.555908203125;-0.07080078125;2.22729952916805;17.44712088769165;9.094994620732338;0.8408203125;0.0849609375;-0.33349609375;-2.5;-21.1875;6.8125;
1441975181645413;-0.82806396484375;0.04150390625;-0.55487060546875;-0.06903076171875;2.2390061652536613;17.48382591282013;9.059194036674283;0.85595703125;0.1064453125;-0.345703125;1.75;-15.0625;11.1875;
1441975181660414;-0.8277587890625;0.04364013671875;-0.55548095703125;-0.06646728515625;2.227901490707189;17.53282245941006;9.012056412769189;0.919921875;0.15283203125;-0.3818359375;5.6875;-7.625;17.875;
1441975181681415;-0.82635498046875;0.0467529296875;-0.5576171875;-0.0635986328125;2.195183988740842;17.59271387539695;8.951400484557338;1.068359375;0.21240234375;-0.44189453125;9.125;2.875;27.5625;
1441975181705417;-0.8243408203125;0.05120849609375;-0.56036376953125;-0.06231689453125;2.1534567327681;17.64517171509699;8.886135488198596;1.26416015625;0.26416015625;-0.5400390625;8.6875;15.125;37.8125;
1441975181720418;-0.82244873046875;0.0560302734375;-0.562744140625;-0.0616455078125;2.1168121556239963;17.695279844870804;8.81914331196049;1.2451171875;0.20068359375;-0.49658203125;-4.625;17.9375;35.875;
1441975181742419;-0.82086181640625;0.060546875;-0.56475830078125;-0.06036376953125;2.0866012456838123;17.752695397240196;8.748598940871013;1.017578125;0.0341796875;-0.345703125;-12.4375;12.5;25.875;
1441975181773421;-0.81939697265625;0.06475830078125;-0.5665283203125;-0.05950927734375;2.0603777743558114;17.803275169779077;8.684358213654342;0.83740234375;-0.1201171875;-0.26513671875;-11.9375;8.9375;17.0;
1441975181781421;-0.818115234375;0.0682373046875;-0.56817626953125;-0.05712890625;2.037883698102892;17.868872143682722;8.614391705701413;0.7353515625;-0.142578125;-0.24267578125;-13.25;9.1875;13.125;
1441975181804422;-0.81732177734375;0.06976318359375;-0.56951904296875;-0.0531005859375;2.022878042332325;17.939204736712785;8.554519087975299;0.75244140625;-0.14501953125;-0.25244140625;-4.0;8.0;15.0;
1441975181825424;-0.81695556640625;0.06903076171875;-0.57049560546875;-0.0487060546875;2.0141420706118924;17.99319567907282;8.521763814710512;0.81787109375;-0.09716796875;-0.267578125;11.5625;4.6875;14.125;
1441975181840424;-0.81719970703125;0.0673828125;-0.5706787109375;-0.0452880859375;2.0158283264823273;0.02401507724236125;8.51186351211305;0.8857421875;0.017578125;-0.27783203125;23.75;0.9375;12.375;
1441975181861426;-0.8177490234375;0.06640625;-0.570068359375;-0.0443115234375;2.025351306392094;0.026818045584677895;8.517051766150846;0.9384765625;0.09521484375;-0.314453125;23.9375;-2.9375;9.8125;
1441975181885427;-0.81854248046875;0.06707763671875;-0.5687255859375;-0.0458984375;2.042215235114465;0.009505824023389235;8.524917330604286;0.9833984375;0.1396484375;-0.3505859375;11.0625;-5.5625;7.9375;
1441975181900428;-0.8194580078125;0.06951904296875;-0.56683349609375;-0.04925537109375;2.0646322027928523;17.984450390232873;8.525847855913021;0.998046875;0.14208984375;-0.37939453125;-6.5;-8.0;6.625;
1441975181932430;-0.8203125;0.07330322265625;-0.56475830078125;-0.05328369140625;2.088524171988467;17.9628649665369;8.514937724167744;0.97119140625;0.083984375;-0.388671875;-22.1875;-9.75;5.125;
1441975181937430;-0.82098388671875;0.0771484375;-0.56292724609375;-0.056884765625;2.1092262440168614;17.947899337853446;8.498910558103736;0.9384765625;0.01220703125;-0.38623046875;-31.6875;-10.0625;4.25;
1441975181961431;-0.8216552734375;0.0799560546875;-0.56134033203125;-0.05950927734375;2.127832081076295;17.936637177410834;8.48752208170798;0.91845703125;-0.05029296875;-0.38671875;-31.1875;-8.4375;1.8125;
1441975181989433;-0.82244873046875;0.08148193359375;-0.5596923828125;-0.06134033203125;2.1477889386299216;17.924188596179285;8.485844726764386;0.89404296875;-0.072265625;-0.38037109375;-24.1875;-7.3125;-1.4375;
1441975181997433;-0.82330322265625;0.08197021484375;-0.5582275390625;-0.0625;2.1664599092508054;17.911552502615702;8.491460628177169;0.87548828125;-0.06298828125;-0.37890625;-15.75;-7.8125;-4.0625;
1441975182020435;-0.82421875;0.08148193359375;-0.55682373046875;-0.06341552734375;2.1847581457847887;17.893789411087266;8.507260887087565;0.88818359375;-0.04296875;-0.37158203125;-8.875;-8.0625;-6.1875;
1441975182041436;-0.8251953125;0.080810546875;-0.55535888671875;-0.064453125;2.2039591007450605;17.87311896745111;8.52621778413838;0.89404296875;-0.01708984375;-0.35693359375;-4.0;-9.0;-8.0625;
1441975182065437;-0.8262939453125;0.0806884765625;-0.5535888671875;-0.0660400390625;2.226756319351717;17.85025108659589;8.542780528557394;0.90478515625;0.00537109375;-0.3525390625;-3.5;-10.5;-8.0;
1441975182087439;-0.82745361328125;0.0810546875;-0.551513671875;-0.06817626953125;2.252742835763927;17.82478209312201;8.557570342371875;0.923828125;0.009765625;-0.357421875;-7.5;-12.4375;-7.4375;
1441975182104440;-0.82867431640625;0.081787109375;-0.54925537109375;-0.07073974609375;2.2808014390358484;17.79738026569478;8.570968349459305;0.93701171875;0.001953125;-0.36328125;-12.4375;-14.125;-7.8125;
1441975182117440;-0.83001708984375;0.0828857421875;-0.5467529296875;-0.07354736328125;2.3119784311715503;17.770292760757982;8.581473960083887;0.94189453125;-0.01513671875;-0.35986328125;-16.25;-15.875;-8.9375;
1441975182146442;-0.83135986328125;0.08441162109375;-0.54400634765625;-0.0765380859375;2.345499090182925;17.744747280378117;8.587795141344651;0.93701171875;-0.03076171875;-0.365234375;-19.1875;-17.5;-9.3125;
1441975182162443;-0.8326416015625;0.08612060546875;-0.54132080078125;-0.07940673828125;2.3781386490453116;17.722532650321128;8.590510436290758;0.9267578125;-0.0361328125;-0.36767578125;-21.625;-18.5;-8.6875;
1441975182177444;-0.83392333984375;0.0877685546875;-0.53875732421875;-0.08203125;2.4097138781703915;17.703095800759563;8.591740855707268;0.91845703125;-0.04443359375;-0.38037109375;-22.1875;-17.9375;-7.8125;
1441975182200445;-0.83502197265625;0.089111328125;-0.5364990234375;-0.083984375;2.4374763722335726;17.68954097319776;8.59114857156771;0.91015625;-0.04638671875;-0.38818359375;-20.4375;-16.5;-7.8125;
1441975182230447;-0.83599853515625;0.09033203125;-0.5345458984375;-0.08538818359375;2.4617421636126893;17.68167127287829;8.587714153497517;0.9189453125;-0.04541015625;-0.412109375;-16.875;-14.3125;-7.125;
1441975182246448;-0.836669921875;0.091552734375;-0.533203125;-0.086181640625;2.478446839374246;17.681071329474285;8.579673457195756;0.92578125;-0.04052734375;-0.42529296875;-13.375;-11.9375;-5.375;
1441975182260448;-0.83697509765625;0.09307861328125;-0.5323486328125;-0.08673095703125;2.488251302001839;17.685643383142484;8.566270534831403;0.9560546875;-0.02734375;-0.4462890625;-10.375;-8.0625;-2.3125;
1441975182299451;-0.8369140625;0.09503173828125;-0.53192138671875;-0.08740234375;2.49162474808834;17.69207458844641;8.54877902850922;0.984375;-0.00830078125;-0.47705078125;-9.4375;-3.9375;0.9375;
1441975182303451;-0.8365478515625;0.0977783203125;-0.53192138671875;-0.08807373046875;2.4890329704804053;17.704532120752255;8.52206470090645;0.97607421875;-0.01025390625;-0.49267578125;-11.25;0.0;3.6875;
1441975182320452;-0.83599853515625;0.10076904296875;-0.5321044921875;-0.088623046875;2.483728562977298;17.72035879446503;8.491481616113537;0.93505859375;-0.0380859375;-0.47705078125;-14.4375;2.75;5.75;
1441975182350454;-0.8350830078125;0.10400390625;-0.53289794921875;-0.0888671875;2.4706552468280543;17.742119343122134;8.455359356016658;0.904296875;-0.052734375;-0.462890625;-15.0;4.5625;7.25;
1441975182359454;-0.8338623046875;0.10748291015625;-0.5341796875;-0.08856201171875;2.4516936639061333;17.772875262959033;8.411609533596904;0.89111328125;-0.05029296875;-0.4541015625;-13.75;7.8125;10.0625;
1441975182379455;-0.832275390625;0.1112060546875;-0.5360107421875;-0.08770751953125;2.4261522738161228;17.813179599578003;8.35968163422281;0.8896484375;-0.0419921875;-0.46142578125;-11.25;11.625;14.3125;
1441975182401457;-0.83050537109375;0.114990234375;-0.5380859375;-0.086669921875;2.39796722755155;17.857480073416692;8.304305645362588;0.89892578125;-0.02197265625;-0.47705078125;-8.5625;15.5625;18.8125;
1441975182424458;-0.82855224609375;0.1190185546875;-0.5404052734375;-0.08563232421875;2.3671898172297112;17.905335702446592;8.244423548795982;0.90087890625;-0.00341796875;-0.484375;-7.0625;18.25;22.1875;
1441975182440459;-0.82672119140625;0.12359619140625;-0.5423583984375;-0.08489990234375;2.3415232175252605;17.95451252522219;8.179587472769638;0.88525390625;0.00341796875;-0.46533203125;-7.3125;19.375;24.25;
1441975182461460;-0.82489013671875;0.12841796875;-0.5440673828125;-0.08441162109375;2.3189481955799334;0.0034586138794828335;8.112847688667546;0.865234375;0.01611328125;-0.4951171875;-10.25;19.8125;26.75;
1441975182484461;-0.82305908203125;0.1334228515625;-0.54571533203125;-0.08416748046875;2.297670204900159;0.05189871311950769;8.04484393191574;0.84716796875;4.8828125E-4;-0.49169921875;-12.0;19.375;26.3125;
1441975182499462;-0.821044921875;0.1383056640625;-0.547607421875;-0.08343505859375;2.2746105232310576;0.10720348865515766;7.972521513951729;0.84716796875;-0.02197265625;-0.48095703125;-14.6875;18.8125;25.8125;
1441975182521463;-0.81884765625;0.142578125;-0.54998779296875;-0.08233642578125;2.2467965770153397;0.16491807054740004;7.901987592490895;0.84912109375;-0.03076171875;-0.46240234375;-11.75;19.3125;26.3125;
1441975182545465;-0.81640625;0.14666748046875;-0.55267333984375;-0.0814208984375;2.2150634643056795;0.22185825516936392;7.832282319597063;0.8603515625;-0.02490234375;-0.43701171875;-7.5625;20.375;26.1875;
1441975182559466;-0.814208984375;0.15045166015625;-0.554931640625;-0.08087158203125;2.1884320603352543;0.27160982921071164;7.769405517625729;0.87646484375;-0.01513671875;-0.419921875;-6.9375;21.75;26.125;
1441975182581467;-0.8123779296875;0.1546630859375;-0.5562744140625;-0.08197021484375;2.170047698201164;0.30184848278039217;7.717232885639875;0.8759765625;-0.01318359375;-0.4248046875;-7.9375;20.375;23.625;
1441975182604468;-0.81048583984375;0.16070556640625;-0.55682373046875;-0.08526611328125;2.157033116440032;0.31822108299098084;7.661966210812923;0.8818359375;0.03271484375;-0.40966796875;-16.0625;14.8125;23.125;
1441975182619469;-0.8089599609375;0.16729736328125;-0.556396484375;-0.0899658203125;2.152824343640996;0.3176602652817733;7.615271835793735;0.90869140625;0.025390625;-0.40478515625;-33.25;11.75;23.6875;
1441975182641470;-0.80804443359375;0.17291259765625;-0.55535888671875;-0.09405517578125;2.1574716923315433;0.31265275649669066;7.579457007790837;0.90283203125;-0.00634765625;-0.40673828125;-43.1875;7.5625;18.75;
1441975182664472;-0.80767822265625;0.17645263671875;-0.55426025390625;-0.096923828125;2.1649201353565823;0.3036609917753738;7.561346624779293;0.87890625;-0.07421875;-0.39404296875;-38.9375;2.375;11.125;
1441975182679472;-0.80780029296875;0.17767333984375;-0.55340576171875;-0.0985107421875;2.171716240240584;0.2907848015701787;7.5622728934308565;0.86279296875;-0.095703125;-0.38916015625;-27.4375;0.0625;3.25;
1441975182701474;-0.80853271484375;0.17694091796875;-0.552490234375;-0.099365234375;2.18078172557384;0.26899422451323823;7.583419702502258;0.8623046875;-0.0791015625;-0.39404296875;-12.875;-0.25;-3.0;
1441975182724475;-0.80963134765625;0.17535400390625;-0.5511474609375;-0.10064697265625;2.193389249719991;0.2327415706105088;7.62070605012896;0.84130859375;-0.0380859375;-0.41943359375;-2.1875;0.25;-7.9375;
1441975182739476;-0.81072998046875;0.17364501953125;-0.5496826171875;-0.1026611328125;2.2054855075877873;0.186558152961802;7.665354576171837;0.8388671875;0.00146484375;-0.43603515625;-0.625;-1.0625;-11.25;
1441975182763477;-0.8115234375;0.1722412109375;-0.54833984375;-0.10540771484375;2.2139429950794076;0.13544682214593004;7.710582246605935;0.8671875;0.03271484375;-0.4306640625;-3.375;-2.0;-12.5;
1441975182793479;-0.81195068359375;0.171142578125;-0.5474853515625;-0.10870361328125;2.2154915101529173;0.08259434770436112;7.754194677842099;0.92236328125;0.060546875;-0.4443359375;-6.8125;-0.75;-11.8125;
1441975182799479;-0.81201171875;0.1702880859375;-0.54693603515625;-0.11212158203125;2.212615468894727;0.031831924493610615;7.794186011355542;0.98388671875;0.0771484375;-0.44873046875;-10.1875;1.875;-10.4375;
1441975182823481;-0.81207275390625;0.16937255859375;-0.5465087890625;-0.114990234375;2.210107618806493;17.98756123077044;7.830255525631439;0.99365234375;0.06640625;-0.42919921875;-11.9375;2.6875;-10.5;
1441975182852482;-0.81231689453125;0.1680908203125;-0.546142578125;-0.1173095703125;2.209167981545094;17.94682085695524;7.8667007333712595;0.96826171875;0.03662109375;-0.40283203125;-9.875;1.8125;-11.4375;
1441975182859483;-0.81243896484375;0.1663818359375;-0.54608154296875;-0.11871337890625;2.206104373459085;17.91472715151934;7.9000789687596455;0.93896484375;0.0146484375;-0.37548828125;-6.875;0.125;-13.0625;
1441975182881484;-0.8126220703125;0.16375732421875;-0.5465087890625;-0.1192626953125;2.1996185390712784;17.886460394794227;7.937245017902928;0.93896484375;-0.0166015625;-0.36328125;-1.8125;0.75;-14.25;
1441975182904485;-0.8131103515625;0.16009521484375;-0.5469970703125;-0.1190185546875;2.195047429518161;17.858893854726315;7.981414123373872;0.94384765625;-0.0244140625;-0.36328125;5.0625;2.4375;-16.4375;
1441975182919486;-0.813720703125;0.1556396484375;-0.54736328125;-0.1185302734375;2.1924275264020676;17.827126248797086;8.033977097611078;0.958984375;-0.01171875;-0.390625;12.8125;3.3125;-18.5;
1441975182942487;-0.81451416015625;0.1510009765625;-0.547607421875;-0.11822509765625;2.1922036645618626;17.791014793186147;8.090933326962748;0.98046875;0.0146484375;-0.39453125;16.75;2.4375;-20.1875;
1441975182964489;-0.8154296875;0.1463623046875;-0.5474853515625;-0.11834716796875;2.1962660235698204;17.748880163506307;8.151988260527563;1.001953125;0.02001953125;-0.38525390625;16.1875;0.25;-21.75;
1441975182979490;-0.8165283203125;0.1416015625;-0.54705810546875;-0.1185302734375;2.204944821956879;17.704650556480367;8.215293438951592;1.025390625;0.01806640625;-0.3671875;14.25;-2.9375;-24.0;
1441975183009491;-0.81793212890625;0.1365966796875;-0.54620361328125;-0.118408203125;2.220538698384069;17.662053181273496;8.279108198207501;1.00537109375;-0.00537109375;-0.3408203125;13.375;-6.5;-27.0625;
1441975183024492;-0.8197021484375;0.1309814453125;-0.54510498046875;-0.1177978515625;2.2417605006560124;17.62090743082334;8.346037624284396;0.9580078125;-0.03564453125;-0.3095703125;14.6875;-10.25;-30.25;
1441975183039493;-0.82177734375;0.12469482421875;-0.543701171875;-0.11688232421875;2.2687333244701344;17.57882381862437;8.417894689865495;0.916015625;-0.0439453125;-0.28759765625;18.375;-13.125;-32.8125;
1441975183069495;-0.8240966796875;0.117919921875;-0.5419921875;-0.11553955078125;2.3012006115509185;17.539274884646943;8.490930393699214;0.88134765625;-0.0283203125;-0.28125;22.4375;-14.75;-34.25;
1441975183084496;-0.8265380859375;0.11083984375;-0.53997802734375;-0.11419677734375;2.3382247174470994;17.498867490014998;8.565984076466343;0.8662109375;0.00244140625;-0.291015625;26.375;-16.5;-34.3125;
1441975183100496;-0.828857421875;0.10394287109375;-0.53802490234375;-0.113037109375;2.3746147084377904;17.45945233035528;8.638556008925212;0.86865234375;0.04052734375;-0.2998046875;28.25;-17.6875;-33.75;
1441975183123498;-0.83111572265625;0.0975341796875;-0.5360107421875;-0.112060546875;2.411692755680864;17.423287496167696;8.705095100206119;0.88818359375;0.08544921875;-0.30712890625;27.9375;-17.875;-31.25;
1441975183144499;-0.83294677734375;0.09185791015625;-0.53436279296875;-0.111083984375;2.4427007598217747;17.39366573596181;8.762089463640509;0.91943359375;0.11279296875;-0.31494140625;25.875;-18.5;-27.9375;
1441975183168500;-0.83447265625;0.0867919921875;-0.5330810546875;-0.1099853515625;2.4682077728949814;17.370571483829785;8.810619477066181;0.9599609375;0.12451171875;-0.30859375;23.8125;-18.0;-24.125;
1441975183189502;-0.83563232421875;0.082275390625;-0.53216552734375;-0.108642578125;2.4876356151871715;17.354409972997047;8.850986227516664;0.98876953125;0.140625;-0.3095703125;23.25;-16.875;-19.75;
1441975183204502;-0.83642578125;0.0784912109375;-0.53173828125;-0.10772705078125;2.4998072499501722;17.338412714859786;8.886507911290083;1.01025390625;0.15087890625;-0.3154296875;22.625;-14.9375;-15.6875;
1441975183220503;-0.8367919921875;0.07550048828125;-0.53173828125;-0.1070556640625;2.5047310610850815;17.324804583926383;8.915379583687509;1.00927734375;0.1572265625;-0.31201171875;18.625;-11.9375;-12.8125;
1441975183241505;-0.83673095703125;0.0732421875;-0.53216552734375;-0.10662841796875;2.502406218219665;17.312928854429153;8.938503093262147;0.99951171875;0.1455078125;-0.31591796875;14.4375;-8.3125;-10.3125;
1441975183264506;-0.83648681640625;0.07122802734375;-0.5328369140625;-0.10650634765625;2.496630878901181;17.298877498508027;8.961574011625308;0.99462890625;0.10595703125;-0.318359375;9.8125;-5.25;-9.5;
1441975183280507;-0.83612060546875;0.06890869140625;-0.5338134765625;-0.106201171875;2.4875054390067186;17.284164756954816;8.987410215808108;0.96728515625;0.07470703125;-0.29541015625;6.875;-3.6875;-10.9375;
1441975183303508;-0.835693359375;0.066162109375;-0.53497314453125;-0.10546875;2.4765515912031546;17.270795922932663;9.015477824508862;0.93212890625;0.052734375;-0.28369140625;8.25;-1.75;-12.875;
1441975183324509;-0.83514404296875;0.06298828125;-0.53643798828125;-0.1043701171875;2.4622770901387474;17.257793140904308;9.04653120823722;0.912109375;0.05908203125;-0.29248046875;11.5;0.75;-13.125;
1441975183340510;-0.83441162109375;0.05938720703125;-0.53826904296875;-0.10296630859375;2.4437947034607594;17.24416825318591;9.081300797799983;0.9033203125;0.08544921875;-0.3017578125;15.3125;4.0625;-12.0;
1441975183369512;-0.83349609375;0.0556640625;-0.54034423828125;-0.10150146484375;2.4221151167366775;17.22934818284305;9.118032720989202;0.90869140625;0.13525390625;-0.3212890625;19.375;7.625;-9.8125;
1441975183384513;-0.83251953125;0.05230712890625;-0.5423583984375;-0.10064697265625;2.4009352090449023;17.209678913622422;9.155520250406537;0.91845703125;0.17724609375;-0.34423828125;20.8125;10.9375;-7.625;
1441975183400514;-0.83135986328125;0.0498046875;-0.54437255859375;-0.1004638671875;2.378316000463712;17.187782307380164;9.188858341389523;0.92431640625;0.19921875;-0.359375;17.3125;12.0;-6.125;
1441975183421515;-0.8299560546875;0.04840087890625;-0.54669189453125;-0.10052490234375;2.350048588127048;17.169963796607302;9.212611520240127;0.9091796875;0.20068359375;-0.3447265625;11.3125;11.875;-4.125;
1441975183444516;-0.8282470703125;0.04791259765625;-0.54925537109375;-0.1007080078125;2.316361283422717;17.156318059926313;9.227892013651218;0.91357421875;0.1875;-0.330078125;6.3125;12.9375;-0.375;
1441975183461517;-0.82635498046875;0.04803466796875;-0.552001953125;-0.1009521484375;2.27893129934719;17.145682121622794;9.237402037052258;0.92822265625;0.1865234375;-0.33740234375;2.375;15.125;3.5625;
1441975183497519;-0.82464599609375;0.04815673828125;-0.5545654296875;-0.1009521484375;2.244052569404145;17.138445404542832;9.244516764963107;0.93798828125;0.1748046875;-0.3369140625;0.125;16.1875;5.5;
1441975183504520;-0.822998046875;0.04815673828125;-0.55694580078125;-0.1011962890625;2.211829279414097;17.12741560392774;9.254869578424904;0.9580078125;0.15283203125;-0.35302734375;0.375;15.8125;5.0;
1441975183526521;-0.8214111328125;0.04833984375;-0.5592041015625;-0.101806640625;2.181356868341518;17.11340366569095;9.26592501664542;0.978515625;0.15087890625;-0.361328125;-0.4375;15.375;3.25;
1441975183549522;-0.8199462890625;0.0487060546875;-0.5611572265625;-0.10260009765625;2.154471977623687;17.099197452517863;9.275594637469174;0.9814453125;0.14892578125;-0.35546875;-3.0;14.625;2.4375;
1441975183564523;-0.8187255859375;0.049072265625;-0.56268310546875;-0.1033935546875;2.133125018867136;17.086182707760685;9.283993981350102;0.96875;0.13330078125;-0.35302734375;-4.8125;13.125;1.8125;
1441975183580524;-0.81787109375;0.048828125;-0.56390380859375;-0.10382080078125;2.1175124462976833;17.07390164412868;9.295690516128158;0.94873046875;0.11865234375;-0.35498046875;-4.9375;11.25;0.375;
1441975183601525;-0.8173828125;0.04779052734375;-0.56475830078125;-0.1038818359375;2.108557698159789;17.06095146095106;9.31280618757676;0.92919921875;0.1005859375;-0.34912109375;-1.875;9.25;-2.5;
1441975183624526;-0.817138671875;0.046142578125;-0.565185546875;-0.10382080078125;2.1061259377314117;17.045709042989735;9.335131117291924;0.92919921875;0.095703125;-0.35302734375;2.3125;7.125;-5.5;
1441975183640527;-0.8172607421875;0.044189453125;-0.565185546875;-0.103759765625;2.1106279039767104;17.029764096956153;9.359382236337858;0.9326171875;0.11279296875;-0.35693359375;5.5625;4.9375;-7.4375;
1441975183669529;-0.8177490234375;0.04229736328125;-0.5645751953125;-0.1041259765625;2.1237591404957987;17.011482601667307;9.383863890715908;0.93017578125;0.13720703125;-0.3603515625;6.875;2.0;-7.75;
1441975183684530;-0.8184814453125;0.040771484375;-0.5634765625;-0.105224609375;2.1435613990362374;16.989240721613093;9.40769847660711;0.93115234375;0.16455078125;-0.3671875;5.375;-1.3125;-7.75;
1441975183701531;-0.8193359375;0.03985595703125;-0.56182861328125;-0.10711669921875;2.169454666651584;16.964366455452065;9.428222771416376;0.9306640625;0.18212890625;-0.36865234375;1.0;-4.875;-8.0625;
1441975183729532;-0.8204345703125;0.03973388671875;-0.55987548828125;-0.10943603515625;2.198836285271113;16.942773696562057;9.440425379617439;0.92431640625;0.1806640625;-0.36572265625;-4.6875;-8.0;-8.0625;
1441975183744533;-0.8216552734375;0.04022216796875;-0.55755615234375;-0.1119384765625;2.2313772204659132;16.925599146695557;9.444834732095876;0.921875;0.1689453125;-0.369140625;-9.8125;-10.8125;-7.25;
1441975183760534;-0.82293701171875;0.04095458984375;-0.5550537109375;-0.11444091796875;2.2654422977964073;16.91129096511562;9.445304833425707;0.92138671875;0.15966796875;-0.37060546875;-12.625;-13.3125;-6.1875;
1441975183781535;-0.82452392578125;0.04150390625;-0.5521240234375;-0.11688232421875;2.3056141095636606;16.898452154894688;9.445233621015948;0.92138671875;0.15673828125;-0.3662109375;-13.5;-15.375;-5.5625;
1441975183804537;-0.82611083984375;0.0423583984375;-0.54913330078125;-0.11944580078125;2.3458795601310696;16.88684806843347;9.4421239894006;0.9150390625;0.16943359375;-0.38232421875;-12.75;-17.1875;-5.9375;
1441975183828538;-0.82757568359375;0.04339599609375;-0.54620361328125;-0.12225341796875;2.3848825280209462;16.87342151050184;9.439029065576353;0.93505859375;0.1796875;-0.39306640625;-13.9375;-18.0;-4.6875;
1441975183843539;-0.82904052734375;0.0443115234375;-0.5433349609375;-0.12493896484375;2.423355957132932;16.860504484679876;9.436435835405701;0.94873046875;0.1865234375;-0.3984375;-15.8125;-17.75;-4.5625;
1441975183871541;-0.83050537109375;0.045166015625;-0.5404052734375;-0.12744140625;2.4621753338862473;16.8494964511315;9.4328849874745;0.93359375;0.1806640625;-0.40185546875;-15.0;-17.5625;-5.3125;
1441975183880541;-0.8319091796875;0.045654296875;-0.5377197265625;-0.129638671875;2.4986261054015992;16.838688620260495;9.431972137162049;0.91552734375;0.16162109375;-0.39697265625;-14.375;-17.625;-6.5;
1441975183901542;-0.833251953125;0.04541015625;-0.5352783203125;-0.13116455078125;2.5328841618704336;16.829631837809746;9.43517076639432;0.88671875;0.1455078125;-0.3818359375;-12.125;-16.5625;-7.8125;
1441975183924544;-0.83447265625;0.04437255859375;-0.533203125;-0.1319580078125;2.563497364226595;16.822163689769916;9.443190638216915;0.85791015625;0.13720703125;-0.38232421875;-7.125;-14.75;-9.5;
1441975183955545;-0.83563232421875;0.042236328125;-0.5316162109375;-0.1318359375;2.5900715993564374;16.816154185505546;9.458283810871333;0.83544921875;0.14111328125;-0.376953125;-0.75;-12.1875;-10.625;
1441975183961546;-0.8367919921875;0.03900146484375;-0.5303955078125;-0.13055419921875;2.613611353229889;16.814700013538648;9.478339710444313;0.828125;0.1533203125;-0.37841796875;7.1875;-9.0;-11.75;
1441975183985547;-0.83770751953125;0.0355224609375;-0.52947998046875;-0.12933349609375;2.6336393545481287;16.80982421613119;9.502620669682434;0.83154296875;0.17041015625;-0.39990234375;16.5625;-5.5625;-12.375;
1441975184009548;-0.8382568359375;0.032470703125;-0.52899169921875;-0.1287841796875;2.647947396516645;16.798777518151958;9.528576767789485;0.82958984375;0.18505859375;-0.39892578125;17.0;-3.5625;-12.625;
1441975184021549;-0.83831787109375;0.02996826171875;-0.5291748046875;-0.12823486328125;2.6518594706239718;16.78835474203558;9.551732810134077;0.82275390625;0.21484375;-0.3837890625;13.375;-1.1875;-10.6875;
1441975184044550;-0.83795166015625;0.02752685546875;-0.530029296875;-0.1273193359375;2.6461784195390887;16.779267612430704;9.574931708831846;0.8349609375;0.203125;-0.3818359375;11.3125;2.625;-8.0625;
1441975184060551;-0.83746337890625;0.02471923828125;-0.5313720703125;-0.125732421875;2.63477321779713;16.773213459760274;9.599553968306322;0.84033203125;0.18896484375;-0.37841796875;12.0625;6.6875;-7.4375;
1441975184089553;-0.83673095703125;0.02166748046875;-0.53314208984375;-0.12347412109375;2.617163305455801;16.770668515251316;9.624524286704553;0.82275390625;0.16064453125;-0.3740234375;15.75;9.6875;-7.8125;
1441975184104554;-0.83563232421875;0.01837158203125;-0.53558349609375;-0.1209716796875;2.5913576794455775;16.76598294805956;9.653767921426581;0.81982421875;0.15576171875;-0.3583984375;19.5625;12.25;-7.1875;
1441975184120555;-0.8341064453125;0.01519775390625;-0.53857421875;-0.1185302734375;2.557903672821498;16.75818095254624;9.68539328583045;0.82568359375;0.15576171875;-0.36572265625;21.3125;17.0625;-7.0;
1441975184151557;-0.83221435546875;0.01226806640625;-0.54217529296875;-0.11602783203125;2.515983982002217;16.7491331764366;9.717570216463006;0.82666015625;0.16552734375;-0.3720703125;20.25;21.875;-5.6875;
1441975184164557;-0.830078125;0.00921630859375;-0.5460205078125;-0.11322021484375;2.4700979817366786;16.740302159796826;9.751255197567852;0.83984375;0.16796875;-0.37548828125;19.8125;25.75;-3.625;
1441975184179558;-0.82757568359375;0.006103515625;-0.5504150390625;-0.11029052734375;2.4170576717955115;16.72851125698795;9.788677433809946;0.8427734375;0.15673828125;-0.36962890625;21.5;28.125;-3.6875;
1441975184203560;-0.8248291015625;0.00274658203125;-0.55523681640625;-0.10711669921875;2.3589471740435712;16.714249740981153;9.830594065774305;0.84423828125;0.16015625;-0.34814453125;21.9375;30.8125;-2.75;
1441975184224561;-0.82171630859375;-9.1552734375E-4;-0.5604248046875;-0.1038818359375;2.296386827721825;16.694250211208033;9.879696536678711;0.8466796875;0.16552734375;-0.3369140625;24.25;33.8125;-2.4375;
1441975184240562;-0.81842041015625;-0.00445556640625;-0.56573486328125;-0.100830078125;2.2321233846338604;16.669861628028446;9.931848122832488;0.833984375;0.16943359375;-0.30810546875;25.4375;35.8125;-2.75;
1441975184263563;-0.81494140625;-0.0078125;-0.5711669921875;-0.09814453125;2.1666127125688455;16.638953150360592;9.988180220829406;0.828125;0.15283203125;-0.2763671875;24.0625;35.875;-3.875;
1441975184291565;-0.81121826171875;-0.010986328125;-0.5767822265625;-0.09588623046875;2.0993273285890224;16.599644323799925;10.05033036052786;0.8330078125;0.1435546875;-0.26513671875;21.4375;36.8125;-4.4375;
1441975184308566;-0.80731201171875;-0.01458740234375;-0.58251953125;-0.0936279296875;2.032102547554621;16.55194250536394;10.122563676378812;0.8359375;0.1298828125;-0.24658203125;18.625;37.875;-5.9375;
1441975184323566;-0.80340576171875;-0.018798828125;-0.58807373046875;-0.0916748046875;1.9706792650890141;16.49212071405292;10.208077924390246;0.84521484375;0.1162109375;-0.2490234375;19.3125;40.0;-8.5;
1441975184344568;-0.79949951171875;-0.02386474609375;-0.59344482421875;-0.0902099609375;1.917268188643206;16.415178809565436;10.31213045130334;0.83203125;0.1142578125;-0.244140625;20.0;40.375;-12.625;
1441975184383570;-0.7955322265625;-0.029296875;-0.5986328125;-0.08917236328125;1.870220838664643;16.325329658864813;10.428752117824615;0.794921875;0.1201171875;-0.2177734375;20.9375;39.3125;-17.875;
1441975184386570;-0.79132080078125;-0.03460693359375;-0.60400390625;-0.08880615234375;1.825234730863776;16.219840092851356;10.557715191023636;0.751953125;0.10302734375;-0.18505859375;20.125;38.5625;-21.75;
1441975184404571;-0.786865234375;-0.04034423828125;-0.60931396484375;-0.08966064453125;1.79029655348736;16.088252044683617;10.709449592085637;0.76171875;0.09814453125;-0.16455078125;16.375;39.0;-24.125;
1441975184419572;-0.78240966796875;-0.04632568359375;-0.6143798828125;-0.09161376953125;1.7683956872592113;15.937980155732985;10.876314883107243;0.75390625;0.11767578125;-0.15966796875;12.5625;40.0625;-29.0625;
1441975184450574;-0.77777099609375;-0.0526123046875;-0.61932373046875;-0.09423828125;1.7572471926485287;15.773435964137892;11.055903638372605;0.7333984375;0.119140625;-0.1494140625;8.3125;39.25;-34.6875;
1441975184464575;-0.77301025390625;-0.05938720703125;-0.62420654296875;-0.0968017578125;1.7547751843049568;15.603949294513713;11.242661217650737;0.71533203125;0.12158203125;-0.11279296875;6.5625;37.8125;-38.6875;
1441975184480575;-0.76824951171875;-0.06573486328125;-0.62890625;-0.10052490234375;1.764582672231021;15.427008030471907;11.430351425441595;0.74755859375;0.17236328125;-0.11865234375;9.3125;38.875;-38.125;
1441975184503577;-0.76336669921875;-0.07049560546875;-0.63360595703125;-0.10455322265625;1.7725861834159546;15.257617270907211;11.602725646442169;0.79248046875;0.263671875;-0.126953125;3.3125;37.9375;-36.0625;
1441975184524578;-0.75823974609375;-0.0740966796875;-0.638671875;-0.108154296875;1.7732492444351653;15.093535561612034;11.766801256127547;0.80810546875;0.2626953125;-0.10986328125;-4.0;36.8125;-31.125;
1441975184540579;-0.752685546875;-0.077880859375;-0.64453125;-0.110107421875;1.7641788828385665;14.929579862207873;11.93829184530886;0.82958984375;0.2373046875;-0.09912109375;-6.75;38.8125;-27.1875;
1441975184563580;-0.746826171875;-0.08355712890625;-0.650634765625;-0.1094970703125;1.7545197275729658;14.771093961030607;12.122564712312181;0.87255859375;0.1923828125;-0.095703125;-0.4375;44.75;-25.75;
1441975184584581;-0.74127197265625;-0.091552734375;-0.656494140625;-0.10614013671875;1.7496440613198665;14.63067344211591;12.309533561126083;0.9423828125;0.21044921875;-0.1015625;17.0625;50.0;-24.9375;
1441975184599582;-0.73583984375;-0.10003662109375;-0.66204833984375;-0.10198974609375;1.7494012225425903;14.499250565430328;12.492744091377302;1.0302734375;0.2890625;-0.1435546875;37.375;53.5625;-21.4375;
1441975184630584;-0.7305908203125;-0.10650634765625;-0.6673583984375;-0.0980224609375;1.7412820079452858;14.376365267693805;12.65840601933266;1.09423828125;0.3759765625;-0.1220703125;43.5625;51.6875;-16.25;
1441975184645585;-0.72576904296875;-0.111083984375;-0.67242431640625;-0.093994140625;1.7234441744544022;14.264044263336167;12.805983759272799;1.095703125;0.40283203125;-0.01171875;37.375;42.25;-7.375;
1441975184659586;-0.721435546875;-0.114990234375;-0.67706298828125;-0.0897216796875;1.7034024828083636;14.163257247005438;12.94025548342647;1.044921875;0.291015625;0.080078125;31.8125;33.375;-5.375;
1441975184683587;-0.71771240234375;-0.1190185546875;-0.68084716796875;-0.0855712890625;1.6904547092416113;14.079228311336559;13.057771353341064;1.04833984375;0.2080078125;0.09814453125;30.4375;29.1875;-7.3125;
1441975184704588;-0.71490478515625;-0.1224365234375;-0.68353271484375;-0.08251953125;1.686057957345011;14.016878524662603;13.146622121439753;1.1025390625;0.2021484375;0.0888671875;30.75;24.375;-9.375;
1441975184719589;-0.71282958984375;-0.12469482421875;-0.68548583984375;-0.08099365234375;1.687309664779657;13.968121799428342;13.210884876814292;1.09521484375;0.1865234375;0.0771484375;25.0625;16.625;-12.375;
1441975184750591;-0.71112060546875;-0.12518310546875;-0.68719482421875;-0.0809326171875;1.6873027366971678;13.92168885925902;13.259566409292542;1.06982421875;0.1884765625;0.06494140625;14.5;10.25;-12.6875;
1441975184773592;-0.70941162109375;-0.1243896484375;-0.68896484375;-0.08184814453125;1.6852828059020784;13.870221044763339;13.304030821726602;1.017578125;0.14306640625;0.06982421875;1.8125;6.0625;-13.1875;
1441975184788593;-0.70782470703125;-0.12322998046875;-0.690673828125;-0.082763671875;1.6808630605428099;13.820842429437265;13.344899749141842;0.9345703125;0.07958984375;0.09423828125;-6.8125;4.0625;-14.125;
1441975184803594;-0.7061767578125;-0.12188720703125;-0.6925048828125;-0.08349609375;1.673753640675212;13.769034406059781;13.388191980909284;0.8623046875;0.0556640625;0.072265625;-8.6875;4.9375;-12.8125;
1441975184826595;-0.70458984375;-0.120361328125;-0.6943359375;-0.0838623046875;1.6626477667703434;13.71844562964791;13.431009452222852;0.833984375;0.083984375;0.04443359375;-9.1875;8.25;-9.0;
1441975184840596;-0.7032470703125;-0.11822509765625;-0.696044921875;-0.0841064453125;1.6460845007873082;13.671769082128282;13.467906377348214;0.83837890625;0.16650390625;0.00537109375;-9.3125;11.25;-1.25;
1441975184863597;-0.70233154296875;-0.11602783203125;-0.6973876953125;-0.08367919921875;1.6240547572154749;13.637100589470931;13.495290979383606;0.83740234375;0.19677734375;-0.017578125;-11.5;10.875;4.375;
1441975184891599;-0.70166015625;-0.1143798828125;-0.69854736328125;-0.08197021484375;1.596274876599764;13.61171001444469;13.520885022433703;0.81787109375;0.18212890625;-0.015625;-8.5;8.6875;6.6875;
1441975184908600;-0.70074462890625;-0.11322021484375;-0.70001220703125;-0.0787353515625;1.560152576098811;13.581444020575068;13.559582461987192;0.78466796875;0.146484375;0.00244140625;-1.0;7.0;8.375;
1441975184923601;-0.7001953125;-0.1131591796875;-0.7010498046875;-0.0743408203125;1.5237281703991636;13.566286684644298;13.592397861729445;0.767578125;0.12841796875;0.015625;7.25;9.4375;11.875;
1441975184944602;-0.70001220703125;-0.11456298828125;-0.70147705078125;-0.06976318359375;1.4978164762354356;13.568778206057287;13.614310317356429;0.7958984375;0.181640625;-0.03125;16.125;11.0625;15.4375;
1441975184966603;-0.70013427734375;-0.1162109375;-0.7015380859375;-0.06536865234375;1.4753385028889716;13.581720268152964;13.626015282432206;0.853515625;0.3046875;-0.087890625;22.25;11.6875;18.25;
1441975184982604;-0.7003173828125;-0.1173095703125;-0.7015380859375;-0.06085205078125;1.4474495479198732;13.595684286787085;13.63494080131247;0.908203125;0.3720703125;-0.11083984375;22.25;10.125;20.1875;
1441975185004605;-0.7001953125;-0.1181640625;-0.70196533203125;-0.05572509765625;1.412576790047525;13.598326656461413;13.656646074602852;0.97802734375;0.392578125;-0.125;20.6875;10.5;23.4375;
1441975185026607;-0.69970703125;-0.11834716796875;-0.70281982421875;-0.05096435546875;1.3753344902826095;13.584866564454934;13.690193009740835;1.0703125;0.43408203125;-0.11181640625;21.9375;12.9375;28.75;
1441975185043608;-0.69970703125;-0.1171875;-0.70318603515625;-0.04718017578125;1.335150308823469;13.582213494789697;13.703467555790652;1.126953125;0.4794921875;-0.0830078125;17.8125;13.625;32.4375;
1441975185065609;-0.7000732421875;-0.115234375;-0.703369140625;-0.04461669921875;1.2982344877585519;13.584968029542834;13.7030869208755;1.130859375;0.40576171875;-0.05859375;9.5625;7.1875;29.1875;
1441975185086610;-0.70025634765625;-0.11358642578125;-0.70361328125;-0.0419921875;1.2634208261077817;13.584167210470458;13.707775643727153;1.09033203125;0.27880859375;-0.015625;2.1875;1.0625;20.5625;
1441975185102611;-0.7005615234375;-0.11297607421875;-0.70355224609375;-0.0391845703125;1.235521051670163;13.594116872811218;13.70671742432822;1.03759765625;0.16650390625;-0.00927734375;3.5625;1.6875;12.8125;
1441975185126612;-0.70123291015625;-0.11358642578125;-0.70294189453125;-0.0367431640625;1.2204170857801875;13.624052701546484;13.689185170925654;1.0146484375;0.14892578125;-0.0478515625;8.5625;3.0625;8.9375;
1441975185146614;-0.70233154296875;-0.11492919921875;-0.70172119140625;-0.03515625;1.2183463925344813;13.674241792858574;13.650941482299928;1.04443359375;0.21728515625;-0.09423828125;11.4375;2.3125;7.0625;
1441975185171615;-0.70330810546875;-0.1165771484375;-0.70050048828125;-0.03448486328125;1.226509152262707;13.72057573573012;13.614098869289531;1.08935546875;0.26708984375;-0.12109375;11.1875;-0.5625;3.9375;
1441975185185616;-0.7041015625;-0.11798095703125;-0.699462890625;-0.0343017578125;1.2368320480970112;13.757831245526477;13.58335696902738;1.0810546875;0.3046875;-0.1015625;9.1875;-2.375;1.25;
1441975185214617;-0.70465087890625;-0.11962890625;-0.69866943359375;-0.033935546875;1.2476325005944149;13.786249775536225;13.563191374631783;1.05859375;0.294921875;-0.07421875;6.3125;-3.5625;-0.4375;
1441975185230618;-0.70465087890625;-0.12213134765625;-0.69830322265625;-0.03271484375;1.2581831998048678;13.799710551501303;13.564967680804692;1.01025390625;0.22265625;-0.044921875;8.5;-3.25;-5.0;
1441975185245619;-0.70404052734375;-0.1248779296875;-0.69842529296875;-0.03179931640625;1.272914336215688;13.7924800914875;13.587222726907173;0.908203125;0.138671875;-0.02197265625;14.9375;-0.125;-9.25;
1441975185260620;-0.70355224609375;-0.12713623046875;-0.698486328125;-0.03302001953125;1.3010845581569819;13.782606029138325;13.601433596461113;0.80517578125;0.1240234375;-0.0244140625;14.25;4.3125;-12.0;
1441975185289622;-0.702880859375;-0.12969970703125;-0.69854736328125;-0.0360107421875;1.3461933358553217;13.766133783898951;13.616333659017588;0.7490234375;0.177734375;-0.04931640625;3.5;4.25;-13.9375;
1441975185305623;-0.70220947265625;-0.13275146484375;-0.69842529296875;-0.03961181640625;1.400391416726443;13.753108570403754;13.627337757963303;0.76513671875;0.23486328125;-0.02978515625;-2.0625;2.0625;-19.3125;
1441975185326624;-0.70166015625;-0.13592529296875;-0.69818115234375;-0.0430908203125;1.454633111829009;13.745376245578187;13.634041490244117;0.80908203125;0.2353515625;-0.0419921875;-2.6875;1.625;-24.875;
1441975185350625;-0.7017822265625;-0.1390380859375;-0.69732666015625;-0.0452880859375;1.4981587232325868;13.760908935024606;13.62243947912922;0.87548828125;0.28759765625;-0.05908203125;-1.9375;1.9375;-22.9375;
1441975185365626;-0.70184326171875;-0.141357421875;-0.6966552734375;-0.0472412109375;1.5332381765713412;13.771289421908097;13.613719408571512;0.95166015625;0.28564453125;-0.0791015625;3.25;-1.0625;-19.125;
1441975185386627;-0.70135498046875;-0.14404296875;-0.696533203125;-0.048095703125;1.5621013926844096;13.76820110648616;13.62444580964996;1.056640625;0.32177734375;-0.0380859375;1.875;-3.125;-15.0625;
1441975185409629;-0.70098876953125;-0.14678955078125;-0.69622802734375;-0.04931640625;1.5945476811984338;13.769064214189124;13.629998133437159;1.216796875;0.37353515625;-0.0068359375;7.875;-0.3125;-12.0625;
1441975185425629;-0.70050048828125;-0.1485595703125;-0.6961669921875;-0.05169677734375;1.6284271339806566;13.760347124178256;13.636379872180303;1.42138671875;0.4736328125;-0.013671875;6.5625;-1.375;-11.8125;
1441975185448631;-0.70074462890625;-0.1451416015625;-0.6962890625;-0.05657958984375;1.6404062509318191;13.744631025894895;13.618098138798938;1.62255859375;0.51318359375;-0.00439453125;-1.5625;-2.5625;-14.0;
1441975185462632;-0.6995849609375;-0.1337890625;-0.69873046875;-0.06719970703125;1.6340806506878087;13.64850090285572;13.624142078671092;1.63623046875;0.36474609375;-0.00830078125;-32.875;-8.0625;-13.75;
1441975185485633;-0.69708251953125;-0.12127685546875;-0.70233154296875;-0.078369140625;1.6236521433302324;13.512507665825341;13.663113050827398;1.60009765625;0.33056640625;0.044921875;-89.125;-3.0;-6.1875;
1441975185506634;-0.69500732421875;-0.11407470703125;-0.70513916015625;-0.08233642578125;1.5987481227788196;13.417278631885239;13.712576223960733;1.46728515625;0.1796875;-0.02294921875;-99.125;12.125;-12.0625;
1441975185522635;-0.69525146484375;-0.12060546875;-0.7047119140625;-0.0745849609375;1.5884561463718854;13.455397884297307;13.732880733946649;1.576171875;0.03564453125;-0.06494140625;-49.0625;18.75;-15.8125;
1441975185545636;-0.6920166015625;-0.1336669921875;-0.7054443359375;-0.0751953125;1.7020740674133512;13.435872971312241;13.803720664149136;1.716796875;-0.0810546875;-0.14013671875;55.0;15.75;-33.8125;
1441975185566638;-0.68670654296875;-0.15216064453125;-0.70703125;-0.07373046875;1.8456807584061914;13.403972060798461;13.918110305340072;1.56689453125;0.4462890625;0.0537109375;49.0;18.3125;-58.625;
1441975185589639;-0.6890869140625;-0.1790771484375;-0.69818115234375;-0.07598876953125;2.079319739932176;13.610393659666535;13.814592184355128;1.455078125;0.5283203125;-0.1064453125;74.5;45.125;-68.0;
1441975185605640;-0.6929931640625;-0.17767333984375;-0.69415283203125;-0.0802001953125;2.101194117945368;13.688092068460971;13.71385804413702;1.25537109375;0.8427734375;-0.56640625;95.8125;1.25;-91.4375;
1441975185626641;-0.6884765625;-0.166015625;-0.7012939453125;-0.08203125;2.022954436527423;13.525008692378867;13.820811392900552;1.103515625;0.47802734375;-0.4306640625;-26.375;-9.9375;-5.6875;
1441975185650642;-0.6849365234375;-0.1600341796875;-0.70623779296875;-0.0811767578125;1.9717079654032303;13.409880200733639;13.914548420152364;1.45361328125;0.2431640625;0.0537109375;-61.875;35.125;18.125;
1441975185665643;-0.6837158203125;-0.16259765625;-0.707275390625;-0.076904296875;1.959493145486284;13.395362592067885;13.957168065661426;1.4033203125;-0.07275390625;-0.0244140625;-27.625;33.875;-12.25;
1441975185686644;-0.6903076171875;-0.1671142578125;-0.70068359375;-0.0687255859375;1.9216906441276727;13.576339931857579;13.828255181856209;1.46435546875;-0.02197265625;0.1494140625;28.875;5.75;-29.875;
1441975185702645;-0.69866943359375;-0.16400146484375;-0.69354248046875;-0.06353759765625;1.8521683374307885;13.770908326075713;13.64183023503537;1.5078125;-0.14697265625;-0.1376953125;56.5;-34.375;-26.4375;
1441975185740648;-0.70623779296875;-0.16937255859375;-0.684814453125;-0.060546875;1.879396595312142;13.989830066360993;13.457498800479442;1.611328125;0.0517578125;-0.0966796875;16.375;-54.6875;5.3125;
1441975185746648;-0.71282958984375;-0.1776123046875;-0.6761474609375;-0.05694580078125;1.9327534245241924;14.192672983768206;13.303833913839007;1.4521484375;0.34033203125;-0.1865234375;41.5;-53.25;-15.375;
1441975185762649;-0.719482421875;-0.1888427734375;-0.66644287109375;-0.05120849609375;2.0020978644822782;14.406537222133078;13.160599520602746;1.298828125;0.2509765625;-0.1708984375;55.3125;-50.3125;-28.625;
1441975185786650;-0.72564697265625;-0.1990966796875;-0.656982421875;-0.04742431640625;2.0849637247342185;14.591228633564512;13.034794314111364;1.05517578125;0.552734375;-0.251953125;77.1875;-47.5625;-7.5;
1441975185814652;-0.72906494140625;-0.20684814453125;-0.65130615234375;-0.04022216796875;2.1105467033877896;14.717646683721462;12.970646226082417;0.95947265625;0.52880859375;-0.330078125;63.875;-42.5;-11.375;
1441975185822652;-0.73126220703125;-0.2069091796875;-0.649169921875;-0.033935546875;2.072931949526189;14.798195890175103;12.916020533733487;0.8662109375;0.36865234375;-0.18798828125;65.9375;-23.0625;1.5625;
1441975185845654;-0.7305908203125;-0.2025146484375;-0.6514892578125;-0.029296875;1.9946653133613133;14.799249791314558;12.915120285691454;0.96484375;0.3974609375;-0.22509765625;28.8125;-5.625;29.75;
1441975185866655;-0.7293701171875;-0.20318603515625;-0.65277099609375;-0.0255126953125;1.9638643762087074;14.792132162059836;12.940384052191382;1.0380859375;0.4169921875;-0.0693359375;3.125;10.625;40.375;
1441975185882656;-0.73040771484375;-0.20147705078125;-0.6522216796875;-0.023681640625;1.9405129896664168;14.823853231663907;12.908904732513795;0.93505859375;0.59326171875;-0.0830078125;21.125;10.1875;29.6875;
1441975185904657;-0.733154296875;-0.19219970703125;-0.65191650390625;-0.02532958984375;1.8899811944111282;14.86741199809804;12.819563245279198;0.830078125;0.5205078125;-0.1123046875;5.0;-5.5;32.3125;
1441975185926658;-0.73516845703125;-0.1798095703125;-0.653076171875;-0.0286865234375;1.8232077335269372;14.885200832356652;12.73606943631927;0.814453125;0.50390625;-0.1220703125;-37.9375;-14.9375;52.9375;
1441975185942659;-0.73748779296875;-0.166748046875;-0.65374755859375;-0.0328369140625;1.7605661803878396;14.912976340041157;12.636821286559522;0.8623046875;0.56640625;-0.060546875;-56.9375;-12.6875;62.875;
1441975185964660;-0.74090576171875;-0.15325927734375;-0.65301513671875;-0.03497314453125;1.6893350248547838;14.993975730276173;12.491066025093502;0.91064453125;0.35986328125;-0.080078125;-64.5625;-16.0625;49.3125;
1441975185986662;-0.74407958984375;-0.14324951171875;-0.6517333984375;-0.03424072265625;1.626561650053768;15.097651077159485;12.348905300722977;0.86181640625;0.2197265625;-0.11376953125;-58.0625;-21.8125;51.5;
1441975186002662;-0.7481689453125;-0.134521484375;-0.64886474609375;-0.0341796875;1.5912739311678932;15.22954813059406;12.18127271832493;0.7861328125;0.26171875;-0.11474609375;-31.6875;-18.8125;52.4375;
1441975186024664;-0.7530517578125;-0.12286376953125;-0.6453857421875;-0.03704833984375;1.566878303456837;15.373162759009753;11.977993731842295;0.681640625;0.3330078125;-0.17724609375;-28.5;-24.8125;52.0;
1441975186048665;-0.7578125;-0.10992431640625;-0.6419677734375;-0.0404052734375;1.5423743146732423;15.523062034225681;11.761259570351415;0.63037109375;0.322265625;-0.19091796875;-51.25;-31.875;54.375;
1441975186062666;-0.76141357421875;-0.09735107421875;-0.6395263671875;-0.0440673828125;1.5170789935952704;15.646794319037292;11.571020855887241;0.6201171875;0.24267578125;-0.1787109375;-58.8125;-32.625;53.5625;
1441975186084667;-0.76519775390625;-0.0889892578125;-0.6361083984375;-0.04534912109375;1.5139261070210546;15.782111959795882;11.396263606318463;0.62109375;0.19140625;-0.09814453125;-58.625;-30.3125;47.25;
1441975186115669;-0.7705078125;-0.0849609375;-0.63006591796875;-0.0467529296875;1.5649450673004563;15.919975015229664;11.236290572223568;0.60302734375;0.16796875;-0.1015625;-32.5625;-32.625;36.75;
1441975186122669;-0.77716064453125;-0.08062744140625;-0.62213134765625;-0.050048828125;1.6485630385952068;16.056194657659322;11.068993414649329;0.60302734375;0.27197265625;-0.1748046875;-14.6875;-44.1875;24.4375;
1441975186147671;-0.784912109375;-0.072998046875;-0.6129150390625;-0.05517578125;1.7447091167420004;16.201832807170362;10.871215228514489;0.55419921875;0.31884765625;-0.20068359375;-22.4375;-57.0625;22.6875;
1441975186169672;-0.79205322265625;-0.06219482421875;-0.604248046875;-0.06182861328125;1.8312810097570154;16.328745661879864;10.672757046819685;0.5185546875;0.2529296875;-0.19775390625;-41.6875;-68.6875;27.3125;
1441975186182673;-0.8021240234375;-0.05230712890625;-0.5909423828125;-0.06854248046875;1.9813548284116087;16.477587359625257;10.455640876507877;0.58642578125;0.2255859375;-0.1669921875;-60.125;-70.0625;33.5;
1441975186213675;-0.81268310546875;-0.0418701171875;-0.57672119140625;-0.07275390625;2.1378809685454496;16.640869285923547;10.231794169347294;0.36083984375;0.27734375;-0.59033203125;-58.3125;-69.5625;33.875;
1441975186235676;-0.822021484375;-0.0347900390625;-0.563232421875;-0.07720947265625;2.3001590168370294;16.74219437123171;10.082408523657127;0.02294921875;0.05224609375;-0.52978515625;-51.3125;-72.875;33.875;
1441975186249677;-0.82208251953125;-0.02880859375;-0.5625;-0.08367919921875;2.307858719910618;16.715075074184952;10.057982161827937;0.5322265625;0.3203125;-0.6796875;-37.3125;-67.25;29.3125;
1441975186264677;-0.8297119140625;-0.0244140625;-0.550537109375;-0.08935546875;2.4615094180081427;16.756713770482047;9.973905387252769;1.32861328125;0.43359375;0.267578125;-35.5625;-58.0;19.5;
1441975186288679;-0.83282470703125;-0.0186767578125;-0.54449462890625;-0.09814453125;2.541491022489815;16.732088402959214;9.93769583027839;0.07568359375;0.19287109375;-0.6123046875;-37.75;-47.3125;9.0625;
1441975186309680;-0.83282470703125;-0.01019287109375;-0.54296875;-0.107421875;2.5557110484333228;16.693586890616665;9.902168932485178;0.921875;0.3623046875;-0.41162109375;-52.875;-41.75;8.0;
1441975186324681;-0.835693359375;-0.0040283203125;-0.537353515625;-0.1138916015625;2.6220473597963996;16.692933843660082;9.849593046915897;0.876953125;0.1416015625;0.1201171875;-65.3125;-44.5625;8.1875;
1441975186354683;-0.83941650390625;-6.103515625E-4;-0.53070068359375;-0.11767578125;2.703675720094912;16.707589798825374;9.80405020646198;1.0849609375;0.1884765625;-0.3701171875;-47.6875;-46.6875;3.3125;
1441975186369683;-0.84222412109375;-4.8828125E-4;-0.52545166015625;-0.1209716796875;2.775938572889725;16.699365120524543;9.797195710628555;0.66552734375;0.11962890625;-0.3857421875;-28.0;-40.875;-1.5625;
1441975186384684;-0.84466552734375;-0.00225830078125;-0.520751953125;-0.12420654296875;2.8466531849255663;16.67846424247491;9.811169500611074;0.64697265625;0.2109375;-0.3779296875;-13.5;-29.4375;-9.125;
1441975186408686;-0.84710693359375;-0.00360107421875;-0.515869140625;-0.12774658203125;2.918675718757382;16.6582761667475;9.82128620401357;0.65185546875;0.29833984375;-0.35986328125;-5.0625;-26.125;-12.8125;
1441975186429687;-0.849365234375;-0.00213623046875;-0.51080322265625;-0.13299560546875;2.987437345052866;16.637296681697315;9.813162225509906;0.65771484375;0.36572265625;-0.37451171875;-6.25;-27.125;-8.125;
1441975186445688;-0.850830078125;-6.103515625E-5;-0.50701904296875;-0.13836669921875;3.038467714591904;16.612652418843037;9.80575896622665;0.72900390625;0.3564453125;-0.38916015625;-23.0;-31.4375;-2.0;
1441975186468689;-0.851318359375;0.00189208984375;-0.505126953125;-0.1422119140625;3.062957472319297;16.593596450399545;9.79998778489456;0.75830078125;0.2470703125;-0.30810546875;-28.4375;-29.4375;-6.125;
1441975186489690;-0.85064697265625;0.002197265625;-0.50531005859375;-0.14532470703125;3.065357097243238;16.563948804639114;9.815141216526152;0.74267578125;0.09912109375;-0.0498046875;-21.75;-32.8125;-9.5625;
1441975186504691;-0.8526611328125;0.002197265625;-0.5010986328125;-0.14813232421875;3.122720533886027;16.55599764005788;9.810351769117526;1.04052734375;0.17822265625;0.03759765625;-10.3125;-32.375;-14.5;
1441975186528693;-0.85577392578125;0.00262451171875;-0.494873046875;-0.15106201171875;3.203456248805233;16.557558051360406;9.79328060288449;0.71630859375;0.1787109375;-0.26904296875;-11.3125;-33.25;-13.3125;
1441975186549694;-0.85797119140625;0.00372314453125;-0.4903564453125;-0.1531982421875;3.259237551274961;16.561730039954025;9.774435285715242;0.78662109375;0.26513671875;-0.3984375;-11.625;-41.5625;-10.3125;
1441975186564695;-0.85980224609375;0.0047607421875;-0.486572265625;-0.15521240234375;3.3061646647718;16.563464995252694;9.75893642146646;0.94482421875;0.275390625;-0.39111328125;-9.625;-37.4375;-5.1875;
1441975186588696;-0.8612060546875;0.00555419921875;-0.4827880859375;-0.158935546875;3.356256807440582;16.54792597309053;9.75430835157498;1.02783203125;0.31884765625;-0.42724609375;-8.4375;-34.0625;-4.0625;
1441975186609697;-0.8619384765625;0.00701904296875;-0.47943115234375;-0.16510009765625;3.4032979242843098;16.511693238109224;9.757106028912224;0.95947265625;0.2890625;-0.40234375;-17.3125;-32.3125;-11.1875;
1441975186624698;-0.8623046875;0.01007080078125;-0.47613525390625;-0.17242431640625;3.445882122117387;16.471638559697624;9.751926455050652;0.84033203125;0.21240234375;-0.34326171875;-33.3125;-28.375;-16.8125;
1441975186648699;-0.8624267578125;0.0140380859375;-0.47283935546875;-0.1802978515625;3.4856065876372844;16.430423788220573;9.74150196715217;0.8203125;0.19482421875;-0.38037109375;-45.5;-26.0;-13.5625;
1441975186670701;-0.8623046875;0.0181884765625;-0.47039794921875;-0.18682861328125;3.5116503687089993;16.398594527343015;9.72684840101615;0.8818359375;0.22509765625;-0.4345703125;-51.0;-25.4375;-10.5;
1441975186684701;-0.8621826171875;0.0211181640625;-0.46844482421875;-0.19183349609375;3.5329971266670284;16.37335819713744;9.717398859927581;0.93310546875;0.17919921875;-0.4296875;-47.125;-23.125;-9.3125;
1441975186715703;-0.86224365234375;0.02227783203125;-0.46661376953125;-0.19586181640625;3.5574963319442796;16.3494039058529;9.718366956859848;0.93359375;0.146484375;-0.4443359375;-37.375;-18.5;-13.0625;
1441975186729704;-0.86248779296875;0.02264404296875;-0.4649658203125;-0.19879150390625;3.5809286385585266;16.331538475860356;9.72141763947622;0.85888671875;0.11572265625;-0.419921875;-28.8125;-15.4375;-19.5625;
1441975186745705;-0.86248779296875;0.02227783203125;-0.4637451171875;-0.20159912109375;3.601490470071943;16.31020845707479;9.731633582877421;0.80517578125;0.09716796875;-0.4169921875;-21.4375;-12.8125;-20.6875;
1441975186768706;-0.86248779296875;0.0213623046875;-0.46295166015625;-0.20361328125;3.6178740615764347;16.292310889885517;9.744351424611589;0.82275390625;0.15673828125;-0.427734375;-17.4375;-9.375;-20.6875;
1441975186789708;-0.86224365234375;0.01995849609375;-0.4625244140625;-0.20550537109375;3.6312268387129625;16.272045445525162;9.762085330727016;0.89501953125;0.23681640625;-0.474609375;-10.8125;-6.375;-18.3125;
1441975186804708;-0.8616943359375;0.018310546875;-0.46282958984375;-0.20758056640625;3.6378766960812503;16.246812074610688;9.78534799813214;0.953125;0.29443359375;-0.4990234375;-7.375;-4.0;-18.1875;
1441975186827710;-0.86065673828125;0.017822265625;-0.4632568359375;-0.2108154296875;3.6404612558689706;16.214935533914044;9.805240491048778;0.955078125;0.35302734375;-0.48486328125;-6.1875;-0.25;-16.3125;
1441975186849711;-0.85943603515625;0.018310546875;-0.4637451171875;-0.214599609375;3.6397997431509994;16.18162118421485;9.820068737466453;0.927734375;0.33544921875;-0.46728515625;-15.75;0.5625;-13.8125;
1441975186864712;-0.8583984375;0.019287109375;-0.4637451171875;-0.21856689453125;3.643354106281375;16.150505731746172;9.829650293825745;0.89794921875;0.30224609375;-0.4306640625;-22.125;-0.125;-12.0625;
1441975186887713;-0.85760498046875;0.020263671875;-0.4632568359375;-0.22265625;3.653027670217044;16.120538376075153;9.837378609811358;0.86083984375;0.27587890625;-0.42529296875;-25.0;-3.0;-11.6875;
1441975186909714;-0.85736083984375;0.02117919921875;-0.46197509765625;-0.22613525390625;3.6709372993941023;16.099102135070684;9.839188399253516;0.81494140625;0.2802734375;-0.4150390625;-24.8125;-4.5;-11.5;
1441975186924715;-0.8572998046875;0.0218505859375;-0.46044921875;-0.22943115234375;3.692348537036894;16.079558259933478;9.840829108592537;0.78466796875;0.28076171875;-0.435546875;-22.3125;-7.875;-10.75;
1441975186947717;-0.857421875;0.02142333984375;-0.45904541015625;-0.23175048828125;3.7148664141154377;16.064094039065854;9.847323697894929;0.7841796875;0.2939453125;-0.42822265625;-19.5625;-9.9375;-11.5;
1441975186970718;-0.857666015625;0.02032470703125;-0.45745849609375;-0.23419189453125;3.7427868190359046;16.04636478264938;9.858328169774706;0.78466796875;0.31396484375;-0.4150390625;-10.875;-9.0625;-13.1875;
1441975186984719;-0.85791015625;0.0191650390625;-0.45538330078125;-0.2373046875;3.777702065099934;16.02477617191206;9.870216393917334;0.78271484375;0.3623046875;-0.43408203125;-8.8125;-8.5625;-15.0;
1441975187007720;-0.8580322265625;0.01904296875;-0.45330810546875;-0.240966796875;3.8096102353502914;16.002376831577244;9.876120640020963;0.76416015625;0.4208984375;-0.44873046875;-10.4375;-9.25;-14.0;
1441975187030721;-0.8580322265625;0.01959228515625;-0.451416015625;-0.2442626953125;3.8353627777219192;15.984256993823054;9.876483457034455;0.7509765625;0.412109375;-0.453125;-16.6875;-9.8125;-11.1875;
1441975187044722;-0.8583984375;0.019287109375;-0.449462890625;-0.24676513671875;3.864283051353702;15.970783126323333;9.87936473503431;0.72802734375;0.373046875;-0.45263671875;-18.125;-9.0;-8.5;
1441975187067723;-0.85894775390625;0.01812744140625;-0.447509765625;-0.24835205078125;3.8946838009356295;15.962089635423402;9.885056654359108;0.7294921875;0.38818359375;-0.46923828125;-11.8125;-8.5625;-10.25;
1441975187090725;-0.85943603515625;0.0172119140625;-0.445556640625;-0.25018310546875;3.9245979931219037;15.952264335291256;9.889764390789605;0.7431640625;0.41796875;-0.484375;-4.3125;-7.5625;-11.1875;
1441975187112726;-0.85986328125;0.01654052734375;-0.44390869140625;-0.25177001953125;3.9496135951677784;15.944111312000159;9.893002093227414;0.72998046875;0.43798828125;-0.48583984375;-5.5;-7.4375;-9.5;
1441975187127727;-0.86016845703125;0.01544189453125;-0.442626953125;-0.25311279296875;3.9718102278625347;15.935158637773402;9.90007686535046;0.7236328125;0.41748046875;-0.47998046875;-5.8125;-6.375;-8.5625;
1441975187156728;-0.860595703125;0.01397705078125;-0.4412841796875;-0.25396728515625;3.9950941474524897;15.929288558940865;9.907727006569083;0.71728515625;0.41748046875;-0.46826171875;-3.3125;-4.3125;-9.125;
1441975187164729;-0.86102294921875;0.0126953125;-0.43988037109375;-0.25506591796875;4.018960339096741;15.92243306337859;9.914506935812389;0.72900390625;0.44580078125;-0.490234375;0.5625;-3.9375;-9.375;
1441975187202731;-0.8614501953125;0.01165771484375;-0.43878173828125;-0.255615234375;4.037154132481547;15.919567064536201;9.918853020380196;0.7421875;0.45654296875;-0.48583984375;-0.875;-5.1875;-8.8125;
1441975187210732;-0.86199951171875;0.01019287109375;-0.43743896484375;-0.256103515625;4.059767643233984;15.916933650530916;9.924928219077131;0.74951171875;0.4365234375;-0.4736328125;1.0625;-5.0;-7.5625;
1441975187224732;-0.86224365234375;0.00860595703125;-0.43621826171875;-0.257568359375;4.083808955128574;15.905699167598723;9.935832148387082;0.736328125;0.46044921875;-0.4892578125;2.5625;-4.9375;-8.25;
1441975187247734;-0.86273193359375;0.00677490234375;-0.434326171875;-0.2591552734375;4.1165581050823645;15.895523793441562;9.945822570981559;0.7265625;0.49609375;-0.466796875;0.0;-4.5625;-9.3125;
1441975187278735;-0.86328125;0.00543212890625;-0.43182373046875;-0.26153564453125;4.155711423475786;15.883000283725394;9.952242136171966;0.6962890625;0.4833984375;-0.482421875;-1.3125;-6.125;-11.6875;
1441975187300737;-0.864013671875;0.00408935546875;-0.4288330078125;-0.263916015625;4.200127583165161;15.872451391753405;9.956402585699042;0.673828125;0.48291015625;-0.49658203125;-6.5625;-8.75;-12.3125;
1441975187307737;-0.8648681640625;0.001953125;-0.425537109375;-0.26654052734375;4.252224513696065;15.85938669816712;9.96523465245089;0.66162109375;0.47509765625;-0.50341796875;-6.9375;-11.25;-13.0625;
1441975187330738;-0.86553955078125;-4.8828125E-4;-0.42236328125;-0.2694091796875;4.304772079892151;15.843204500401615;9.977375332535216;0.64794921875;0.505859375;-0.525390625;-6.0;-10.25;-16.75;
1441975187353740;-0.86663818359375;-0.00360107421875;-0.4183349609375;-0.2720947265625;4.369331696221899;15.830369543496188;9.989422063852295;0.6298828125;0.50244140625;-0.5205078125;-6.875;-9.0625;-18.875;
1441975187367741;-0.867919921875;-0.00738525390625;-0.41351318359375;-0.275146484375;4.4463133912167745;15.816296326566048;10.003464155417193;0.61083984375;0.505859375;-0.54833984375;-4.3125;-11.6875;-22.875;
1441975187391742;-0.86968994140625;-0.0115966796875;-0.407958984375;-0.2777099609375;4.532209298064748;15.808221546644072;10.015222817755417;0.5888671875;0.5341796875;-0.5283203125;-3.0;-15.5625;-26.625;
1441975187419744;-0.87109375;-0.0146484375;-0.4022216796875;-0.28155517578125;4.617601040536125;15.793961022893452;10.022170822443922;0.57177734375;0.56201171875;-0.556640625;1.25;-18.4375;-28.0;
1441975187427744;-0.872314453125;-0.0172119140625;-0.3968505859375;-0.2852783203125;4.696331935465285;15.780452329038443;10.026905228514574;0.5947265625;0.59228515625;-0.546875;-7.1875;-22.25;-25.3125;
1441975187450745;-0.87384033203125;-0.020751953125;-0.3909912109375;-0.288330078125;4.782967374168111;15.771544206527185;10.033961735897952;0.6259765625;0.5283203125;-0.53955078125;-10.25;-23.125;-27.0;
1441975187479747;-0.87542724609375;-0.0244140625;-0.38525390625;-0.291015625;4.868020019966721;15.764890259646275;10.041044341319791;0.6025390625;0.53369140625;-0.529296875;-3.75;-24.5625;-30.875;
1441975187487747;-0.8765869140625;-0.02728271484375;-0.3800048828125;-0.294189453125;4.945108734748416;15.75452480752561;10.046304504172772;0.5986328125;0.515625;-0.51318359375;-1.625;-25.3125;-32.1875;
1441975187510749;-0.877685546875;-0.0291748046875;-0.37469482421875;-0.2974853515625;5.018423190459193;15.745329367994856;10.045442830849767;0.58544921875;0.486328125;-0.494140625;-7.25;-24.3125;-29.6875;
1441975187531750;-0.8782958984375;-0.02996826171875;-0.37066650390625;-0.3006591796875;5.072586847738439;15.734720085950443;10.042406604639218;0.56298828125;0.45947265625;-0.48779296875;-10.75;-25.75;-26.375;
1441975187547751;-0.87908935546875;-0.03070068359375;-0.36761474609375;-0.30206298828125;5.111877846569385;15.73362137709703;10.038410713068636;0.58642578125;0.4287109375;-0.44921875;-13.6875;-23.125;-21.125;
1441975187570752;-0.879638671875;-0.03125;-0.36602783203125;-0.30230712890625;5.1319018286424525;15.736133938958357;10.036246530144403;0.59619140625;0.39501953125;-0.45703125;-6.1875;-18.8125;-17.6875;
1441975187592753;-0.87982177734375;-0.031005859375;-0.3660888671875;-0.3017578125;5.128887011899039;15.740346271565269;10.033607519847745;0.607421875;0.40380859375;-0.43896484375;-0.25;-12.625;-11.9375;
1441975187607754;-0.87939453125;-0.02972412109375;-0.367919921875;-0.30084228515625;5.101235957765255;15.743112042712141;10.030573542440298;0.6044921875;0.396484375;-0.427734375;1.375;-4.875;-3.5;
1441975187637756;-0.87823486328125;-0.027099609375;-0.3717041015625;-0.2999267578125;5.046606117632913;15.741996880059832;10.026706263300172;0.60693359375;0.38916015625;-0.41357421875;-0.25;2.75;5.3125;
1441975187651757;-0.87646484375;-0.02313232421875;-0.37750244140625;-0.29803466796875;4.961587502668369;15.743336288928317;10.020152020873061;0.6171875;0.39453125;-0.384765625;-3.3125;10.75;15.375;
1441975187667758;-0.8741455078125;-0.01806640625;-0.38543701171875;-0.295166015625;4.846349450661661;15.746777540133944;10.012517681831477;0.65087890625;0.39306640625;-0.38427734375;-2.6875;19.25;26.75;
1441975187690759;-0.87139892578125;-0.012451171875;-0.39532470703125;-0.29034423828125;4.7024046193856;15.758454796287463;10.004195431717932;0.69580078125;0.3798828125;-0.35791015625;-0.75;27.6875;36.9375;
1441975187711760;-0.8680419921875;-0.00640869140625;-0.40582275390625;-0.28619384765625;4.551053373257551;15.763857687251694;9.997395908813402;0.73779296875;0.37158203125;-0.36328125;6.375;36.875;46.125;
1441975187727761;-0.863525390625;0.00115966796875;-0.4168701171875;-0.28387451171875;4.389733487036828;15.755881352699788;9.98909805368879;0.76904296875;0.40234375;-0.38330078125;1.6875;41.6875;49.3125;
1441975187758763;-0.8582763671875;0.01043701171875;-0.42864990234375;-0.28204345703125;4.21269451172981;15.744755082464257;9.974830056037;0.81787109375;0.39794921875;-0.3447265625;-12.1875;42.375;53.1875;
1441975187771764;-0.85284423828125;0.02020263671875;-0.44085693359375;-0.27923583984375;4.025403613313431;15.740431543342945;9.956356356626344;0.85400390625;0.3115234375;-0.333984375;-22.3125;44.625;57.1875;
1441975187787765;-0.84686279296875;0.02984619140625;-0.45440673828125;-0.27490234375;3.819115917766514;15.741895655710948;9.940030462173265;0.8916015625;0.27880859375;-0.33984375;-20.0;46.75;61.1875;
1441975187809766;-0.8404541015625;0.039306640625;-0.46905517578125;-0.26873779296875;3.5957670146334575;15.752848335757927;9.923412257673743;0.97265625;0.29248046875;-0.310546875;-11.8125;52.6875;66.5;
1441975187831767;-0.83355712890625;0.04974365234375;-0.48345947265625;-0.2628173828125;3.3690338751953104;15.766203171753164;9.898723870811176;1.033203125;0.337890625;-0.32763671875;-2.0625;60.375;75.4375;
1441975187847768;-0.82568359375;0.061767578125;-0.49786376953125;-0.2581787109375;3.1353820978324776;15.77413535168557;9.866901476408259;1.06396484375;0.39306640625;-0.34716796875;-5.625;61.0625;83.5;
1441975187869769;-0.8167724609375;0.07550048828125;-0.5123291015625;-0.2545166015625;2.8922209874291536;15.779970631745595;9.825571248325152;1.06103515625;0.3896484375;-0.30712890625;-16.375;62.0;90.5625;
1441975187899771;-0.80718994140625;0.09051513671875;-0.52655029296875;-0.2510986328125;2.643242240029507;15.79275690633171;9.770598804052707;1.056640625;0.33837890625;-0.29345703125;-28.5625;64.375;95.625;
1441975187908772;-0.79779052734375;0.10540771484375;-0.53973388671875;-0.2474365234375;2.404231398866185;15.819719271021514;9.702463056017045;1.0966796875;0.2900390625;-0.28955078125;-35.5625;64.875;99.375;
1441975187930773;-0.78759765625;0.12017822265625;-0.55340576171875;-0.2430419921875;2.155516569725692;15.85809386577093;9.626372789340554;1.16943359375;0.22412109375;-0.27294921875;-35.0;64.5;101.6875;
1441975187953774;-0.7763671875;0.13568115234375;-0.5675048828125;-0.2384033203125;1.8945543644523213;15.912799136264553;9.531676512386284;1.18896484375;0.26025390625;-0.26220703125;-31.8125;68.8125;105.625;
1441975187967775;-0.76397705078125;0.15203857421875;-0.58184814453125;-0.23394775390625;1.623518863398728;15.98909972884077;9.41059672718066;1.18408203125;0.27197265625;-0.25;-33.9375;73.75;112.125;
1441975187989776;-0.75164794921875;0.1693115234375;-0.59515380859375;-0.2286376953125;1.3592086091397626;16.138865773236727;9.215013341359718;1.10595703125;0.26416015625;-0.189453125;-38.8125;77.375;117.5625;
1441975188018778;-0.738525390625;0.186767578125;-0.60809326171875;-0.22381591796875;1.100273990095269;16.35933639651041;8.945019291203277;1.251953125;0.322265625;-0.40087890625;-39.1875;74.25;124.1875;
1441975188027778;-0.7249755859375;0.20416259765625;-0.62066650390625;-0.218017578125;0.8533993938845726;16.75076200679631;8.50737132785561;0.7626953125;0.1982421875;-0.423828125;-43.6875;77.9375;123.25;
1441975188049780;-0.71087646484375;0.2215576171875;-0.6331787109375;-0.2115478515625;0.6350690476213618;17.47400241124325;7.73990699184224;0.62548828125;0.16357421875;-0.4541015625;-40.3125;78.1875;126.4375;
1441975188073781;-0.6959228515625;0.2393798828125;-0.64556884765625;-0.20416259765625;0.4980424940115076;0.8336538738365098;6.33678303537667;0.60205078125;0.193359375;-0.47216796875;-37.9375;79.9375;130.625;
1441975188087782;-0.68084716796875;0.2581787109375;-0.65673828125;-0.1962890625;0.5383743590445818;2.497535011029961;4.625856957658223;0.6708984375;0.24267578125;-0.4912109375;-36.625;81.1875;137.75;
1441975188109783;-0.6654052734375;0.278076171875;-0.66656494140625;-0.18896484375;0.7225566392274788;3.5711459893058346;3.4965871973812286;0.80078125;0.29296875;-0.5537109375;-39.625;76.375;143.6875;
1441975188132784;-0.64959716796875;0.29803466796875;-0.6754150390625;-0.18182373046875;0.9657180009169658;4.13087836666026;2.8783162242594824;0.9951171875;0.34521484375;-0.54931640625;-48.0625;71.875;147.0625;
1441975188155786;-0.63372802734375;0.31671142578125;-0.6839599609375;-0.17413330078125;1.2272106914785494;4.448868238491601;2.50807280570342;1.20703125;0.29296875;-0.484375;-50.6875;69.0;146.4375;
1441975188184787;-0.61810302734375;0.33343505859375;-0.6923828125;-0.16571044921875;1.4904963144048309;4.651793451774816;2.263093656033121;1.3671875;0.2431640625;-0.38818359375;-44.125;67.1875;144.4375;
1441975188193788;-0.60260009765625;0.3487548828125;-0.70062255859375;-0.1563720703125;1.7563285312025863;4.7906700872977135;2.0907050348217293;1.4755859375;0.24267578125;-0.2529296875;-34.1875;64.8125;141.0625;
1441975188213789;-0.58697509765625;0.36505126953125;-0.70751953125;-0.1473388671875;2.026904735936803;4.868896746290205;1.9716257318509094;1.5498046875;0.31103515625;-0.12841796875;-26.3125;61.25;142.0625;
1441975188229790;-0.5706787109375;0.381103515625;-0.714111328125;-0.13848876953125;2.2990592106641903;4.928603442304032;1.8694668614395398;1.6259765625;0.27099609375;-0.04541015625;-34.3125;55.875;143.875;
1441975188252791;-0.5540771484375;0.39471435546875;-0.72161865234375;-0.1285400390625;2.5698720033990137;4.994300676130862;1.7754939585358522;1.5498046875;0.1025390625;0.0634765625;-35.375;56.5625;141.625;
1441975188281793;-0.538330078125;0.4063720703125;-0.7288818359375;-0.117919921875;2.8297420713036288;5.048605811594657;1.703726999017919;1.35986328125;0.05322265625;0.11865234375;-21.0625;59.9375;138.1875;
1441975188289793;-0.5220947265625;0.41802978515625;-0.735595703125;-0.107666015625;3.0896621596097966;5.092005105324219;1.6395750426793605;0.8193359375;0.19091796875;-0.20947265625;-8.1875;60.0;131.375;
1441975188312795;-0.50653076171875;0.42999267578125;-0.74078369140625;-0.09912109375;3.3315562922209825;5.1155621137444;1.5857606111081768;0.796875;0.12890625;-0.140625;-11.5;60.375;129.875;
1441975188335796;-0.49176025390625;0.43988037109375;-0.74591064453125;-0.09112548828125;3.553315332920399;5.143054681727471;1.5348359775503757;0.73388671875;0.03369140625;-0.080078125;-21.3125;55.8125;119.8125;
1441975188349797;-0.480712890625;0.4456787109375;-0.7503662109375;-0.08544921875;3.7104643056299143;5.174004881080165;1.4922998431818104;0.70556640625;-0.0283203125;-0.04443359375;-14.0;54.5625;108.3125;
1441975188374798;-0.4716796875;0.44927978515625;-0.7545166015625;-0.08026123046875;3.838611330499108;5.205559821856308;1.4586979514567817;0.7119140625;-0.0517578125;-0.0087890625;-2.4375;50.0;96.875;
1441975188394799;-0.46502685546875;0.451904296875;-0.75738525390625;-0.0772705078125;3.9268162685898287;5.228021524750311;1.4312290297197312;0.71240234375;-0.017578125;-0.03369140625;6.5;44.5;86.5;
1441975188417801;-0.4608154296875;0.45391845703125;-0.7587890625;-0.0765380859375;3.975388384966519;5.239392487420821;1.4099855977756501;0.701171875;0.02392578125;-0.0087890625;1.125;35.625;69.4375;
1441975188440802;-0.45819091796875;0.4552001953125;-0.759521484375;-0.077392578125;3.9962649206217846;5.247592362013986;1.3900875718109629;0.6611328125;-0.0478515625;9.765625E-4;-4.25;26.875;45.875;
1441975188453803;-0.45611572265625;0.45538330078125;-0.7606201171875;-0.07781982421875;4.011735312481919;5.26109642386697;1.372483849475203;0.5966796875;-0.04296875;-0.0146484375;-6.1875;22.4375;30.5;
1441975188469804;-0.4560546875;0.45233154296875;-0.762451171875;-0.0784912109375;3.9969737702714827;5.289909040820492;1.356132409689101;0.52197265625;-0.115234375;0.0029296875;1.4375;19.125;21.125;
1441975188492805;-0.45947265625;0.44647216796875;-0.76348876953125;-0.08148193359375;3.9253146722139496;5.322122596263903;1.342885123294683;0.525390625;-0.04443359375;-0.03515625;18.25;16.3125;10.25;
1441975188530807;-0.4659423828125;0.44012451171875;-0.76275634765625;-0.0863037109375;3.8119537825075263;5.340014037541691;1.3407452405260953;0.5888671875;0.0595703125;-0.02880859375;22.5625;6.75;-8.75;
1441975188533807;-0.47393798828125;0.4317626953125;-0.761962890625;-0.091796875;3.6728823997260127;5.365653698521916;1.3384691144205594;0.62548828125;0.0029296875;-0.013671875;16.5;-6.4375;-29.0;
1441975188552808;-0.48468017578125;0.41827392578125;-0.761962890625;-0.0977783203125;3.4875171113441596;5.418902435823661;1.3323695731973038;0.6201171875;-0.14697265625;0.02978515625;24.5;-13.25;-50.25;
1441975188565809;-0.499267578125;0.40289306640625;-0.759765625;-0.10595703125;3.2437251317770976;5.462674425807003;1.336669673739917;0.607421875;-0.11376953125;-0.01025390625;50.375;-16.875;-72.6875;
1441975188588810;-0.514892578125;0.39111328125;-0.7540283203125;-0.1158447265625;2.9882420734421307;5.4602189461915245;1.3620163006672397;0.56884765625;0.04736328125;-0.05029296875;48.5;-32.0;-91.9375;
1441975188604811;-0.53338623046875;0.380615234375;-0.744140625;-0.13006591796875;2.677137396228614;5.4140425697226435;1.4070908854360478;0.64404296875;0.16552734375;-0.08740234375;19.3125;-51.375;-108.5;
1441975188625813;-0.5545654296875;0.3648681640625;-0.7337646484375;-0.144775390625;2.3154163251057627;5.378472107567819;1.4632289790672433;0.7783203125;-0.0439453125;-0.0478515625;-6.0;-67.6875;-135.6875;
1441975188649814;-0.5784912109375;0.34423828125;-0.72222900390625;-0.15899658203125;1.9086229570127577;5.332932586851365;1.551974833000098;0.84326171875;-0.08056640625;-0.0390625;15.625;-75.9375;-160.5625;
1441975188663815;-0.6046142578125;0.32244873046875;-0.707275390625;-0.1741943359375;1.4650862151917607;5.19830426913285;1.7281756678097953;0.900390625;0.11962890625;-0.05029296875;37.25;-88.0625;-178.0625;
1441975188685816;-0.63116455078125;0.3018798828125;-0.68798828125;-0.193115234375;0.9955227876162382;4.850835630969755;2.092368811588053;1.060546875;0.28076171875;-0.11083984375;34.25;-105.0;-191.375;
1441975188708817;-0.657958984375;0.27813720703125;-0.66693115234375;-0.21221923828125;0.5392189545072545;3.8720446153573085;3.096948511304264;1.2939453125;0.2822265625;-0.13916015625;9.0625;-116.25;-207.5625;
1441975188723818;-0.68585205078125;0.2489013671875;-0.64422607421875;-0.2296142578125;0.37178325297689124;0.2536682251116298;6.767635939304558;1.49462890625;0.12158203125;-0.197265625;17.75;-119.75;-226.6875;
1441975188754820;-0.7147216796875;0.2169189453125;-0.6171875;-0.24755859375;0.829070269318811;16.166752096617405;8.910725045836347;1.7119140625;0.10400390625;-0.2783203125;44.4375;-126.5;-247.25;
1441975188768821;-0.742919921875;0.18804931640625;-0.58319091796875;-0.26959228515625;1.4570210339299106;15.695786582997599;9.400255083697854;1.8466796875;0.43798828125;-0.17041015625;47.5;-145.9375;-264.125;
1441975188784822;-0.76593017578125;0.16754150390625;-0.54266357421875;-0.30145263671875;2.1215644246636067;15.46640029032211;9.561854493239672;1.998046875;0.89453125;-0.2314453125;11.125;-173.1875;-271.0625;
1441975188806823;-0.78460693359375;0.14764404296875;-0.50189208984375;-0.332763671875;2.764901248292566;15.315337354327172;9.63698618523419;2.1357421875;1.02392578125;-0.15234375;-72.625;-190.0625;-275.0625;
1441975188828824;-0.8017578125;0.1220703125;-0.46478271484375;-0.35546875;3.369635926070108;15.231694155048299;9.702450505740362;2.23828125;0.51953125;-0.2822265625;-82.0625;-179.375;-280.25;
1441975188843825;-0.821533203125;0.08892822265625;-0.42889404296875;-0.36505126953125;3.9682088355570757;15.246466516071823;9.75814254475966;2.18017578125;0.12451171875;-0.4775390625;-30.125;-153.4375;-281.5;
1441975188867826;-0.84033203125;0.05364990234375;-0.39581298828125;-0.36663818359375;4.521253959120246;15.303621622764235;9.818580126706792;2.208984375;-0.08251953125;-0.74853515625;59.375;-143.5;-264.875;
1441975188889828;-0.85809326171875;0.010986328125;-0.3690185546875;-0.35699462890625;5.01255568665519;15.401441333252926;9.92928789584894;2.2939453125;0.259765625;-0.58544921875;101.9375;-127.6875;-249.25;
1441975188903828;-0.874755859375;-0.03875732421875;-0.34906005859375;-0.333984375;5.4215073932925115;15.554952540667541;10.088786167449415;2.19970703125;0.23388671875;-0.4189453125;172.5;-82.6875;-245.375;
1441975188925830;-0.89007568359375;-0.0950927734375;-0.3314208984375;-0.2982177734375;5.777567675375572;15.770590990757402;10.285266079044877;2.0263671875;0.42138671875;-0.3408203125;251.0625;-47.8125;-256.3125;
