1441975663163955;0.1712646484375;-0.7225341796875;-0.6201171875;-0.25335693359375;12.534199496452928;13.861428597803553;17.765400590279427;-2.19287109375;0.3818359375;-0.11865234375;-16.375;85.8125;277.3125;
1441975663186956;0.17279052734375;-0.70538330078125;-0.65325927734375;-0.21435546875;12.187697945352218;13.684729395146784;17.87754226136272;-2.08203125;0.1435546875;-0.0859375;-155.0;102.6875;215.5;
1441975663202957;0.17974853515625;-0.6783447265625;-0.68994140625;-0.1776123046875;11.927380866604175;13.450393630714672;17.99598935190728;-1.86279296875;-0.2900390625;-0.130859375;-238.8125;109.625;163.625;
1441975663223958;0.18719482421875;-0.64398193359375;-0.72808837890625;-0.1419677734375;11.70924770551934;13.175877819459505;0.11062351021546891;-1.71337890625;-0.5732421875;-0.14794921875;-295.0625;105.125;128.0;
1441975663239959;0.19647216796875;-0.61016845703125;-0.759521484375;-0.11090087890625;11.570590470359498;12.929496150452291;0.2269112063959783;-1.5107421875;-0.6279296875;-0.2041015625;-329.0625;93.9375;115.5625;
1441975663262960;0.20404052734375;-0.58575439453125;-0.7799072265625;-0.0843505859375;11.46476304712187;12.765110937601992;0.3394791792472926;-1.333984375;-0.453125;-0.12158203125;-298.375;88.375;108.875;
1441975663283961;0.211181640625;-0.56964111328125;-0.79180908203125;-0.063232421875;11.398207903987934;12.667274516240854;0.44213756610717736;-1.216796875;-0.3115234375;-0.10498046875;-212.4375;82.375;95.3125;
1441975663306963;0.224853515625;-0.55816650390625;-0.79705810546875;-0.051513671875;11.45774135162759;12.617179178630844;0.5351171085155596;-1.1142578125;-0.13134765625;-0.0712890625;-140.5;76.0625;75.1875;
1441975663323964;0.24127197265625;-0.54937744140625;-0.79888916015625;-0.04266357421875;11.561646515215084;12.59547894515408;0.6307035523131268;-1.0498046875;0.10986328125;-0.04248046875;-92.125;69.375;56.9375;
1441975663343965;0.26202392578125;-0.541748046875;-0.79779052734375;-0.0384521484375;11.736769498937266;12.595439436934893;0.7255695022404992;-0.9443359375;0.2763671875;-0.1044921875;-73.0;77.25;26.0;
1441975663366966;0.28814697265625;-0.53619384765625;-0.7923583984375;-0.041015625;12.003921748286611;12.62967054670634;0.8185428131869971;-0.90869140625;0.486328125;-0.0810546875;-56.1875;88.0625;-18.5625;
1441975663382967;0.3134765625;-0.53375244140625;-0.783935546875;-0.0482177734375;12.288416015191308;12.692048953643218;0.8982969864385234;-0.99609375;0.6416015625;-0.0322265625;-23.75;99.5;-67.0;
1441975663404968;0.3402099609375;-0.53460693359375;-0.77105712890625;-0.06317138671875;12.630948690713181;12.792629025090395;0.9649372609111916;-1.0859375;0.7275390625;0.048828125;18.5;102.4375;-108.0625;
1441975663426970;0.3670654296875;-0.5367431640625;-0.75469970703125;-0.087158203125;13.03618344154356;12.915689640594854;1.0075036452498418;-1.068359375;0.85107421875;0.0751953125;61.25;94.6875;-145.375;
1441975663442971;0.39385986328125;-0.53826904296875;-0.73565673828125;-0.1185302734375;13.499324320832121;13.051061339368133;1.0333165247324119;-1.02978515625;0.8642578125;0.06884765625;95.0;75.75;-186.5625;
1441975663463972;0.4202880859375;-0.53887939453125;-0.71343994140625;-0.15496826171875;14.005710249219058;13.20508782495339;1.0584021580630243;-1.10693359375;0.80615234375;-0.00146484375;116.125;58.125;-221.25;
1441975663486973;0.4434814453125;-0.5401611328125;-0.6883544921875;-0.19439697265625;14.513460124179515;13.383850327451821;1.08550540987709;-1.2685546875;0.60205078125;-0.044921875;134.3125;47.625;-243.125;
1441975663502974;0.46136474609375;-0.54425048828125;-0.65936279296875;-0.2373046875;15.006586004656958;13.603307311940092;1.1142537352176256;-1.435546875;0.47607421875;-0.05712890625;156.5625;33.25;-244.625;
1441975663523975;0.47332763671875;-0.54937744140625;-0.6275634765625;-0.28350830078125;15.489493316616223;13.849534698268329;1.1385802115509358;-1.5234375;0.4697265625;-0.0615234375;194.6875;15.125;-240.8125;
1441975663545976;0.48052978515625;-0.55267333984375;-0.59552001953125;-0.33026123046875;15.960537616345647;14.101520275900866;1.1645188295033233;-1.54150390625;0.50341796875;-0.05615234375;224.75;-7.625;-238.625;
1441975663562977;0.4840087890625;-0.552734375;-0.56463623046875;-0.3760986328125;16.421741132903044;14.3498953059103;1.1966167848807632;-1.52685546875;0.58056640625;-0.05029296875;228.75;-27.8125;-234.75;
1441975663583979;0.4862060546875;-0.54742431640625;-0.53662109375;-0.41949462890625;16.884057611927965;14.59409564014468;1.2550438876886338;-1.537109375;0.66015625;-0.03076171875;218.5625;-46.6875;-230.0625;
1441975663606980;0.4893798828125;-0.53759765625;-0.51092529296875;-0.45880126953125;17.33773441027314;14.979762226202977;1.4909712657906202;-1.46728515625;0.63623046875;-0.03662109375;188.5625;-62.6875;-228.9375;
1441975663622981;0.4949951171875;-0.52520751953125;-0.48724365234375;-0.49176025390625;17.721785318638844;16.45216323270889;2.8526424883253583;-1.3232421875;0.56591796875;0.0576171875;153.0625;-63.3125;-227.625;
1441975663643982;0.50543212890625;-0.509521484375;-0.46783447265625;-0.515869140625;17.69101303891473;2.8038426294876904;7.154451842865578;-1.2109375;0.55859375;0.078125;114.9375;-48.875;-220.0;
1441975663667983;0.5208740234375;-0.49053955078125;-0.45428466796875;-0.53082275390625;17.369096710085884;3.8748764775200595;8.242305890503241;-1.16748046875;0.48779296875;0.03857421875;54.0625;-30.9375;-207.5;
1441975663682984;0.5394287109375;-0.4693603515625;-0.44598388671875;-0.538330078125;17.057857441574406;4.10353380005682;8.539494330870228;-1.13623046875;0.333984375;-0.0146484375;-13.4375;-19.125;-188.0;
1441975663703985;0.55792236328125;-0.448486328125;-0.44091796875;-0.54150390625;16.786605450459163;4.161473296115979;8.686969178250466;-1.12744140625;0.0888671875;-0.046875;-65.75;-13.0;-165.1875;
1441975663726987;0.57379150390625;-0.4306640625;-0.43707275390625;-0.54248046875;16.56514025459108;4.159454651197177;8.768371548011615;-1.08837890625;-0.11474609375;-0.033203125;-87.0;-9.9375;-140.0;
1441975663742988;0.58575439453125;-0.41754150390625;-0.43585205078125;-0.54095458984375;16.421733044352052;4.131937674886587;8.81449049979758;-1.02099609375;-0.1669921875;-0.0107421875;-81.3125;-5.375;-113.8125;
1441975663763989;0.59552001953125;-0.40740966796875;-0.43798828125;-0.5362548828125;16.34524893452242;4.083898737518335;8.844074727309986;-0.98486328125;-0.11474609375;-0.021484375;-71.75;-2.3125;-83.625;
1441975663787990;0.60443115234375;-0.39910888671875;-0.443603515625;-0.52789306640625;16.324625190773467;4.0089772002069815;8.859654366604998;-0.93408203125;-0.0400390625;-0.02685546875;-76.3125;-2.25;-54.875;
1441975663802991;0.61212158203125;-0.39215087890625;-0.451416015625;-0.51751708984375;16.34276176555255;3.9249437013542336;8.870831133043515;-0.87744140625;0.00244140625;-0.0146484375;-89.6875;-1.25;-28.625;
1441975663823992;0.61669921875;-0.38763427734375;-0.45947265625;-0.50830078125;16.38881708524455;3.8641595591973474;8.886352335096301;-0.84326171875;-0.0498046875;-0.021484375;-94.5625;-2.875;-5.0625;
1441975663846994;0.61700439453125;-0.386962890625;-0.46759033203125;-0.50091552734375;16.472880235056383;3.8318059570937555;8.901338052827528;-0.833984375;-0.10888671875;-0.015625;-75.75;-7.0;13.125;
1441975663862995;0.61468505859375;-0.38934326171875;-0.47637939453125;-0.49359130859375;16.59310175422326;3.7994209791862783;8.901299069965564;-0.79052734375;-0.056640625;-0.01611328125;-46.9375;-10.9375;29.75;
1441975663884996;0.6123046875;-0.39288330078125;-0.486572265625;-0.48370361328125;16.740687611551763;3.7210742915055532;8.863097184125149;-0.75830078125;0.00537109375;-0.044921875;-31.4375;-14.375;45.4375;
1441975663913997;0.60986328125;-0.39642333984375;-0.498291015625;-0.47186279296875;16.907046875462818;3.607237860734342;8.799216580535917;-0.76708984375;0.02685546875;-0.09228515625;-39.6875;-13.5625;60.1875;
1441975663922998;0.60638427734375;-0.39996337890625;-0.510986328125;-0.45965576171875;17.087216281873264;3.48034742825608;8.72315548936496;-0.7802734375;0.00390625;-0.10888671875;-49.875;-15.875;73.25;
1441975663943999;0.600830078125;-0.40460205078125;-0.52349853515625;-0.44866943359375;17.2783392266777;3.3436057765606604;8.624059689749627;-0.7626953125;-0.029296875;-0.109375;-51.0;-21.6875;83.8125;
1441975663967000;0.5927734375;-0.41131591796875;-0.53515625;-0.439453125;17.48028179225807;3.1527393020421344;8.450105947822514;-0.73681640625;-0.04638671875;-0.11083984375;-37.9375;-27.5;91.0625;
1441975663982001;0.58209228515625;-0.4197998046875;-0.54595947265625;-0.432373046875;17.689976946152605;2.812764529226209;8.105887004214223;-0.73828125;-0.025390625;-0.10888671875;-17.125;-31.0625;96.8125;
1441975664004003;0.5694580078125;-0.4296875;-0.555908203125;-0.42669677734375;17.887564606097865;1.2411854288477768;6.514134526437579;-0.75146484375;0.0234375;-0.11962890625;3.6875;-33.4375;101.8125;
1441975664027004;0.5556640625;-0.44024658203125;-0.5654296875;-0.421630859375;17.829663336723133;13.99356984603721;1.238323997114245;-0.7666015625;0.06591796875;-0.1259765625;19.3125;-36.3125;104.8125;
1441975664042005;0.54095458984375;-0.45098876953125;-0.57452392578125;-0.41705322265625;17.613152895956162;13.160006474932759;0.37107592151326396;-0.78125;0.0888671875;-0.12548828125;27.1875;-39.0;106.625;
1441975664064006;0.5260009765625;-0.46148681640625;-0.583251953125;-0.41259765625;17.389709450222686;12.93666910696214;0.11287989673901955;-0.80810546875;0.08251953125;-0.1259765625;32.6875;-41.375;107.3125;
1441975664087007;0.51092529296875;-0.471923828125;-0.5914306640625;-0.4080810546875;17.166752107410762;12.850773857239137;17.990755814464958;-0.8623046875;0.06884765625;-0.10546875;33.8125;-41.9375;107.0625;
1441975664102008;0.4957275390625;-0.482421875;-0.5989990234375;-0.403564453125;16.945731915681083;12.817456154022144;17.919055223247508;-0.8994140625;0.06640625;-0.09765625;35.25;-40.5625;106.8125;
1441975664126010;0.48046875;-0.49285888671875;-0.60589599609375;-0.39898681640625;16.72799433863537;12.80979868294491;17.87138739706006;-0.9140625;0.0693359375;-0.07568359375;37.0;-38.9375;106.4375;
1441975664147011;0.4654541015625;-0.50347900390625;-0.61199951171875;-0.39410400390625;16.51413842451735;12.826617047796248;17.846985876775456;-0.916015625;0.06689453125;-0.0322265625;38.9375;-36.5;105.6875;
1441975664162012;0.451171875;-0.51397705078125;-0.61761474609375;-0.38848876953125;16.30488741014015;12.859568673841428;17.8418490206535;-0.916015625;0.06884765625;-0.00146484375;40.25;-31.875;105.375;
1441975664185013;0.4378662109375;-0.52362060546875;-0.6231689453125;-0.38189697265625;16.10112031442372;12.894397194489681;17.846558741367453;-0.921875;0.07763671875;0.02001953125;37.875;-26.1875;104.75;
1441975664207014;0.4259033203125;-0.53204345703125;-0.62896728515625;-0.37420654296875;15.90445464927269;12.926165199794752;17.859544349278494;-0.93115234375;0.0927734375;0.0400390625;30.625;-20.875;103.4375;
1441975664222015;0.41668701171875;-0.53826904296875;-0.63433837890625;-0.3665771484375;15.739242887968915;12.949674644352527;17.877100891969295;-0.91650390625;0.109375;0.05615234375;19.5;-16.0;101.125;
1441975664246016;0.4093017578125;-0.5430908203125;-0.63970947265625;-0.3582763671875;15.588982341766343;12.970236186651487;17.90314074005014;-0.90380859375;0.13720703125;0.0634765625;8.0;-10.125;96.9375;
1441975664267018;0.40374755859375;-0.54656982421875;-0.64508056640625;-0.34967041015625;15.455570984165211;12.986241084996543;17.934799791082778;-0.9072265625;0.1689453125;0.0712890625;-2.25;-4.125;90.625;
1441975664282019;0.399658203125;-0.5487060546875;-0.650390625;-0.34100341796875;15.338066378077784;12.995624978127228;17.9681544983762;-0.8994140625;0.18212890625;0.06640625;-11.75;0.125;83.1875;
1441975664313020;0.39703369140625;-0.5496826171875;-0.6553955078125;-0.33270263671875;15.239600282513821;13.00009640946863;0.002358083751025581;-0.8759765625;0.203125;0.06884765625;-19.6875;3.5625;74.75;
1441975664327021;0.39581298828125;-0.5498046875;-0.65966796875;-0.32550048828125;15.165153648519892;13.001837488812585;0.03496240142761669;-0.85400390625;0.2177734375;0.0654296875;-24.9375;5.875;65.0;
1441975664349022;0.39593505859375;-0.5491943359375;-0.6629638671875;-0.31951904296875;15.115688873719428;13.003225633020334;0.06670386315340182;-0.85498046875;0.2392578125;0.0595703125;-26.5625;7.5;52.625;
1441975664381024;0.397216796875;-0.54803466796875;-0.665283203125;-0.31524658203125;15.092252889170133;13.003240618911164;0.09385473028821209;-0.85693359375;0.25634765625;0.0478515625;-26.375;8.75;39.5;
1441975664386024;0.39959716796875;-0.54632568359375;-0.6663818359375;-0.31280517578125;15.096245613771375;13.003168745523082;0.1164444245992642;-0.8583984375;0.27392578125;0.0498046875;-23.875;8.9375;25.9375;
1441975664402025;0.40289306640625;-0.54449462890625;-0.66619873046875;-0.3121337890625;15.124492817438306;13.006583928569844;0.13617794990352666;-0.8671875;0.27685546875;0.04931640625;-19.6875;9.0625;12.1875;
1441975664426027;0.4071044921875;-0.54229736328125;-0.66497802734375;-0.31317138671875;15.176486933714468;13.010494317208298;0.15168098544549316;-0.875;0.28271484375;0.04150390625;-14.3125;9.375;-0.875;
1441975664447028;0.41204833984375;-0.53961181640625;-0.66290283203125;-0.3157958984375;15.249783330500613;13.012565652932304;0.16141363548949245;-0.86962890625;0.27783203125;0.02783203125;-10.25;8.625;-13.125;
1441975664470029;0.4173583984375;-0.536376953125;-0.66015625;-0.32000732421875;15.341147329217675;13.009137724369472;0.16144939353225152;-0.86669921875;0.2783203125;0.02490234375;-7.25;7.4375;-24.875;
1441975664486030;0.42340087890625;-0.53277587890625;-0.65631103515625;-0.32586669921875;15.45481117995949;13.005514487679193;0.15616151417750354;-0.8603515625;0.26220703125;0.03369140625;-3.9375;5.4375;-34.9375;
1441975664506031;0.42974853515625;-0.52886962890625;-0.65155029296875;-0.3333740234375;15.586564842136506;12.998113006068385;0.14117546653627044;-0.87109375;0.240234375;0.02490234375;0.5625;4.3125;-45.75;
1441975664522032;0.43621826171875;-0.5247802734375;-0.64605712890625;-0.342041015625;15.730605374559737;12.987162547820397;0.11795197193537713;-0.90087890625;0.23095703125;0.0283203125;5.9375;2.625;-55.375;
1441975664545034;0.44256591796875;-0.52032470703125;-0.64007568359375;-0.351806640625;15.884318216728367;12.966237646880371;0.08088932992867477;-0.93310546875;0.22900390625;0.03515625;10.125;1.0625;-62.5;
1441975664567035;0.4488525390625;-0.515625;-0.633544921875;-0.36236572265625;16.045890110422906;12.936676750394552;0.03194025730295269;-0.94189453125;0.216796875;0.0439453125;13.4375;-1.25;-68.75;
1441975664589036;0.454833984375;-0.51104736328125;-0.62640380859375;-0.3736572265625;16.211781245883945;12.898915427185855;17.969798619641416;-0.9482421875;0.1962890625;0.04931640625;16.75;-2.5;-73.75;
1441975664605037;0.4603271484375;-0.50701904296875;-0.618408203125;-0.3856201171875;16.379651041010014;12.856494861630196;17.895764419688454;-0.9609375;0.1806640625;0.05810546875;21.375;-3.125;-77.4375;
1441975664627038;0.46539306640625;-0.5030517578125;-0.60992431640625;-0.39788818359375;16.54777930553796;12.799890829794899;17.80414110102025;-0.982421875;0.17138671875;0.04736328125;28.4375;-4.375;-79.1875;
1441975664642039;0.469970703125;-0.49957275390625;-0.601318359375;-0.409912109375;16.708692075943066;12.732414326415046;17.699411553470167;-1.00537109375;0.14208984375;0.052734375;32.0625;-4.75;-80.0625;
1441975664665040;0.47381591796875;-0.496337890625;-0.59295654296875;-0.42144775390625;16.857890499818353;12.642979065167722;17.572310561619208;-1.02099609375;0.14013671875;0.04638671875;34.4375;-4.9375;-78.125;
1441975664686042;0.47735595703125;-0.4927978515625;-0.585205078125;-0.4322509765625;16.996550027908082;12.517616090114668;17.41338461697695;-1.0224609375;0.1298828125;0.041015625;34.6875;-6.0;-74.6875;
1441975664702043;0.48046875;-0.4893798828125;-0.57830810546875;-0.44195556640625;17.11817754165616;12.35980770564783;17.226214068486858;-1.01318359375;0.09765625;0.0458984375;30.875;-7.125;-70.125;
1441975664725044;0.48309326171875;-0.4862060546875;-0.5721435546875;-0.45050048828125;17.22202914275099;12.172171426909875;17.012707505956524;-0.9990234375;0.07763671875;0.0498046875;27.125;-7.6875;-63.375;
1441975664746045;0.48529052734375;-0.4835205078125;-0.56689453125;-0.4576416015625;17.30593379952538;11.970368949716475;16.789158423106297;-0.9970703125;0.0654296875;0.0546875;23.75;-6.9375;-56.1875;
1441975664762046;0.48724365234375;-0.48114013671875;-0.5626220703125;-0.4632568359375;17.371968495979335;11.765958230011112;16.568691155296793;-0.98974609375;0.07421875;0.0478515625;19.75;-5.9375;-48.4375;
1441975664786047;0.4888916015625;-0.4791259765625;-0.55938720703125;-0.46746826171875;17.420785606708673;11.57359491881211;16.365395878860944;-0.98876953125;0.07373046875;0.044921875;14.5625;-4.75;-40.4375;
1441975664807049;0.489990234375;-0.47772216796875;-0.55718994140625;-0.47039794921875;17.4520696573317;11.418900321279574;16.203121549380082;-0.99560546875;0.0791015625;0.0439453125;9.625;-4.0625;-32.5;
1441975664822049;0.49072265625;-0.47686767578125;-0.55572509765625;-0.47222900390625;17.47177984047714;11.31444389616602;16.09373545312848;-0.9853515625;0.11279296875;0.0419921875;6.5;-3.25;-25.3125;
1441975664845051;0.49139404296875;-0.47625732421875;-0.55499267578125;-0.47308349609375;17.483883657178446;11.25365005868146;16.032041969009757;-0.97998046875;0.13720703125;0.04052734375;4.0;-2.5;-19.25;
1441975664867052;0.49188232421875;-0.47576904296875;-0.554931640625;-0.47308349609375;17.488503710081407;11.231438890540819;16.012461530182396;-0.97265625;0.14404296875;0.03955078125;0.25;-1.5;-14.0625;
1441975664882053;0.4921875;-0.47576904296875;-0.5552978515625;-0.47235107421875;17.48772590512404;11.262475619641345;16.04752748392361;-0.94970703125;0.15185546875;0.05078125;-3.3125;-0.1875;-9.125;
1441975664919055;0.4923095703125;-0.47601318359375;-0.55584716796875;-0.4713134765625;17.48359877252656;11.316883291581723;16.106147974397217;-0.9482421875;0.1552734375;0.04736328125;-4.4375;0.75;-4.5;
1441975664929056;0.491943359375;-0.47662353515625;-0.5567626953125;-0.47003173828125;17.4719075390244;11.393947095418959;16.186725595134202;-0.94970703125;0.13623046875;0.03564453125;-4.375;0.75;-0.1875;
1441975664942056;0.4912109375;-0.4776611328125;-0.55780029296875;-0.468505859375;17.45517933785158;11.49388265607565;16.288960566976286;-0.93505859375;0.13671875;0.04248046875;-3.625;0.375;4.1875;
1441975664965058;0.4898681640625;-0.479248046875;-0.5589599609375;-0.46685791015625;17.43100727848814;11.610953326116476;16.405717619379804;-0.93212890625;0.125;0.0390625;-2.3125;0.1875;8.8125;
1441975664987059;0.48785400390625;-0.48138427734375;-0.5601806640625;-0.46533203125;17.39943354427109;11.730287601692812;16.521057226639712;-0.9375;0.1259765625;0.03466796875;0.6875;-0.3125;12.875;
1441975665010060;0.4853515625;-0.4840087890625;-0.5614013671875;-0.4637451171875;17.361970312003894;11.853918812029884;16.638078020605523;-0.9501953125;0.11865234375;0.037109375;4.25;-1.375;16.8125;
1441975665025061;0.48236083984375;-0.48687744140625;-0.56280517578125;-0.46209716796875;17.317544973206054;11.967970929963444;16.74413464987896;-0.9482421875;0.109375;0.03076171875;7.0;-2.0;20.9375;
1441975665048062;0.47882080078125;-0.490234375;-0.5643310546875;-0.46038818359375;17.265637762033744;12.079185346918086;16.844899306592485;-0.95068359375;0.10498046875;0.03564453125;8.5625;-2.875;24.9375;
1441975665062063;0.47503662109375;-0.49383544921875;-0.56597900390625;-0.45843505859375;17.208629715411647;12.185990985568123;16.94091499835473;-0.97607421875;0.11474609375;0.0390625;10.8125;-3.25;28.375;
1441975665085064;0.47119140625;-0.4974365234375;-0.56787109375;-0.4561767578125;17.14749336129012;12.28278948771276;17.028332794041592;-0.98291015625;0.11669921875;0.037109375;11.5625;-3.375;31.4375;
1441975665124067;0.46722412109375;-0.5010986328125;-0.57000732421875;-0.45367431640625;17.08186209698242;12.369913853238867;17.10695289123261;-0.9814453125;0.115234375;0.04248046875;10.0625;-3.1875;34.0;
1441975665129067;0.46319580078125;-0.50494384765625;-0.572021484375;-0.450927734375;17.014369634637244;12.455782782668718;17.183988050255255;-0.97265625;0.1220703125;0.0556640625;9.5625;-2.375;36.75;
1441975665145068;0.45916748046875;-0.50885009765625;-0.57415771484375;-0.44793701171875;16.94413940970768;12.535438950623552;17.255685269720118;-0.97265625;0.1181640625;0.05322265625;9.9375;-1.1875;38.625;
1441975665168069;0.45538330078125;-0.5125732421875;-0.5765380859375;-0.4444580078125;16.87199100664915;12.609453801197951;17.32508802995504;-0.97265625;0.130859375;0.06005859375;8.9375;-0.125;40.1875;
1441975665189070;0.45196533203125;-0.515869140625;-0.57916259765625;-0.440673828125;16.800531353414005;12.67206968647911;17.386964389211432;-0.9775390625;0.1376953125;0.05419921875;6.1875;0.625;41.4375;
1441975665205071;0.448974609375;-0.51885986328125;-0.58203125;-0.43658447265625;16.729897449794628;12.727606188356509;17.445445534284616;-0.98095703125;0.14208984375;0.060546875;2.125;1.4375;41.9375;
1441975665228073;0.4462890625;-0.52142333984375;-0.5849609375;-0.43231201171875;16.661407831422633;12.774436832279608;17.4980660249052;-0.9736328125;0.146484375;0.06103515625;-1.25;2.3125;41.6875;
1441975665249074;0.44403076171875;-0.5235595703125;-0.587890625;-0.427978515625;16.597033951715897;12.813973633274545;17.54604819605821;-0.9716796875;0.15966796875;0.06103515625;-4.1875;2.9375;40.4375;
1441975665265075;0.44219970703125;-0.52532958984375;-0.590576171875;-0.42388916015625;16.53964211670158;12.847258233046542;17.588663407384406;-0.96630859375;0.17431640625;0.06103515625;-6.6875;3.375;38.1875;
1441975665288076;0.440673828125;-0.52691650390625;-0.59307861328125;-0.420166015625;16.487988946012486;12.875181071378963;17.62571458660414;-0.9716796875;0.17578125;0.05859375;-7.875;3.5625;35.0;
1441975665309077;0.439453125;-0.52813720703125;-0.59521484375;-0.41680908203125;16.443923226284795;12.897981729234555;17.657484709252373;-0.95556640625;0.18701171875;0.05712890625;-7.5;3.625;31.75;
1441975665325078;0.43865966796875;-0.529052734375;-0.5970458984375;-0.4139404296875;16.4084659899951;12.916317207088108;17.684581750184073;-0.9453125;0.1953125;0.0576171875;-7.4375;3.75;27.5;
1441975665348079;0.43829345703125;-0.52960205078125;-0.598388671875;-0.41162109375;16.383279059405034;12.931248703886919;17.70755901686774;-0.93798828125;0.20361328125;0.0556640625;-7.5625;3.625;22.75;
1441975665369081;0.4384765625;-0.52960205078125;-0.59942626953125;-0.409912109375;16.369335214219788;12.939389878708091;17.724236755505636;-0.93994140625;0.20947265625;0.044921875;-7.25;3.25;17.5;
1441975665385082;0.4390869140625;-0.5291748046875;-0.60009765625;-0.4088134765625;16.365640828727834;12.942473196611983;17.735470605927407;-0.9501953125;0.2080078125;0.04833984375;-7.875;2.6875;11.9375;
1441975665408083;0.4400634765625;-0.52850341796875;-0.6002197265625;-0.40838623046875;16.37239295147172;12.943820988926865;17.743168775657537;-0.95166015625;0.20751953125;0.0498046875;-7.25;2.3125;6.875;
1441975665429084;0.44140625;-0.52752685546875;-0.5999755859375;-0.40863037109375;16.38882535197922;12.940850539912812;17.745433437787835;-0.9462890625;0.2041015625;0.04638671875;-6.0625;2.3125;1.4375;
1441975665445085;0.44305419921875;-0.52642822265625;-0.59918212890625;-0.409423828125;16.41409227154299;12.938495495785107;17.74634339186174;-0.94677734375;0.20458984375;0.052734375;-4.8125;2.3125;-3.5625;
1441975665468086;0.445068359375;-0.52496337890625;-0.59808349609375;-0.4107666015625;16.448261205783336;12.931357926114497;17.74207810221503;-0.9482421875;0.20361328125;0.0439453125;-3.5625;1.9375;-8.3125;
1441975665482087;0.44720458984375;-0.5233154296875;-0.59661865234375;-0.41265869140625;16.48914407649056;12.920286079282176;17.7320956647571;-0.95458984375;0.19287109375;0.03857421875;-2.8125;1.25;-12.6875;
1441975665505088;0.44952392578125;-0.52142333984375;-0.594970703125;-0.41485595703125;16.53503199620002;12.905136656785478;17.717848975247573;-0.9599609375;0.18896484375;0.03857421875;-1.6875;0.5;-15.875;
1441975665528090;0.4520263671875;-0.51934814453125;-0.59307861328125;-0.41741943359375;16.58632965394429;12.886206341517338;17.699097508640243;-0.9599609375;0.17724609375;0.04150390625;-1.3125;0.3125;-18.875;
1441975665556091;0.45458984375;-0.51727294921875;-0.59100341796875;-0.420166015625;16.640046746126075;12.866180558844093;17.678361636709717;-0.96728515625;0.1689453125;0.0380859375;-0.5;-0.125;-21.1875;
1441975665565092;0.45709228515625;-0.51495361328125;-0.589111328125;-0.42291259765625;16.693136233281916;12.83789890010161;17.650444242087946;-0.9658203125;0.1640625;0.033203125;-0.1875;-0.3125;-23.0;
1441975665588093;0.459716796875;-0.51263427734375;-0.58709716796875;-0.42572021484375;16.748028548916743;12.808961285070929;17.621685271759663;-0.96044921875;0.16259765625;0.041015625;-1.0625;-0.875;-23.75;
1441975665609094;0.46234130859375;-0.51019287109375;-0.58514404296875;-0.42852783203125;16.802885334089037;12.774495725270814;17.58793437967451;-0.9716796875;0.15234375;0.03564453125;-1.125;-0.9375;-24.4375;
1441975665625095;0.4649658203125;-0.50775146484375;-0.583251953125;-0.43109130859375;16.855977154650883;12.739815712242656;17.554874475783784;-0.99072265625;0.15087890625;0.0439453125;-1.375;-0.75;-24.625;
1441975665648097;0.467529296875;-0.50531005859375;-0.58154296875;-0.4334716796875;16.906419265412186;12.70194001483149;17.519504061984254;-0.9873046875;0.1474609375;0.037109375;-2.375;-0.75;-24.25;
1441975665669098;0.47003173828125;-0.50311279296875;-0.57977294921875;-0.43572998046875;16.955116323121278;12.66784565136334;17.487211645418736;-0.97412109375;0.1416015625;0.03955078125;-3.3125;-0.75;-23.4375;
1441975665685099;0.47216796875;-0.50115966796875;-0.57806396484375;-0.43798828125;16.999640729531635;12.631092545626107;17.450691684241548;-0.9716796875;0.126953125;0.03515625;-2.3125;-0.1875;-22.125;
1441975665708100;0.4739990234375;-0.49951171875;-0.576416015625;-0.43994140625;17.038831647870666;12.599624826805545;17.41879530800147;-0.9658203125;0.12890625;0.04443359375;-0.8125;0.0;-20.6875;
1441975665729101;0.4757080078125;-0.49798583984375;-0.5751953125;-0.44146728515625;17.071867431426675;12.569794570840365;17.390288139813016;-0.970703125;0.13232421875;0.0380859375;-0.25;-0.0625;-18.75;
1441975665745102;0.477294921875;-0.4964599609375;-0.57415771484375;-0.44281005859375;17.101877243808335;12.537781083306093;17.360317200295135;-0.970703125;0.1435546875;0.037109375;-1.5625;-0.3125;-16.8125;
1441975665768104;0.4786376953125;-0.4951171875;-0.57330322265625;-0.4439697265625;17.12730447977343;12.506903717320434;17.331316399654806;-0.9755859375;0.13134765625;0.0302734375;-2.75;-0.875;-14.8125;
1441975665789105;0.47955322265625;-0.49420166015625;-0.572509765625;-0.445068359375;17.14728305490618;12.480867521307736;17.30505554097319;-0.97119140625;0.1279296875;0.033203125;-2.375;-1.4375;-12.625;
1441975665805106;0.480224609375;-0.49365234375;-0.57177734375;-0.4459228515625;17.162693449404937;12.465177562192087;17.288275729091094;-0.9658203125;0.13134765625;0.0361328125;-0.5625;-1.1875;-10.5;
1441975665828107;0.48065185546875;-0.49322509765625;-0.57122802734375;-0.44659423828125;17.173826943902426;12.451012515045075;17.273040767168677;-0.97119140625;0.13818359375;0.03173828125;0.75;-0.9375;-8.4375;
1441975665849108;0.48089599609375;-0.49310302734375;-0.57080078125;-0.44708251953125;17.18096916729957;12.445139313915892;17.265562897637228;-0.9736328125;0.13818359375;0.03466796875;1.0625;-1.125;-6.4375;
1441975665865109;0.4808349609375;-0.49322509765625;-0.57037353515625;-0.447509765625;17.18472844562112;12.443645813828445;17.26108431667913;-0.97998046875;0.13623046875;0.03369140625;1.3125;-1.125;-4.3125;
1441975665887110;0.48065185546875;-0.49365234375;-0.570068359375;-0.44769287109375;17.18473187017391;12.45300833103767;17.267277126815028;-0.9716796875;0.13623046875;0.03662109375;2.625;-0.6875;-2.4375;
1441975665909112;0.48040771484375;-0.494140625;-0.5699462890625;-0.44757080078125;17.18157366439432;12.467883270876642;17.280051764347302;-0.97265625;0.14208984375;0.03857421875;3.1875;-0.125;-0.5625;
1441975665925112;0.48016357421875;-0.4945068359375;-0.57012939453125;-0.44708251953125;17.17523764071266;12.483582682639284;17.295954860101027;-0.96875;0.14501953125;0.03564453125;1.9375;0.3125;1.125;
1441975665947114;0.47991943359375;-0.49481201171875;-0.57049560546875;-0.446533203125;17.16760302910333;12.496202079244208;17.30964368147214;-0.966796875;0.14208984375;0.0439453125;-0.25;0.5;2.75;
1441975665970115;0.47955322265625;-0.495361328125;-0.57098388671875;-0.44573974609375;17.156338984205497;12.517230923657339;17.331742059879712;-0.9638671875;0.1328125;0.04931640625;-0.9375;0.625;4.4375;
1441975665985116;0.47906494140625;-0.49609375;-0.571533203125;-0.44482421875;17.142537894602384;12.5427054715516;17.35793611867541;-0.95166015625;0.13525390625;0.04296875;-0.6875;0.8125;6.0625;
1441975666007117;0.47857666015625;-0.4967041015625;-0.57220458984375;-0.44378662109375;17.127767879410456;12.565222877357003;17.382242946518137;-0.9677734375;0.140625;0.041015625;-0.8125;0.875;7.5;
1441975666031119;0.47796630859375;-0.497314453125;-0.57293701171875;-0.44281005859375;17.111901938360468;12.583361934435755;17.40182160627886;-0.98193359375;0.13427734375;0.041015625;-1.625;0.4375;8.75;
1441975666045119;0.47711181640625;-0.49810791015625;-0.5736083984375;-0.44189453125;17.094183399818387;12.601964685846815;17.420297951026452;-0.97265625;0.123046875;0.04443359375;-1.0625;0.1875;9.9375;
1441975666067121;0.47613525390625;-0.4991455078125;-0.57427978515625;-0.44097900390625;17.074621670269963;12.62411165985822;17.441248138946737;-0.97119140625;0.12646484375;0.046875;0.3125;-0.0625;10.8125;
1441975666090122;0.47509765625;-0.500244140625;-0.574951171875;-0.43994140625;17.05376814241296;12.648434654635984;17.4643934384956;-0.96630859375;0.1337890625;0.0517578125;1.5;0.25;11.4375;
1441975666105123;0.47406005859375;-0.50115966796875;-0.5758056640625;-0.43890380859375;17.03237465720061;12.665160578795414;17.480992515924928;-0.96923828125;0.138671875;0.04541015625;1.5;0.1875;11.8125;
1441975666127124;0.47314453125;-0.5020751953125;-0.57659912109375;-0.43780517578125;17.011949744251787;12.684480241499829;17.50053575470691;-0.96728515625;0.14794921875;0.05419921875;0.6875;0.1875;11.875;
1441975666150125;0.47247314453125;-0.50274658203125;-0.57745361328125;-0.43658447265625;16.993245206635436;12.70191492763637;17.520131613961507;-0.97216796875;0.15234375;0.05029296875;-0.3125;0.375;11.375;
1441975666165126;0.47198486328125;-0.50323486328125;-0.578369140625;-0.43536376953125;16.976168754343863;12.716056230360472;17.53765189356408;-0.98046875;0.15478515625;0.04833984375;-1.5625;0.5625;10.75;
1441975666187127;0.4716796875;-0.50360107421875;-0.57916259765625;-0.43426513671875;16.962233704433224;12.728708477531107;17.55384925851945;-0.96630859375;0.1572265625;0.052734375;-3.1875;1.0;9.6875;
1441975666210129;0.4713134765625;-0.5040283203125;-0.5797119140625;-0.433349609375;16.95000124215877;12.741712394088452;17.56883130643901;-0.958984375;0.15576171875;0.048828125;-3.1875;1.1875;8.4375;
1441975666225130;0.47100830078125;-0.5045166015625;-0.58001708984375;-0.4327392578125;16.940963551977696;12.754409777401152;17.581899349637403;-0.9541015625;0.16015625;0.05419921875;-1.5625;1.5625;7.0625;
1441975666247131;0.4708251953125;-0.5048828125;-0.58013916015625;-0.432373046875;16.935617384135472;12.764186681848022;17.591510970526553;-0.94775390625;0.16357421875;0.05419921875;-0.1875;1.6875;5.3125;
1441975666278133;0.47076416015625;-0.50506591796875;-0.58026123046875;-0.43206787109375;16.932179218227283;12.770573238852304;17.598433513745668;-0.95166015625;0.1640625;0.04833984375;0.375;1.3125;3.8125;
1441975666285133;0.470947265625;-0.50494384765625;-0.58026123046875;-0.4320068359375;16.9336925311989;12.771154381181224;17.600066558328805;-0.9560546875;0.1630859375;0.0478515625;-0.25;0.9375;2.5625;
1441975666314135;0.470947265625;-0.5048828125;-0.58026123046875;-0.4320068359375;16.93393517571504;12.769954589847181;17.5990521627508;-0.96044921875;0.1552734375;0.0458984375;-1.0625;0.4375;0.8125;
1441975666330136;0.47113037109375;-0.5047607421875;-0.58001708984375;-0.432373046875;16.939075178326203;12.766699031048061;17.594889836063025;-0.958984375;0.15234375;0.048828125;-0.4375;0.0625;-0.0625;
1441975666345137;0.4713134765625;-0.50457763671875;-0.57965087890625;-0.43280029296875;16.945510139833544;12.762816951961018;17.58977057830049;-0.95654296875;0.15380859375;0.04931640625;0.8125;-0.125;-1.25;
1441975666367138;0.4715576171875;-0.50439453125;-0.5792236328125;-0.433349609375;16.95336771529071;12.758296065024314;17.583642016752876;-0.96826171875;0.1572265625;0.04150390625;1.125;-0.25;-2.1875;
1441975666390139;0.4718017578125;-0.50421142578125;-0.57867431640625;-0.43402099609375;16.96257847812677;12.753261839121503;17.576299216892895;-0.96240234375;0.15576171875;0.04443359375;1.5;-0.25;-3.0;
1441975666413140;0.47216796875;-0.5040283203125;-0.5780029296875;-0.43475341796875;16.97373253149104;12.750077530707019;17.57062155892387;-0.9609375;0.15625;0.04296875;2.0625;-0.1875;-3.75;
1441975666427141;0.47259521484375;-0.50384521484375;-0.5772705078125;-0.43548583984375;16.98570905324241;12.74832420701154;17.56637537621406;-0.9716796875;0.150390625;0.0400390625;2.5625;0.0;-4.5;
1441975666450143;0.4730224609375;-0.5035400390625;-0.57672119140625;-0.43609619140625;16.99642716218241;12.743566109292901;17.5603613332569;-0.97802734375;0.15087890625;0.0361328125;2.0625;0.0;-4.8125;
1441975666471144;0.4735107421875;-0.50311279296875;-0.576171875;-0.43670654296875;17.008065594979097;12.736800948608249;17.552875814785235;-0.97216796875;0.15185546875;0.0400390625;1.25;0.0625;-4.875;
1441975666487145;0.47406005859375;-0.50274658203125;-0.57568359375;-0.43719482421875;17.018932855346076;12.73325662737196;17.549127239605248;-0.97314453125;0.15087890625;0.04443359375;0.5;0.375;-4.8125;
1441975666510146;0.47454833984375;-0.50244140625;-0.5750732421875;-0.43780517578125;17.030469573149567;12.72971747196406;17.54433259499034;-0.97265625;0.1484375;0.0380859375;0.3125;0.375;-4.75;
1441975666533147;0.474853515625;-0.50225830078125;-0.57452392578125;-0.4384765625;17.040099776634506;12.724575676531227;17.53704992985232;-0.96484375;0.14306640625;0.0439453125;1.125;0.4375;-4.5;
1441975666547148;0.47509765625;-0.50225830078125;-0.57391357421875;-0.43902587890625;17.048365398732834;12.725852422535882;17.535670168368654;-0.970703125;0.14306640625;0.04296875;2.0;0.375;-4.125;
1441975666570149;0.47528076171875;-0.5023193359375;-0.57330322265625;-0.4395751953125;17.05594724028339;12.72775900778277;17.534570230814072;-0.96826171875;0.14892578125;0.04150390625;2.75;0.375;-3.75;
1441975666591151;0.475341796875;-0.5023193359375;-0.5728759765625;-0.44000244140625;17.061136536308485;12.726511364151195;17.53103580115705;-0.96484375;0.15380859375;0.0361328125;2.8125;0.375;-3.4375;
1441975666614152;0.4754638671875;-0.50225830078125;-0.572509765625;-0.4404296875;17.066623476294865;12.723697699384108;17.526451695537062;-0.96435546875;0.15380859375;0.04296875;2.1875;0.1875;-3.0625;
1441975666630153;0.4755859375;-0.50225830078125;-0.5721435546875;-0.44073486328125;17.07128831700362;12.724615393394979;17.525783502161275;-0.96435546875;0.15576171875;0.04150390625;1.75;0.125;-2.8125;
1441975666651154;0.475830078125;-0.502197265625;-0.5718994140625;-0.44085693359375;17.075435005491652;12.727421000127602;17.528404714686726;-0.96435546875;0.15869140625;0.0380859375;1.375;0.125;-2.6875;
1441975666667155;0.4759521484375;-0.5020751953125;-0.57171630859375;-0.44110107421875;17.079127006116778;12.724043878124515;17.524492861557665;-0.95654296875;0.15771484375;0.0322265625;0.25;0.0625;-2.5;
1441975666690156;0.47613525390625;-0.5020751953125;-0.57147216796875;-0.4412841796875;17.082881896498968;12.72630395888259;17.52603389569169;-0.962890625;0.15283203125;0.0390625;0.125;-0.125;-2.25;
1441975666711157;0.476318359375;-0.501953125;-0.57135009765625;-0.44134521484375;17.085758179845904;12.726374988398533;17.526455255940544;-0.96923828125;0.15283203125;0.03173828125;0.625;-0.0625;-2.0;
1441975666727158;0.47650146484375;-0.5018310546875;-0.57122802734375;-0.44140625;17.088634556839374;12.726447578099124;17.526878174128235;-0.9716796875;0.1572265625;0.0361328125;-0.1875;-0.0625;-1.875;
1441975666750160;0.47650146484375;-0.5018310546875;-0.57122802734375;-0.44140625;17.088634556839374;12.726447578099124;17.526878174128235;-0.9697265625;0.1494140625;0.0361328125;-0.5;0.0;-1.375;
1441975666779161;0.47650146484375;-0.5018310546875;-0.57122802734375;-0.44140625;17.088634556839374;12.726447578099124;17.526878174128235;-0.96484375;0.14794921875;0.03857421875;0.0;0.25;-0.8125;
1441975666787162;0.47650146484375;-0.50189208984375;-0.57122802734375;-0.44140625;17.088395634510032;12.727851382858999;17.528097627406787;-0.9619140625;0.142578125;0.0361328125;-0.1875;0.6875;-0.25;
1441975666810163;0.4766845703125;-0.5018310546875;-0.57135009765625;-0.44110107421875;17.08773616857965;12.732961324257886;17.53514352894439;-0.962890625;0.14990234375;0.03759765625;-0.375;0.6875;0.5625;
1441975666832164;0.47686767578125;-0.5018310546875;-0.571533203125;-0.440673828125;17.085859590638275;12.740959111076855;17.54542763868819;-0.9736328125;0.14404296875;0.03662109375;-1.6875;0.75;1.1875;
1441975666847165;0.47705078125;-0.50177001953125;-0.57177734375;-0.44012451171875;17.083242082244254;12.749012814877743;17.556487136475045;-0.9658203125;0.14404296875;0.0322265625;-2.5;0.625;1.625;
1441975666870167;0.47711181640625;-0.50177001953125;-0.57208251953125;-0.43975830078125;17.079993083290987;12.752350946340943;17.561927173944422;-0.96533203125;0.146484375;0.0322265625;-2.875;0.625;2.0;
1441975666891168;0.47711181640625;-0.5018310546875;-0.572265625;-0.439453125;17.077118896695882;12.756933201082415;17.56774501278706;-0.97265625;0.14794921875;0.0380859375;-2.125;0.4375;2.0625;
1441975666907169;0.47711181640625;-0.501953125;-0.5723876953125;-0.439208984375;17.07467702963464;12.762593304718688;17.574105738339313;-0.97021484375;0.14697265625;0.03857421875;-1.25;0.125;2.125;
1441975666930170;0.47698974609375;-0.5020751953125;-0.57244873046875;-0.43902587890625;17.072029231554712;12.766444289678065;17.577975789244874;-0.97314453125;0.14306640625;0.02880859375;-0.625;0.0;2.0;
1441975666953171;0.4769287109375;-0.50213623046875;-0.57257080078125;-0.43890380859375;17.069983324381667;12.76756524558535;17.579447073970208;-0.97998046875;0.1435546875;0.0380859375;-0.0625;-0.0625;2.0625;
1441975666968172;0.47674560546875;-0.5023193359375;-0.57269287109375;-0.43878173828125;17.066564971297513;12.769887909374827;17.581419408941635;-0.974609375;0.13818359375;0.041015625;-0.0625;-0.0625;2.1875;
1441975666998174;0.4765625;-0.50250244140625;-0.57281494140625;-0.43853759765625;17.062547064888662;12.774531832047371;17.586082399892046;-0.970703125;0.146484375;0.0439453125;0.3125;0.0625;2.3125;
1441975667013175;0.47650146484375;-0.5025634765625;-0.5731201171875;-0.43817138671875;17.05815909308326;12.777517353541219;17.590654061848607;-0.966796875;0.14794921875;0.04052734375;-0.25;0.25;2.4375;
1441975667027176;0.4765625;-0.50250244140625;-0.5733642578125;-0.43780517578125;17.055522716014732;12.780206457863919;17.595464528950433;-0.9697265625;0.15380859375;0.04248046875;-1.25;0.375;2.4375;
1441975667058177;0.47674560546875;-0.50250244140625;-0.5736083984375;-0.4373779296875;17.053214614426714;12.786866229709954;17.604576754065693;-0.97265625;0.14111328125;0.03955078125;-2.125;0.5;2.5;
1441975667073178;0.47674560546875;-0.50244140625;-0.5738525390625;-0.43707275390625;17.050436892507044;12.787605281973466;17.607087042081904;-0.9716796875;0.14306640625;0.02978515625;-2.3125;0.25;2.4375;
1441975667087179;0.47674560546875;-0.50238037109375;-0.57403564453125;-0.4368896484375;17.048642342189147;12.78696316776148;17.60768095941632;-0.96435546875;0.14111328125;0.0400390625;-1.8125;0.0625;2.3125;
1441975667118181;0.47674560546875;-0.50238037109375;-0.57421875;-0.43670654296875;17.046599907054027;12.787647767749133;17.609416610251266;-0.96826171875;0.142578125;0.0390625;-1.5;-0.25;2.125;
1441975667133182;0.4766845703125;-0.5023193359375;-0.5743408203125;-0.4366455078125;17.04534928798489;12.784889477376478;17.60719370145454;-0.96630859375;0.1455078125;0.0361328125;-0.8125;-0.3125;1.75;
1441975667147182;0.4766845703125;-0.50225830078125;-0.5743408203125;-0.43670654296875;17.045898975408637;12.782422241064202;17.604726465142264;-0.9677734375;0.14599609375;0.0390625;-0.5625;-0.625;1.25;
1441975667170184;0.4766845703125;-0.50225830078125;-0.57427978515625;-0.43670654296875;17.04627746779954;12.783333802372033;17.60547270882252;-0.9716796875;0.14599609375;0.04248046875;-0.375;-0.6875;0.75;
1441975667193185;0.47686767578125;-0.501953125;-0.574462890625;-0.43670654296875;17.047696241035254;12.776193215694274;17.600249178232133;-0.96875;0.1474609375;0.033203125;-1.0;-0.8125;0.4375;
1441975667208186;0.47686767578125;-0.501953125;-0.574462890625;-0.43670654296875;17.047696241035254;12.776193215694274;17.600249178232133;-0.96044921875;0.14111328125;0.04150390625;-1.75;-0.75;0.0625;
1441975667230187;0.47686767578125;-0.501953125;-0.57440185546875;-0.43670654296875;17.048075299179438;12.777103992430138;17.600994696775405;-0.966796875;0.14599609375;0.037109375;-0.875;-1.0;-0.4375;
1441975667253188;0.4771728515625;-0.50152587890625;-0.574462890625;-0.4368896484375;17.05252361651634;12.767125070475963;17.592747580082612;-0.97900390625;0.14990234375;0.03125;-0.625;-0.875;-1.0;
1441975667267189;0.47735595703125;-0.5009765625;-0.57452392578125;-0.4371337890625;17.056864013951927;12.751711614800238;17.57892055352359;-0.9677734375;0.14794921875;0.03662109375;-1.875;-1.125;-1.75;
1441975667290191;0.47747802734375;-0.50079345703125;-0.57427978515625;-0.43756103515625;17.062086222963217;12.744590869965894;17.5707288757545;-0.96337890625;0.14111328125;0.04931640625;-1.5;-1.0625;-2.0;
1441975667313192;0.47760009765625;-0.500732421875;-0.573974609375;-0.43792724609375;17.066905195717357;12.742212243953537;17.566929132502494;-0.95458984375;0.1435546875;0.04443359375;0.9375;-0.4375;-2.25;
1441975667327193;0.47784423828125;-0.50054931640625;-0.57391357421875;-0.43804931640625;17.070378362314226;12.739645836291778;17.565043392889688;-0.95849609375;0.1494140625;0.03369140625;1.1875;-0.3125;-2.3125;
1441975667350194;0.478271484375;-0.50006103515625;-0.573974609375;-0.43798828125;17.0747372506899;12.734173528319582;17.562558321627648;-0.96484375;0.15576171875;0.0361328125;-0.75;-0.3125;-2.1875;
1441975667373195;0.478759765625;-0.4993896484375;-0.5740966796875;-0.43798828125;17.080170542019587;12.723133837878423;17.555206362310408;-0.96875;0.15380859375;0.029296875;-3.25;-0.75;-2.375;
1441975667388196;0.4791259765625;-0.49884033203125;-0.57415771484375;-0.43817138671875;17.08548763332918;12.710553275689731;17.544892093612514;-0.96826171875;0.1416015625;0.03173828125;-3.875;-0.9375;-2.4375;
1441975667418198;0.47930908203125;-0.49847412109375;-0.5740966796875;-0.4384765625;17.090093542367196;12.699199041031267;17.534052934160467;-0.96484375;0.14306640625;0.03955078125;-2.5;-1.125;-2.5;
1441975667433199;0.47943115234375;-0.49835205078125;-0.57391357421875;-0.43878173828125;17.09406933806729;12.694486505507177;17.52861954501885;-0.96533203125;0.142578125;0.041015625;-0.625;-1.0625;-2.3125;
1441975667454200;0.4794921875;-0.4981689453125;-0.57379150390625;-0.43902587890625;17.097155213042356;12.687873475571145;17.521656328973993;-0.97021484375;0.14599609375;0.03515625;0.5625;-1.0625;-2.25;
1441975667470201;0.47955322265625;-0.49798583984375;-0.57379150390625;-0.43914794921875;17.098883983025996;12.68186800809842;17.516001047610093;-0.970703125;0.1513671875;0.03759765625;0.25;-1.0;-2.0;
1441975667493202;0.47979736328125;-0.4976806640625;-0.57379150390625;-0.43927001953125;17.102421116630772;12.675225738722403;17.510574150410392;-0.96630859375;0.15380859375;0.03759765625;-0.5;-0.8125;-1.75;
1441975667514203;0.47998046875;-0.4974365234375;-0.5738525390625;-0.439208984375;17.104026153741177;12.672070354011762;17.509004792207293;-0.9716796875;0.14501953125;0.03955078125;-1.4375;-0.625;-1.625;
1441975667530204;0.480224609375;-0.49725341796875;-0.57391357421875;-0.43914794921875;17.105844558581275;12.671100136987155;17.50959993568432;-0.96435546875;0.14501953125;0.0390625;-1.8125;-0.4375;-1.25;
1441975667553206;0.48052978515625;-0.49700927734375;-0.57403564453125;-0.43896484375;17.107383899080993;12.671036602276347;17.51198733810374;-0.9677734375;0.1494140625;0.0380859375;-1.6875;0.0;-1.0;
1441975667574207;0.480712890625;-0.4967041015625;-0.57421875;-0.43878173828125;17.10787198392665;12.667099460580435;17.51052201868763;-0.96533203125;0.14892578125;0.0390625;-2.4375;0.1875;-0.875;
1441975667590208;0.48095703125;-0.49652099609375;-0.57440185546875;-0.43853759765625;17.108054114851107;12.668062970438582;17.513936364160834;-0.96044921875;0.1484375;0.048828125;-2.5625;0.3125;-0.6875;
1441975667613209;0.48126220703125;-0.496337890625;-0.574462890625;-0.43829345703125;17.109462983683574;12.671631577285856;17.519791283374865;-0.962890625;0.15283203125;0.0439453125;-2.1875;0.5625;-0.5;
1441975667634210;0.48150634765625;-0.49615478515625;-0.5745849609375;-0.43804931640625;17.110033284635197;12.673525906715543;17.52397195438046;-0.966796875;0.14599609375;0.0380859375;-2.0625;0.5625;-0.5;
1441975667650211;0.4818115234375;-0.49578857421875;-0.5748291015625;-0.43780517578125;17.110978120139134;12.669995943830585;17.523778623832;-0.97021484375;0.14599609375;0.0400390625;-2.625;0.25;-0.1875;
1441975667673212;0.48193359375;-0.49560546875;-0.5750732421875;-0.4375;17.109588928211213;12.669777976769621;17.526032970564184;-0.97216796875;0.134765625;0.03955078125;-3.25;0.0;0.3125;
1441975667701214;0.4820556640625;-0.49554443359375;-0.57525634765625;-0.437255859375;17.108404040087485;12.67210949598131;17.530114887385434;-0.96435546875;0.142578125;0.0400390625;-2.5625;-0.0625;0.6875;
1441975667710215;0.48223876953125;-0.495361328125;-0.57550048828125;-0.43695068359375;17.107461379306173;12.672643058069097;17.533284951738086;-0.97216796875;0.1484375;0.04248046875;-1.75;0.1875;0.5;
1441975667740216;0.482421875;-0.4951171875;-0.57574462890625;-0.43670654296875;17.107042098970965;12.67048179293139;17.533760197659298;-0.96875;0.1474609375;0.0419921875;-2.6875;0.1875;0.5;
1441975667754217;0.48260498046875;-0.4949951171875;-0.57586669921875;-0.43646240234375;17.106928043479428;12.67304826269215;17.538263092864295;-0.97314453125;0.13818359375;0.04541015625;-2.625;0.1875;0.5625;
1441975667770218;0.4830322265625;-0.4947509765625;-0.57611083984375;-0.43597412109375;17.107142017092617;12.678944415846722;17.54819592704125;-0.9765625;0.1513671875;0.04150390625;-1.9375;0.5;0.3125;
1441975667799220;0.4835205078125;-0.494140625;-0.5765380859375;-0.435546875;17.108350297940415;12.672947627175237;17.547822170110678;-0.96533203125;0.14794921875;0.03173828125;-3.8125;0.625;-0.125;
1441975667814221;0.4840087890625;-0.4935302734375;-0.57684326171875;-0.43524169921875;17.110910720074443;12.666288302919897;17.5460858759447;-0.9599609375;0.14013671875;0.0478515625;-6.0;0.375;-0.3125;
1441975667830221;0.48431396484375;-0.4932861328125;-0.57696533203125;-0.43511962890625;17.112738202165758;12.66499919415651;17.5470599373326;-0.96630859375;0.1240234375;0.0556640625;-4.5625;0.9375;0.125;
1441975667852223;0.484619140625;-0.4930419921875;-0.57720947265625;-0.4346923828125;17.11235024498651;12.668146518841006;17.553730282817217;-0.96337890625;0.12890625;0.05224609375;-2.25;1.125;0.125;
1441975667875224;0.48516845703125;-0.4925537109375;-0.57763671875;-0.43408203125;17.112666069425927;12.669568631086424;17.561125084708753;-0.9677734375;0.14599609375;0.04443359375;-3.125;0.9375;0.3125;
1441975667890225;0.48583984375;-0.49169921875;-0.5782470703125;-0.4334716796875;17.11413875580934;12.661057390617083;17.560523000793495;-0.96875;0.14599609375;0.04052734375;-6.0625;0.9375;0.125;
1441975667912226;0.4864501953125;-0.49090576171875;-0.57879638671875;-0.4329833984375;17.11589031791801;12.651616078346951;17.55810370559086;-0.96533203125;0.13623046875;0.05078125;-8.0625;0.625;-0.1875;
1441975667927227;0.4869384765625;-0.49029541015625;-0.5789794921875;-0.4327392578125;17.11951753063891;12.645503009059407;17.55640120431531;-0.96533203125;0.1328125;0.05078125;-6.9375;0.4375;-0.5;
1441975667949228;0.48736572265625;-0.48992919921875;-0.5791015625;-0.4326171875;17.12271312232111;12.642825567298544;17.55668465771045;-0.97607421875;0.13525390625;0.04638671875;-4.375;0.3125;-1.0;
1441975667963229;0.48773193359375;-0.48944091796875;-0.579345703125;-0.43243408203125;17.124868439715346;12.63582841607626;17.55337306424493;-0.97119140625;0.14453125;0.0390625;-3.125;0.125;-1.5625;
1441975667986230;0.48828125;-0.48883056640625;-0.57958984375;-0.43218994140625;17.128550112523392;12.629469825649752;17.55174918221969;-0.962890625;0.14794921875;0.04931640625;-3.75;0.1875;-2.0625;
1441975668009232;0.489013671875;-0.488037109375;-0.57989501953125;-0.43182373046875;17.133320191085772;12.622613707092537;17.551214296693374;-0.9541015625;0.1533203125;0.0498046875;-4.75;0.5;-2.625;
1441975668024233;0.49005126953125;-0.4869384765625;-0.5802001953125;-0.43145751953125;17.141502603847197;12.612148372947832;17.5488182826803;-0.9599609375;0.15234375;0.0439453125;-6.25;0.8125;-3.3125;
1441975668046234;0.49114990234375;-0.48565673828125;-0.5806884765625;-0.43096923828125;17.14909051610963;12.597604590876463;17.54392992547742;-0.9716796875;0.1435546875;0.04638671875;-8.3125;0.8125;-4.1875;
1441975668069235;0.4923095703125;-0.484375;-0.5811767578125;-0.43048095703125;17.15712048364843;12.583678102225361;17.539818927999395;-0.9580078125;0.14453125;0.048828125;-9.625;0.875;-4.625;
1441975668083236;0.49359130859375;-0.48309326171875;-0.58148193359375;-0.4300537109375;17.1675066483249;12.572688038810995;17.538293420301052;-0.95458984375;0.1484375;0.052734375;-9.8125;1.3125;-5.25;
1441975668106237;0.49493408203125;-0.48175048828125;-0.5816650390625;-0.4298095703125;17.180193397386844;12.558549855707913;17.533079823889246;-0.96533203125;0.14501953125;0.04345703125;-9.625;1.375;-5.625;
1441975668129239;0.49609375;-0.48052978515625;-0.581787109375;-0.4296875;17.192007115431228;12.543015282412822;17.525070847166404;-0.97802734375;0.1259765625;0.04296875;-8.9375;1.0;-5.75;
1441975668143239;0.4970703125;-0.4793701171875;-0.5819091796875;-0.42962646484375;17.202497103110446;12.524859871884205;17.513581629643564;-0.96875;0.123046875;0.0419921875;-7.5625;0.625;-5.4375;
1441975668166241;0.49798583984375;-0.4783935546875;-0.58197021484375;-0.4295654296875;17.212237514710676;12.511426363019833;17.505925639944607;-0.96728515625;0.123046875;0.05029296875;-6.75;0.5;-5.1875;
1441975668189242;0.49871826171875;-0.47747802734375;-0.58203125;-0.42962646484375;17.220918504628493;12.493950291121273;17.493178916685913;-0.97119140625;0.12353515625;0.04150390625;-5.9375;0.0625;-4.875;
1441975668203243;0.49945068359375;-0.4765625;-0.58209228515625;-0.4296875;17.2295781022472;12.476134502917656;17.480092085581386;-0.98095703125;0.126953125;0.04248046875;-5.0;-0.25;-4.9375;
1441975668226244;0.500244140625;-0.47552490234375;-0.582275390625;-0.42974853515625;17.2382997818289;12.453382225313637;17.462925536176506;-0.9833984375;0.13134765625;0.0458984375;-5.0;-0.1875;-5.125;
1441975668249245;0.5009765625;-0.47454833984375;-0.5823974609375;-0.4298095703125;17.246717271927977;12.43207516747857;17.446695422690237;-0.97021484375;0.12255859375;0.0517578125;-5.5625;-0.3125;-5.0;
1441975668271247;0.50177001953125;-0.4736328125;-0.58245849609375;-0.42974853515625;17.25524362652148;12.417085063239721;17.436972134396047;-0.96728515625;0.12158203125;0.05078125;-5.25;-0.25;-4.9375;
1441975668295248;0.502685546875;-0.4725341796875;-0.58282470703125;-0.42938232421875;17.261993901704564;12.401144361585388;17.428931215015258;-0.96142578125;0.12890625;0.046875;-5.4375;0.5;-5.0625;
1441975668309249;0.5037841796875;-0.47119140625;-0.583251953125;-0.42901611328125;17.270547641360753;12.379252922951439;17.416334501895715;-0.9462890625;0.13037109375;0.05322265625;-7.9375;0.6875;-5.0625;
1441975668325250;0.5048828125;-0.469970703125;-0.58355712890625;-0.4285888671875;17.27923446751797;12.364259808636213;17.410128464555058;-0.9423828125;0.12109375;0.0615234375;-9.4375;1.0625;-5.125;
1441975668346251;0.50604248046875;-0.46893310546875;-0.583740234375;-0.42822265625;17.288822845570195;12.355768751332542;17.409501468096792;-0.94580078125;0.12158203125;0.06201171875;-8.5625;2.125;-5.1875;
1441975668369252;0.50732421875;-0.4676513671875;-0.58416748046875;-0.427490234375;17.29702607432263;12.347435153905973;17.41188825275553;-0.947265625;0.12255859375;0.05224609375;-8.125;2.375;-5.625;
1441975668385253;0.50872802734375;-0.46612548828125;-0.58477783203125;-0.4266357421875;17.305251263900967;12.333502284813985;17.410609812420223;-0.94140625;0.1328125;0.048828125;-10.5625;2.125;-5.3125;
1441975668415255;0.5101318359375;-0.46453857421875;-0.5853271484375;-0.4259033203125;17.314587394486477;12.314995747181182;17.404408248351704;-0.9306640625;0.12451171875;0.05517578125;-12.75;2.125;-5.1875;
1441975668429256;0.51141357421875;-0.463134765625;-0.585693359375;-0.4254150390625;17.324592691156237;12.296292066827139;17.395881653357236;-0.947265625;0.1123046875;0.05419921875;-12.3125;1.8125;-5.3125;
1441975668445257;0.512451171875;-0.46197509765625;-0.58599853515625;-0.42498779296875;17.33257429228833;12.280889682978529;17.3889135029132;-0.95361328125;0.1025390625;0.04541015625;-10.375;1.125;-5.0625;
1441975668474258;0.5133056640625;-0.4610595703125;-0.5863037109375;-0.424560546875;17.33834486393721;12.270642664009463;17.385862453698337;-0.9365234375;0.10791015625;0.0458984375;-8.4375;0.8125;-4.625;
1441975668488259;0.51397705078125;-0.4600830078125;-0.58673095703125;-0.4241943359375;17.342316505126906;12.251699876159913;17.373959897811993;-0.9306640625;0.1162109375;0.04296875;-7.25;0.5;-3.9375;
1441975668503260;0.5146484375;-0.45904541015625;-0.5872802734375;-0.4237060546875;17.345157077111992;12.232177753911802;17.362367462706246;-0.935546875;0.11181640625;0.0498046875;-7.4375;-0.0625;-3.375;
1441975668535262;0.5152587890625;-0.4581298828125;-0.587890625;-0.4232177734375;17.346697037460782;12.214748953209387;17.352481348662586;-0.94189453125;0.10400390625;0.048828125;-7.9375;-0.4375;-2.5;
1441975668549263;0.51568603515625;-0.45733642578125;-0.58843994140625;-0.4227294921875;17.346854438319493;12.19981949004794;17.34408896868578;-0.92626953125;0.099609375;0.04541015625;-7.75;-0.8125;-1.4375;
1441975668563263;0.515869140625;-0.45660400390625;-0.58917236328125;-0.42230224609375;17.34388617020376;12.178714127081928;17.32897915004813;-0.927734375;0.09130859375;0.04345703125;-6.5625;-1.125;-0.3125;
1441975668586265;0.5159912109375;-0.4560546875;-0.58984375;-0.4217529296875;17.33982980318392;12.167776460380933;17.323535108610606;-0.9072265625;0.08740234375;0.0556640625;-5.9375;-1.375;0.8125;
1441975668609266;0.51593017578125;-0.4556884765625;-0.59051513671875;-0.4212646484375;17.334013751904443;12.158749676063406;17.318764380819783;-0.880859375;0.08447265625;0.05126953125;-5.375;-1.1875;2.0625;
1441975668623267;0.51580810546875;-0.45556640625;-0.59124755859375;-0.4205322265625;17.325642547344984;12.163375284762308;17.327646362192592;-0.88330078125;0.0810546875;0.056640625;-4.5625;-1.0625;2.9375;
1441975668646268;0.5157470703125;-0.4554443359375;-0.5921630859375;-0.41949462890625;17.315327591738544;12.174668640053874;17.34478251762421;-0.8662109375;0.0927734375;0.04931640625;-4.125;-0.875;4.0625;
1441975668669269;0.51580810546875;-0.455078125;-0.59344482421875;-0.41802978515625;17.302562184757537;12.185864743144267;17.36518877255132;-0.8359375;0.09814453125;0.04736328125;-5.625;-0.25;5.0625;
1441975668683270;0.51605224609375;-0.454345703125;-0.594970703125;-0.41632080078125;17.289742932824606;12.190519551105464;17.382074407157756;-0.80126953125;0.09228515625;0.0517578125;-8.9375;0.0625;6.3125;
1441975668706272;0.51629638671875;-0.45367431640625;-0.5965576171875;-0.4144287109375;17.275594240195073;12.200704751192434;17.405035498609987;-0.76806640625;0.06787109375;0.05712890625;-12.0;0.0;7.9375;
1441975668729273;0.516357421875;-0.45343017578125;-0.59808349609375;-0.4124755859375;17.258797266943557;12.223155371707945;17.438482242045332;-0.74462890625;0.052734375;0.05419921875;-12.5;0.375;9.75;
1441975668743274;0.5159912109375;-0.45367431640625;-0.599609375;-0.4105224609375;17.237038529777898;12.252971329571379;17.476666291438516;-0.705078125;0.0458984375;0.05224609375;-10.5;0.9375;11.6875;
1441975668766275;0.51531982421875;-0.45440673828125;-0.6011962890625;-0.40814208984375;17.208995727612624;12.300013608311874;17.531276016232482;-0.66259765625;0.0546875;0.0556640625;-7.875;1.25;13.875;
1441975668788276;0.5146484375;-0.45513916015625;-0.6031494140625;-0.4052734375;17.176203567691132;12.349294589317072;17.590606405427597;-0.63134765625;0.07958984375;0.04541015625;-6.9375;1.5625;16.0;
1441975668803277;0.51434326171875;-0.45538330078125;-0.60552978515625;-0.40185546875;17.142466062965056;12.392342091140996;17.64901406119615;-0.6142578125;0.10009765625;0.04931640625;-9.5;2.0625;16.9375;
1441975668826278;0.5145263671875;-0.455078125;-0.6080322265625;-0.39813232421875;17.112021227637022;12.428935435603032;17.705238778014415;-0.63232421875;0.11865234375;0.05029296875;-14.8125;2.375;16.625;
1441975668848280;0.51483154296875;-0.45452880859375;-0.61041259765625;-0.3946533203125;17.085137318584838;12.455255595811614;17.751198652632468;-0.66162109375;0.107421875;0.03564453125;-18.9375;2.0625;16.5625;
1441975668871281;0.5147705078125;-0.45458984375;-0.6124267578125;-0.3916015625;17.057350456393305;12.485885863273095;17.796315744350327;-0.6669921875;0.0673828125;0.037109375;-19.0;1.625;17.1875;
1441975668886282;0.51397705078125;-0.45562744140625;-0.6141357421875;-0.3887939453125;17.023201671463173;12.526501478664997;17.84492179759877;-0.662109375;0.05615234375;0.0517578125;-13.5;2.8125;18.6875;
1441975668908283;0.51263427734375;-0.4573974609375;-0.6156005859375;-0.3861083984375;16.983921992252547;12.573996513706007;17.89569544386055;-0.66455078125;0.0654296875;0.044921875;-7.1875;2.3125;21.75;
1441975668931284;0.51104736328125;-0.4599609375;-0.61676025390625;-0.38330078125;16.940418804351008;12.636704013103481;17.958157621842975;-0.68017578125;0.06640625;0.05126953125;-2.0625;2.8125;24.6875;
1441975668946285;0.50897216796875;-0.462890625;-0.618408203125;-0.3798828125;16.88530542567831;12.698023492647376;0.020027490485587572;-0.72509765625;0.08935546875;0.0458984375;1.3125;4.5625;27.0;
1441975668968287;0.50634765625;-0.46563720703125;-0.62115478515625;-0.37548828125;16.81512802757349;12.743147786240609;0.07082562961677878;-0.76513671875;0.11865234375;0.02734375;0.6875;2.1875;31.4375;
1441975668992288;0.5037841796875;-0.46734619140625;-0.62493896484375;-0.3704833984375;16.74059844536626;12.761399783094323;0.10282058702955348;-0.79443359375;0.19580078125;0.0107421875;-5.5;-2.0625;33.8125;
1441975669007289;0.50128173828125;-0.46826171875;-0.62933349609375;-0.3653564453125;16.665947272497768;12.759400212643685;0.11921398919035349;-0.82470703125;0.2255859375;0.01806640625;-13.6875;-4.9375;34.75;
1441975669028290;0.49847412109375;-0.46990966796875;-0.63299560546875;-0.360595703125;16.591942557130867;12.768832969007292;0.14094437112930533;-0.85986328125;0.22998046875;0.05615234375;-17.875;-5.8125;34.625;
1441975669051291;0.49591064453125;-0.4718017578125;-0.635986328125;-0.3564453125;16.525621304179275;12.783332435621592;0.16391354921279655;-0.90185546875;0.26953125;0.06396484375;-12.0;-4.0;33.5;
1441975669066292;0.49371337890625;-0.47314453125;-0.638916015625;-0.35247802734375;16.465684443292655;12.790861693955144;0.18186909982788654;-0.95947265625;0.28955078125;0.06298828125;-7.875;-2.875;30.375;
1441975669088293;0.49169921875;-0.47442626953125;-0.6417236328125;-0.348388671875;16.407223509355948;12.800603927994693;0.20280464524302366;-0.98974609375;0.2890625;0.06201171875;-10.0;-3.0;28.75;
1441975669111295;0.48974609375;-0.47564697265625;-0.64471435546875;-0.343994140625;16.346693480248273;12.809868035608543;0.22507868291582683;-0.98974609375;0.2685546875;0.0771484375;-10.375;-1.1875;29.75;
1441975669126296;0.48785400390625;-0.4766845703125;-0.6480712890625;-0.33880615234375;16.28081985009136;12.819462200418034;0.25197243939310976;-1.0166015625;0.2958984375;0.0732421875;-12.0;-1.0;30.8125;
1441975669148297;0.48638916015625;-0.4764404296875;-0.65240478515625;-0.3330078125;16.215154426758744;12.8115524172566;0.2710526451059665;-1.04541015625;0.3515625;0.05126953125;-16.9375;-2.125;31.1875;
1441975669171298;0.48504638671875;-0.47552490234375;-0.65704345703125;-0.32696533203125;16.150428637197162;12.795604109525632;0.2862218761930898;-1.041015625;0.34423828125;0.0634765625;-26.5;-3.0;32.0625;
1441975669186299;0.48321533203125;-0.475341796875;-0.661376953125;-0.32122802734375;16.082335905482953;12.784810630179264;0.30124289230574613;-1.0185546875;0.318359375;0.09521484375;-30.125;-2.5;33.4375;
1441975669209300;0.4810791015625;-0.47601318359375;-0.6651611328125;-0.31561279296875;16.011716806674773;12.784870683650524;0.32186494880869465;-1.0166015625;0.33349609375;0.1123046875;-24.4375;-1.875;34.4375;
1441975669231302;0.47900390625;-0.4766845703125;-0.66888427734375;-0.30975341796875;15.94035143242372;12.786783196470385;0.3452116649926131;-1.03271484375;0.3837890625;0.1220703125;-19.0;-0.4375;34.5625;
1441975669246302;0.47705078125;-0.47698974609375;-0.67291259765625;-0.30352783203125;15.867799642950445;12.784760646578423;0.3681591329813603;-1.08203125;0.41015625;0.11376953125;-19.5625;0.0;35.25;
1441975669268304;0.474853515625;-0.476318359375;-0.67791748046875;-0.29681396484375;15.790261781991166;12.766235655320573;0.38136682732577415;-1.111328125;0.40771484375;0.09765625;-23.75;-1.5;38.25;
1441975669291305;0.4722900390625;-0.475830078125;-0.68310546875;-0.289794921875;15.706603911890031;12.74787388171237;0.39482184706521056;-1.10205078125;0.39990234375;0.1259765625;-30.5;-4.25;40.6875;
1441975669306306;0.46917724609375;-0.4764404296875;-0.687744140625;-0.28277587890625;15.616728744364657;12.740873313373921;0.41343073293172705;-1.05810546875;0.3955078125;0.13818359375;-29.875;-4.25;43.875;
1441975669328307;0.46600341796875;-0.477294921875;-0.69232177734375;-0.2752685546875;15.522632711898243;12.73829631204132;0.4371194700982951;-1.00634765625;0.419921875;0.14599609375;-23.0625;-2.6875;45.8125;
1441975669360309;0.46282958984375;-0.47735595703125;-0.69757080078125;-0.26708984375;15.424850523854552;12.726691357704253;0.4585029497022909;-0.9931640625;0.4755859375;0.14208984375;-24.0;-1.4375;46.0;
1441975669367309;0.45989990234375;-0.47650146484375;-0.7034912109375;-0.2581787109375;15.325408628456303;12.707058804199711;0.47982235690391734;-0.9990234375;0.50537109375;0.13671875;-31.0625;-3.8125;47.0;
1441975669388311;0.45684814453125;-0.475830078125;-0.70904541015625;-0.24932861328125;15.226353512188345;12.690402634347507;0.5023374468852373;-0.98974609375;0.49658203125;0.1259765625;-39.1875;-5.1875;49.0;
1441975669411312;0.45404052734375;-0.47467041015625;-0.71484375;-0.23992919921875;15.126852601115637;12.671452187871553;0.5274912991667394;-0.9794921875;0.498046875;0.10546875;-37.9375;-6.1875;50.25;
1441975669426313;0.45037841796875;-0.47332763671875;-0.7210693359375;-0.23077392578125;15.021601646291847;12.643506762041337;0.5426992028682186;-0.953125;0.48095703125;0.1162109375;-42.125;-4.75;52.25;
1441975669448314;0.445556640625;-0.47454833984375;-0.725830078125;-0.22247314453125;14.908279329050288;12.636111296553848;0.560679177043173;-0.9287109375;0.494140625;0.1640625;-40.875;-7.6875;53.5;
1441975669471315;0.44091796875;-0.4754638671875;-0.73077392578125;-0.21356201171875;14.793089172981272;12.627888617413555;0.5820776522067476;-0.9033203125;0.5185546875;0.126953125;-23.9375;-9.875;56.5625;
1441975669494317;0.4365234375;-0.47601318359375;-0.73553466796875;-0.20458984375;14.681662986785165;12.618724712770794;0.6043918152682096;-0.8818359375;0.57568359375;0.1484375;-27.75;-7.625;55.3125;
1441975669508317;0.431884765625;-0.477294921875;-0.73974609375;-0.1961669921875;14.570989035120343;12.614590494388114;0.6255303411356882;-0.88720703125;0.5986328125;0.1552734375;-29.25;-6.875;53.9375;
1441975669531319;0.42791748046875;-0.47735595703125;-0.74407958984375;-0.188232421875;14.473213654278773;12.601745621468034;0.6424797751272517;-0.88427734375;0.66064453125;0.14990234375;-23.8125;-7.375;51.25;
1441975669554320;0.425048828125;-0.47625732421875;-0.7481689453125;-0.1810302734375;14.394355028742567;12.583831815621163;0.6578873355810911;-0.90234375;0.6865234375;0.16162109375;-29.375;-8.0625;44.875;
1441975669568321;0.42266845703125;-0.47601318359375;-0.75128173828125;-0.17449951171875;14.323766592834316;12.576463121847203;0.6772790364486249;-0.91943359375;0.66015625;0.17724609375;-32.1875;-5.5;38.9375;
1441975669591322;0.41986083984375;-0.47589111328125;-0.75421142578125;-0.1688232421875;14.255505161644024;12.56683775213564;0.6896016358550112;-0.93017578125;0.64013671875;0.189453125;-23.875;-2.1875;38.1875;
1441975669606323;0.4171142578125;-0.47705078125;-0.75604248046875;-0.16387939453125;14.191116712036912;12.5693586099167;0.7044502932710444;-0.9140625;0.6259765625;0.22412109375;-19.0;-3.8125;36.625;
1441975669628324;0.41522216796875;-0.47808837890625;-0.75750732421875;-0.158935546875;14.13517270039598;12.575386496407098;0.7243158777292452;-0.85595703125;0.6279296875;0.20654296875;-9.3125;-1.875;33.8125;
1441975669651326;0.4146728515625;-0.4769287109375;-0.759521484375;-0.15435791015625;14.099152577507583;12.56761049747118;0.7412125669520033;-0.8564453125;0.705078125;0.1787109375;-12.25;0.375;27.3125;
1441975669667327;0.4151611328125;-0.4747314453125;-0.76141357421875;-0.15008544921875;14.077923207291947;12.556291602083714;0.759249718396701;-0.90380859375;0.70458984375;0.1904296875;-22.8125;1.875;19.875;
1441975669688328;0.41607666015625;-0.47283935546875;-0.76287841796875;-0.14599609375;14.061510926651943;12.549900679731072;0.7803952272924544;-0.900390625;0.6494140625;0.19873046875;-26.3125;5.3125;16.0625;
1441975669711329;0.417236328125;-0.47235107421875;-0.76336669921875;-0.14166259765625;14.042925421109064;12.558562791342675;0.8107372558268827;-0.86962890625;0.59228515625;0.2197265625;-22.0625;9.375;16.6875;
1441975669726330;0.4189453125;-0.4713134765625;-0.76409912109375;-0.13641357421875;14.024050107887518;12.566280525006887;0.8473349695606843;-0.8369140625;0.57666015625;0.18310546875;-15.375;12.9375;19.3125;
1441975669748331;0.421630859375;-0.46820068359375;-0.76556396484375;-0.13043212890625;14.014263146941287;12.562051437355308;0.886138051405128;-0.79345703125;0.6142578125;0.1572265625;-22.375;16.0625;17.0;
1441975669772333;0.42584228515625;-0.4630126953125;-0.7674560546875;-0.123779296875;14.019505460026842;12.549242720596858;0.9307256676005595;-0.79931640625;0.62548828125;0.16357421875;-36.25;19.125;12.8125;
1441975669786333;0.4317626953125;-0.45721435546875;-0.76861572265625;-0.11761474609375;14.046335017360297;12.541057417012212;0.9822061028805668;-0.7666015625;0.62890625;0.17822265625;-48.875;26.25;5.375;
1441975669808335;0.43994140625;-0.44976806640625;-0.76922607421875;-0.112060546875;14.103669368504136;12.532250262821298;1.0400996394030138;-0.75537109375;0.62158203125;0.14599609375;-50.625;32.1875;-3.6875;
1441975669831336;0.44818115234375;-0.44329833984375;-0.76885986328125;-0.107666015625;14.167827993105886;12.53309348541001;1.0974285797373355;-0.78271484375;0.56982421875;0.134765625;-56.5;39.875;-13.5;
1441975669846337;0.45623779296875;-0.438720703125;-0.76739501953125;-0.10260009765625;14.22055847279028;12.553632583574679;1.1672289504323283;-0.833984375;0.56298828125;0.15087890625;-45.9375;40.8125;-15.125;
1441975669868338;0.466064453125;-0.4334716796875;-0.764892578125;-0.099365234375;14.304274383829412;12.57981404322344;1.2392093860297957;-0.69384765625;0.623046875;0.138671875;-37.4375;47.375;-17.125;
1441975669891339;0.47760009765625;-0.42657470703125;-0.7615966796875;-0.09954833984375;14.433118813576455;12.601638881235143;1.301187485413367;-0.69482421875;0.64990234375;0.14306640625;-34.0625;53.375;-34.5625;
1441975669905340;0.48992919921875;-0.41552734375;-0.75946044921875;-0.10321044921875;14.608153880698922;12.587675092536434;1.3328869808760468;-0.7451171875;0.599609375;0.1005859375;-31.9375;51.0625;-54.875;
1441975669928341;0.4970703125;-0.404296875;-0.75982666015625;-0.110107421875;14.760887333489892;12.524391726166392;1.2986335495803265;-0.87109375;0.61181640625;0.19873046875;-40.25;45.375;-80.8125;
1441975669951343;0.51483154296875;-0.38995361328125;-0.75445556640625;-0.1170654296875;15.024036772474942;12.524392614384599;1.3469598097607598;-0.93359375;0.408203125;0.32470703125;-28.0625;14.5;-69.5;
1441975669974344;0.542724609375;-0.3656005859375;-0.74798583984375;-0.11102294921875;15.326038139585156;12.569459967045084;1.542681134158677;-0.75830078125;-0.111328125;-0.49755859375;-56.75;29.0;-83.8125;
1441975669988345;0.54461669921875;-0.348876953125;-0.7568359375;-0.0943603515625;15.28967871036471;12.44927899859838;1.5685425047542656;-2.14501953125;0.43310546875;0.10205078125;-127.5625;133.4375;-103.3125;
1441975670019347;0.5343017578125;-0.36199951171875;-0.759521484375;-0.08172607421875;15.05438664792868;12.50726968637833;1.6142939035919384;-1.85986328125;0.38037109375;0.32177734375;-142.125;4.875;29.0;
1441975670026347;0.52783203125;-0.3812255859375;-0.7540283203125;-0.08685302734375;14.9562896309236;12.626061382784115;1.6200659922507565;-0.64306640625;0.4482421875;0.712890625;21.9375;-11.75;116.1875;
1441975670048348;0.52606201171875;-0.39373779296875;-0.74810791015625;-0.09295654296875;14.93432067954423;12.723473391509941;1.6329390727042177;-0.62451171875;0.82275390625;0.41162109375;115.125;-8.5625;40.4375;
1441975670071350;0.51812744140625;-0.41363525390625;-0.74200439453125;-0.09979248046875;14.83635697762072;12.833305405100534;1.6165121513098895;-1.09765625;0.458984375;0.32568359375;93.1875;12.375;22.625;
1441975670086350;0.50390625;-0.43798828125;-0.7369384765625;-0.10595703125;14.666388971822427;12.930420539714754;1.563314877195128;-1.43017578125;0.5791015625;0.20751953125;124.125;-20.5625;49.5;
1441975670108352;0.48565673828125;-0.46533203125;-0.73150634765625;-0.11212158203125;14.456889119664094;13.027065002955592;1.4889779084570078;-1.24609375;0.669921875;0.26416015625;143.5625;-44.625;78.75;
1441975670131353;0.46258544921875;-0.49041748046875;-0.72991943359375;-0.1129150390625;14.181605790305758;13.076587797221531;1.3929334763484913;-1.234375;0.86376953125;0.06982421875;157.25;-61.25;95.6875;
1441975670146354;0.43658447265625;-0.51312255859375;-0.73077392578125;-0.11041259765625;13.870377802883771;13.097975381519618;1.2871206190250717;-1.21630859375;1.0146484375;0.1923828125;126.5;-77.75;126.0;
1441975670168355;0.40606689453125;-0.54046630859375;-0.72833251953125;-0.1123046875;13.546678133926408;13.147488249310845;1.1557334228183767;-1.08447265625;0.8447265625;0.35009765625;105.5;-86.5625;145.5;
1441975670191356;0.37860107421875;-0.57061767578125;-0.71905517578125;-0.1187744140625;13.284034543034739;13.256699151091516;1.043577610941584;-0.95703125;0.90625;0.27587890625;147.625;-107.75;149.3125;
1441975670205357;0.35595703125;-0.59716796875;-0.70880126953125;-0.11981201171875;13.036515152738914;13.374240405829196;0.9787125663401134;-0.6171875;0.9814453125;0.14697265625;188.25;-92.75;118.5625;
1441975670228359;0.33404541015625;-0.61053466796875;-0.709228515625;-0.11273193359375;12.769445552754096;13.386386213207413;0.9131598473613178;-0.82177734375;1.42236328125;-0.18115234375;157.375;-59.0625;115.0625;
1441975670251360;0.31207275390625;-0.61700439453125;-0.71527099609375;-0.1016845703125;12.488227635588165;13.346732819702888;0.8492217159414102;-1.06982421875;1.44287109375;-0.0390625;52.125;-57.5625;130.6875;
1441975670266361;0.29217529296875;-0.62603759765625;-0.71746826171875;-0.08984375;12.211898343951466;13.345895136055281;0.8120646402597946;-0.67041015625;1.041015625;-9.765625E-4;-2.375;-58.4375;137.3125;
1441975670288362;0.2734375;-0.63970947265625;-0.7139892578125;-0.07928466796875;11.946357844936824;13.394460355262343;0.7884393259734156;-0.43701171875;0.8173828125;-0.02392578125;18.5625;-39.1875;135.125;
1441975670321364;0.2554931640625;-0.652587890625;-0.70989990234375;-0.07012939453125;11.701794619110649;13.442987991524902;0.7610439613991263;-0.4404296875;0.88916015625;-0.12890625;58.1875;-27.4375;130.8125;
1441975670334365;0.23822021484375;-0.66082763671875;-0.7088623046875;-0.064453125;11.501659810521712;13.458278359739927;0.7137701781667948;-0.47216796875;0.9658203125;-0.20361328125;58.0625;-29.375;121.1875;
1441975670348365;0.22137451171875;-0.66650390625;-0.70941162109375;-0.059326171875;11.315165676384158;13.457780486097366;0.6630582426667524;-0.40576171875;0.8427734375;-0.06201171875;31.5;-46.6875;99.8125;
1441975670370367;0.2060546875;-0.67767333984375;-0.70391845703125;-0.0538330078125;11.128565105693076;13.510146501591404;0.6306469191494897;-0.3017578125;0.73291015625;0.03173828125;21.4375;-47.125;91.75;
1441975670386368;0.19219970703125;-0.68719482421875;-0.69891357421875;-0.04913330078125;10.964346706386081;13.555613569874254;0.5989166527476554;-0.27392578125;0.85009765625;-0.14599609375;55.5;-34.1875;89.375;
1441975670408369;0.1798095703125;-0.69189453125;-0.6978759765625;-0.04486083984375;10.824122897765267;13.56637847556163;0.5652686669392135;-0.26806640625;0.935546875;-0.17529296875;46.1875;-32.875;77.875;
1441975670431370;0.1702880859375;-0.69305419921875;-0.69927978515625;-0.04229736328125;10.726286871082488;13.555618974328773;0.5336601510531296;-0.212890625;0.9228515625;-0.12548828125;14.625;-32.6875;64.8125;
1441975670446371;0.16363525390625;-0.693115234375;-0.70062255859375;-0.04541015625;10.699014352835432;13.542686284781624;0.49123192585409253;-0.17138671875;0.865234375;-0.0673828125;-4.4375;-30.3125;42.8125;
1441975670468372;0.15985107421875;-0.6961669921875;-0.6978759765625;-0.052978515625;10.726939405089047;13.561092666170442;0.44767098671337474;-0.25439453125;0.7412109375;0.013671875;1.25;-40.0;16.25;
1441975670491374;0.1590576171875;-0.7039794921875;-0.6893310546875;-0.06365966796875;10.799180647694964;13.625498434703804;0.4115554771607019;-0.27099609375;0.64404296875;-0.0244140625;30.25;-42.0;-8.5;
1441975670505374;0.16192626953125;-0.70721435546875;-0.68389892578125;-0.07745361328125;10.93298188645054;13.659926989709303;0.3747337224135457;-0.2841796875;0.71630859375;-0.12744140625;68.875;-37.5625;-31.5625;
1441975670528376;0.1676025390625;-0.704833984375;-0.6827392578125;-0.0950927734375;11.12775528172757;13.652877910440758;0.3278597850228854;-0.3671875;0.7099609375;-0.107421875;41.6875;-39.4375;-57.5;
1441975670551377;0.175537109375;-0.70111083984375;-0.68109130859375;-0.11737060546875;11.380848105151253;13.64004521926321;0.2705013088046517;-0.37548828125;0.5810546875;-0.0595703125;7.3125;-49.25;-85.4375;
1441975670574378;0.18731689453125;-0.69598388671875;-0.6778564453125;-0.14520263671875;11.713190383446612;13.625278523434746;0.20581562802640008;-0.3466796875;0.5;-0.02001953125;9.125;-59.5;-121.5625;
1441975670588379;0.20294189453125;-0.68804931640625;-0.67425537109375;-0.17572021484375;12.102610864393672;13.597290812027644;0.14148104325199165;-0.3759765625;0.4716796875;-0.021484375;12.9375;-65.75;-161.4375;
1441975670611381;0.220458984375;-0.679931640625;-0.66802978515625;-0.207275390625;12.519311370416807;13.57600712749607;0.08014286860494349;-0.4921875;0.44482421875;0.0302734375;4.0;-63.5;-189.0;
1441975670634382;0.23974609375;-0.67236328125;-0.65789794921875;-0.240234375;12.967612832533298;13.570751845087301;0.023423389297093537;-0.54248046875;0.431640625;0.03515625;12.8125;-56.9375;-203.625;
1441975670648383;0.26129150390625;-0.66412353515625;-0.6441650390625;-0.2752685546875;13.460506125312452;13.574894870820696;17.969512547393297;-0.52490234375;0.42626953125;0.03076171875;29.75;-50.5625;-220.75;
1441975670670384;0.28546142578125;-0.65362548828125;-0.6280517578125;-0.311279296875;13.994656431216578;13.577337027322043;17.920620706519102;-0.60009765625;0.40283203125;-0.0048828125;40.25;-46.1875;-243.0625;
1441975670695385;0.30963134765625;-0.6416015625;-0.61004638671875;-0.34698486328125;14.538279635335009;13.575489202068415;17.8686801816967;-0.7626953125;0.27392578125;-0.029296875;38.1875;-40.3125;-261.1875;
1441975670708386;0.3330078125;-0.6278076171875;-0.590087890625;-0.3831787109375;15.093567567777392;13.559012941290932;17.798822335410193;-0.8564453125;0.24658203125;0.01953125;39.875;-38.5;-266.5625;
1441975670731387;0.3563232421875;-0.611083984375;-0.5699462890625;-0.41815185546875;15.651277879030117;13.505032313686609;17.703622156957778;-0.8525390625;0.234375;0.02294921875;42.9375;-43.125;-273.3125;
1441975670753389;0.3795166015625;-0.59326171875;-0.5496826171875;-0.4493408203125;16.186629521696553;13.425752900997605;17.596592941026834;-0.9111328125;0.13525390625;0.052734375;31.9375;-44.1875;-274.3125;
1441975670768390;0.40191650390625;-0.57489013671875;-0.5303955078125;-0.47613525390625;16.68410324030063;13.298645619507925;17.456108330347035;-1.017578125;0.0244140625;0.04833984375;21.125;-34.125;-263.1875;
1441975670791391;0.42413330078125;-0.55511474609375;-0.51300048828125;-0.49884033203125;17.146925082946602;13.035075530616334;17.199294324870984;-1.0556640625;-0.064453125;0.00390625;8.3125;-26.375;-245.4375;
1441975670813392;0.44537353515625;-0.53570556640625;-0.495849609375;-0.5185546875;17.567954980786887;12.350449669294848;16.526235735007788;-1.0712890625;-0.1474609375;-0.01220703125;-11.1875;-21.8125;-229.75;
1441975670828393;0.46392822265625;-0.5185546875;-0.47705078125;-0.5369873046875;17.81665793009941;8.686597498326032;12.858186942432448;-1.11669921875;-0.2265625;0.02392578125;-15.25;-14.25;-216.625;
1441975670851394;0.480712890625;-0.50201416015625;-0.45733642578125;-0.5548095703125;17.53203526012509;5.726240723725772;9.885504847532752;-1.1875;-0.24853515625;0.03466796875;1.125;-6.875;-205.0;
1441975670873396;0.49420166015625;-0.48565673828125;-0.4365234375;-0.573974609375;17.144528428424582;5.277902347615283;9.407341420869555;-1.21826171875;-0.2509765625;0.01708984375;9.0625;-6.0625;-200.4375;
1441975670888396;0.50311279296875;-0.4708251953125;-0.41387939453125;-0.594970703125;16.758800014465404;5.17920097643752;9.250013799097738;-1.2119140625;-0.330078125;0.0234375;27.125;-14.9375;-198.0625;
1441975670911398;0.50909423828125;-0.4591064453125;-0.39013671875;-0.61474609375;16.407638014870173;5.1333215262983405;9.127560878363788;-1.18994140625;-0.37890625;0.01806640625;56.4375;-21.5625;-191.75;
1441975670933399;0.515869140625;-0.44677734375;-0.36773681640625;-0.63177490234375;16.070648977486776;5.099436485816268;9.032047783358957;-1.1298828125;-0.18603515625;-0.052734375;73.0625;-12.875;-179.875;
1441975670948400;0.5242919921875;-0.43231201171875;-0.34735107421875;-0.646240234375;15.735838670804466;5.073097122580688;8.967473743127314;-1.14794921875;-0.0966796875;-0.07958984375;57.625;-10.3125;-175.625;
1441975670970401;0.53131103515625;-0.41748046875;-0.32647705078125;-0.66094970703125;15.399661044016518;5.071337405737941;8.921226736676633;-1.158203125;-0.177734375;-0.01806640625;34.375;-13.25;-173.875;
1441975670993402;0.53546142578125;-0.40325927734375;-0.30413818359375;-0.67694091796875;15.064498428560192;5.096899323607765;8.882559374272901;-1.10986328125;-0.22900390625;-0.0224609375;40.8125;-16.6875;-172.875;
1441975671008403;0.5374755859375;-0.38946533203125;-0.28125;-0.693115234375;14.736857744480094;5.137124234879651;8.847044555949212;-1.052734375;-0.16748046875;-0.02783203125;60.25;-18.5;-174.3125;
1441975671030404;0.53948974609375;-0.37518310546875;-0.25946044921875;-0.707763671875;14.419230311465068;5.174235714803501;8.816062110454839;-0.974609375;-0.06396484375;-0.05908203125;71.3125;-19.8125;-171.8125;
1441975671053406;0.5406494140625;-0.3602294921875;-0.23828125;-0.721923828125;14.10554763228427;5.21794629717166;8.792568769918256;-0.908203125;-0.046875;-0.03515625;63.0625;-21.75;-167.375;
1441975671068407;0.53985595703125;-0.3458251953125;-0.21710205078125;-0.736083984375;13.803265419544807;5.271491077111784;8.7693478913569;-0.82275390625;-0.02294921875;0.01025390625;62.5;-26.0;-163.875;
1441975671091408;0.5391845703125;-0.33184814453125;-0.19720458984375;-0.74853515625;13.518876787193474;5.317276417891693;8.74511029954719;-0.77734375;0.03955078125;0.02490234375;70.75;-26.1875;-159.375;
1441975671113409;0.53875732421875;-0.3192138671875;-0.17974853515625;-0.7586669921875;13.268811361632597;5.353300693636427;8.722007954417665;-0.736328125;0.09228515625;0.0244140625;62.6875;-25.1875;-150.9375;
1441975671131410;0.5367431640625;-0.30914306640625;-0.16497802734375;-0.767578125;13.066594632169878;5.393338809033395;8.702649681040677;-0.62744140625;0.0673828125;0.048828125;51.0625;-21.75;-133.125;
1441975671150411;0.52880859375;-0.3062744140625;-0.15533447265625;-0.77618408203125;12.97704890961306;5.461454076697029;8.690853536334702;-0.57763671875;0.048828125;0.083984375;51.875;-17.5625;-108.625;
1441975671173413;0.52069091796875;-0.30450439453125;-0.1490478515625;-0.7835693359375;12.922683813435762;5.529171451254703;8.690513398450582;-0.56884765625;0.1953125;-0.01318359375;72.875;-15.875;-82.625;
1441975671188414;0.5145263671875;-0.30499267578125;-0.14739990234375;-0.78778076171875;12.920999046714348;5.577249386819569;8.697706447436586;-0.52294921875;0.26123046875;-0.0751953125;66.6875;-21.875;-63.4375;
1441975671211415;0.510498046875;-0.3082275390625;-0.150390625;-0.78857421875;12.976335715808766;5.603513722256555;8.71066153509323;-0.51416015625;0.3115234375;-0.08544921875;41.5;-18.9375;-37.875;
1441975671233416;0.50830078125;-0.31671142578125;-0.15863037109375;-0.78497314453125;13.118322677437764;5.603007961462795;8.721970043391273;-0.51611328125;0.2958984375;-0.06982421875;15.875;-12.0625;-9.0625;
1441975671250417;0.50244140625;-0.3311767578125;-0.17156982421875;-0.780029296875;13.355556154092188;5.618248468734216;8.742173729105994;-0.61474609375;0.2041015625;-0.0634765625;-8.9375;3.5;29.75;
1441975671270418;0.494140625;-0.34991455078125;-0.1881103515625;-0.7733154296875;13.664231556990542;5.643320299585783;8.770773893033525;-0.69775390625;0.28173828125;-0.07275390625;-0.3125;14.125;69.875;
1441975671293420;0.48992919921875;-0.3675537109375;-0.2059326171875;-0.76324462890625;13.971103572792366;5.6362565763918075;8.796955036921;-0.6591796875;0.4453125;-0.099609375;1.0;23.625;98.875;
1441975671308420;0.4849853515625;-0.38848876953125;-0.2288818359375;-0.74932861328125;14.353388019555583;5.62654314376628;8.83696117940206;-0.8017578125;0.47119140625;-0.1845703125;-26.75;37.25;133.9375;
1441975671331422;0.47808837890625;-0.414306640625;-0.256591796875;-0.73077392578125;14.829888752241077;5.616379098234707;8.884789713977002;-0.99365234375;0.3583984375;-0.228515625;-40.1875;43.6875;171.75;
1441975671353423;0.4749755859375;-0.441162109375;-0.29132080078125;-0.70355224609375;15.382234404269392;5.560573055335033;8.94049327654659;-1.1240234375;0.56591796875;-0.2431640625;-49.8125;58.4375;212.8125;
1441975671368424;0.4686279296875;-0.46881103515625;-0.33099365234375;-0.67169189453125;16.00353631477588;5.540612426556193;9.044092598498967;-1.41845703125;0.47900390625;-0.29296875;-103.6875;68.8125;249.25;
1441975671391425;0.45428466796875;-0.500244140625;-0.37213134765625;-0.63641357421875;16.70873348132121;5.643869300964675;9.24580164853329;-1.6826171875;0.1884765625;-0.15869140625;-114.625;67.0625;292.6875;
1441975671413426;0.4315185546875;-0.53497314453125;-0.41497802734375;-0.59619140625;17.486012517958336;6.4035650904654045;10.08446582868273;-1.861328125;0.00537109375;-0.08203125;-90.1875;73.75;341.875;
1441975671428427;0.396240234375;-0.572509765625;-0.45208740234375;-0.5576171875;17.531557092807493;12.401888099324816;16.09125361848892;-2.17236328125;-0.166015625;-0.0166015625;-70.375;79.8125;399.0;
1441975671450429;0.3538818359375;-0.61187744140625;-0.4825439453125;-0.51727294921875;16.70324299119967;13.4898689029585;17.14281369225353;-2.24462890625;-0.123046875;-0.0390625;0.8125;69.25;425.5625;
1441975671473430;0.31182861328125;-0.64678955078125;-0.510009765625;-0.4736328125;15.855074367385383;13.744217077076073;17.37025029408804;-2.24560546875;0.24462890625;-0.197265625;45.375;75.8125;436.0;
1441975671488431;0.28338623046875;-0.6676025390625;-0.54388427734375;-0.42218017578125;15.068190409546615;13.804524659997474;17.524792857362204;-2.171875;0.78955078125;-0.28955078125;35.1875;81.0;422.25;
1441975671511432;0.2640380859375;-0.6689453125;-0.588623046875;-0.369384765625;14.360375507395643;13.665584573964479;17.604817399704853;-2.38720703125;0.40185546875;-0.3310546875;-81.6875;100.6875;400.3125;
1441975671533433;0.238525390625;-0.68182373046875;-0.60906982421875;-0.32763671875;13.749954610217682;13.684423867518438;17.686279667245685;-2.271484375;0.09375;0.1787109375;-204.625;77.5625;371.625;
1441975671549434;0.2047119140625;-0.70758056640625;-0.60565185546875;-0.30120849609375;13.238797117088735;13.83052418026207;17.70802762605573;-2.048828125;-0.6435546875;-0.05712890625;-44.0;70.4375;301.875;
1441975671570435;0.17718505859375;-0.727783203125;-0.59967041015625;-0.28179931640625;12.850874533540235;13.948613361968;17.70637640784475;-1.9814453125;-0.384765625;-0.267578125;130.5625;37.875;253.375;
1441975671594437;0.15777587890625;-0.73565673828125;-0.6053466796875;-0.25994873046875;12.498946328338695;13.963786448131538;17.71077018453614;-1.671875;0.01220703125;-0.14013671875;117.5625;26.625;214.5625;
