1441975265711222;-0.8548583984375;-0.12408447265625;-0.21734619140625;-0.45458984375;7.500309034739835;15.031896074390007;10.2549207642286;0.6953125;0.61767578125;-0.3349609375;36.375;18.0;-53.4375;
1441975265734223;-0.8546142578125;-0.12542724609375;-0.2255859375;-0.45068359375;7.418726840479935;15.037839675935842;10.286416268850731;0.626953125;0.4296875;-0.29736328125;-6.6875;21.75;-30.6875;
1441975265743223;-0.85614013671875;-0.12744140625;-0.2353515625;-0.44219970703125;7.312793098231389;15.068701119136465;10.322677991709167;0.6025390625;0.2890625;-0.28857421875;7.4375;31.875;-9.5625;
1441975265763225;-0.857421875;-0.12890625;-0.2464599609375;-0.43304443359375;7.188184004626446;15.099448964299135;10.360172484890137;0.583984375;0.349609375;-0.31884765625;34.9375;43.4375;0.9375;
1441975265794226;-0.857421875;-0.12811279296875;-0.2596435546875;-0.425537109375;7.0355256331145135;15.1142693103614;10.394790991662203;0.5888671875;0.58935546875;-0.3330078125;43.9375;50.0;13.625;
1441975265809227;-0.855712890625;-0.124755859375;-0.27471923828125;-0.42047119140625;6.857877831965965;15.107960604326768;10.426061374586194;0.6142578125;0.61669921875;-0.3837890625;26.0625;55.5;27.4375;
1441975265823228;-0.85369873046875;-0.1192626953125;-0.29156494140625;-0.41485595703125;6.6496352309655915;15.099583139740016;10.453193517779473;0.5830078125;0.56298828125;-0.35986328125;4.0625;61.0625;41.6875;
1441975265846229;-0.851806640625;-0.11322021484375;-0.30999755859375;-0.40692138671875;6.41549414727892;15.099093574149618;10.482206512211942;0.59765625;0.47509765625;-0.3388671875;-0.4375;65.75;55.625;
1441975265862230;-0.8499755859375;-0.1075439453125;-0.32879638671875;-0.3974609375;6.174488071895967;15.10427257260656;10.513972659263393;0.6669921875;0.40380859375;-0.28271484375;9.8125;70.6875;61.875;
1441975265883231;-0.84698486328125;-0.10125732421875;-0.34857177734375;-0.38861083984375;5.922351596658741;15.09903104813702;10.549492947508174;0.72509765625;0.43310546875;-0.24951171875;20.6875;72.4375;63.625;
1441975265907233;-0.8431396484375;-0.0953369140625;-0.369384765625;-0.3790283203125;5.659384543533797;15.08973174769777;10.593420158383903;0.7861328125;0.53955078125;-0.26611328125;16.0;77.625;69.375;
1441975265922234;-0.83905029296875;-0.09014892578125;-0.39019775390625;-0.368408203125;5.396335901431487;15.081621444996953;10.642895956555428;0.8076171875;0.73779296875;-0.40380859375;16.625;91.75;80.1875;
1441975265946235;-0.8333740234375;-0.08245849609375;-0.41278076171875;-0.3583984375;5.103822293459581;15.058338934240654;10.693089476339022;0.796875;0.69140625;-0.4462890625;19.5625;102.3125;88.0;
1441975265966236;-0.82684326171875;-0.0721435546875;-0.43572998046875;-0.348388671875;4.791601169621131;15.029129879489279;10.736713585710115;0.8359375;0.71240234375;-0.3671875;8.125;108.5625;102.375;
1441975265982237;-0.81951904296875;-0.060791015625;-0.458740234375;-0.33807373046875;4.470336713571285;14.99453430782046;10.781555476927402;0.91162109375;0.52294921875;-0.302734375;-0.9375;106.0;112.75;
1441975266003238;-0.81231689453125;-0.04986572265625;-0.481689453125;-0.3251953125;4.140570474342997;14.969263531771402;10.829550122774224;0.9892578125;0.36328125;-0.25927734375;-4.125;106.1875;116.5;
1441975266025240;-0.80511474609375;-0.04095458984375;-0.50384521484375;-0.31036376953125;3.8202709233469623;14.949212083916802;10.88777127814468;1.13671875;0.30615234375;-0.267578125;8.875;107.1875;119.9375;
1441975266042240;-0.79730224609375;-0.03253173828125;-0.52557373046875;-0.29522705078125;3.503890074725174;14.921440841727707;10.955396949575452;1.2861328125;0.2685546875;-0.28173828125;23.25;107.6875;113.125;
1441975266063242;-0.78839111328125;-0.0235595703125;-0.54736328125;-0.280029296875;3.181440273144601;14.878916630158633;11.034210636168265;1.361328125;0.37548828125;-0.22607421875;26.0625;108.1875;112.8125;
1441975266085243;-0.7783203125;-0.0123291015625;-0.56817626953125;-0.26715087890625;2.8628337328093236;14.811176441694556;11.11718597442204;1.4287109375;0.3583984375;-0.30078125;22.375;112.4375;115.8125;
1441975266102244;-0.76788330078125;0.001708984375;-0.58795166015625;-0.2545166015625;2.5348048905830223;14.736959194916123;11.19288612381233;1.443359375;0.40966796875;-0.31884765625;3.1875;108.6875;118.625;
1441975266131246;-0.756591796875;0.01898193359375;-0.60675048828125;-0.24322509765625;2.198688581249991;14.643231526611402;11.268111116707006;1.42529296875;0.51220703125;-0.3095703125;-7.25;102.0625;131.75;
1441975266146246;-0.744873046875;0.03704833984375;-0.624755859375;-0.2315673828125;1.860471938924371;14.529975316248898;11.360406508999178;1.3974609375;0.404296875;-0.34814453125;-26.3125;97.625;139.6875;
1441975266162247;-0.7332763671875;0.0528564453125;-0.64208984375;-0.21734619140625;1.5284584090449453;14.394376396613294;11.494153424508829;1.39697265625;0.28955078125;-0.34033203125;-27.8125;95.125;142.5625;
1441975266183249;-0.7218017578125;0.065673828125;-0.6593017578125;-0.20013427734375;1.2036462119049987;14.201800059547612;11.708802030140967;1.41748046875;0.205078125;-0.33935546875;-8.9375;95.125;141.3125;
1441975266214250;-0.7103271484375;0.0767822265625;-0.67608642578125;-0.180419921875;0.8852403839353108;13.888657966160409;12.0603608677246;1.40771484375;0.2294921875;-0.296875;14.9375;97.125;141.125;
1441975266222251;-0.69842529296875;0.08660888671875;-0.69219970703125;-0.16015625;0.5983192998008402;13.238802894576645;12.754962972221582;1.36376953125;0.2734375;-0.28955078125;32.0;97.1875;145.1875;
1441975266243252;-0.68646240234375;0.09564208984375;-0.7071533203125;-0.14019775390625;0.3981172709444372;11.77427638705272;14.265214456572258;1.30224609375;0.2333984375;-0.291015625;38.6875;97.625;142.125;
1441975266265253;-0.6748046875;0.10382080078125;-0.720703125;-0.12054443359375;0.39588816325143633;9.544306849664247;16.542326528066987;1.24755859375;0.22021484375;-0.265625;39.8125;94.4375;137.5;
1441975266288255;-0.6640625;0.109130859375;-0.73284912109375;-0.1004638671875;0.5619856765023217;8.214279244163546;17.932411604644578;1.19091796875;0.15283203125;-0.20654296875;42.1875;88.0;131.6875;
1441975266303255;-0.65460205078125;0.11029052734375;-0.74365234375;-0.079833984375;0.7631371395623329;7.668768015352249;0.5569141598431742;1.12060546875;0.03076171875;-0.177734375;55.375;80.9375;119.3125;
1441975266334257;-0.648193359375;0.10675048828125;-0.751708984375;-0.0589599609375;0.9248066877828711;7.42337907990654;0.9015358023764305;1.02783203125;-0.04541015625;-0.1376953125;75.1875;71.5625;103.375;
1441975266348258;-0.64178466796875;0.09881591796875;-0.75958251953125;-0.03857421875;1.0735843290424534;7.365772841126678;1.0742883787441428;0.9462890625;-0.0478515625;-0.103515625;96.25;62.0625;86.0;
1441975266371259;-0.63714599609375;0.08831787109375;-0.7655029296875;-0.02020263671875;1.1794182526514354;7.381118312959668;1.1764755268705287;0.873046875;-0.03466796875;-0.11376953125;112.875;51.6875;65.9375;
1441975266385260;-0.63470458984375;0.0771484375;-0.7689208984375;-0.0050048828125;1.237046877069177;7.419577386556817;1.2454561541447156;0.8056640625;-0.00390625;-0.107421875;115.75;37.9375;46.75;
1441975266408261;-0.63592529296875;0.06536865234375;-0.76898193359375;0.00616455078125;1.2263802702497366;7.466190146836711;1.2925028663045341;0.748046875;0.04150390625;-0.0849609375;105.8125;20.3125;29.9375;
1441975266426262;-0.6392822265625;0.0546875;-0.7669677734375;0.013916015625;1.1764984874391624;7.5045409412864545;1.329387609504118;0.70068359375;0.0615234375;-0.05615234375;92.25;2.875;15.4375;
1441975266445264;-0.64483642578125;0.04583740234375;-0.7628173828125;0.0185546875;1.0906620289853823;7.513232744284759;1.3757322333253321;0.6611328125;0.0751953125;-0.0361328125;73.625;-14.9375;4.125;
1441975266468265;-0.6527099609375;0.03900146484375;-0.75640869140625;0.0203857421875;0.9693879498469966;7.472189381957547;1.452122151715138;0.63916015625;0.08837890625;-0.02587890625;53.25;-32.75;-3.1875;
1441975266483266;-0.6630859375;0.033935546875;-0.74761962890625;0.01934814453125;0.8102974583845488;7.359165082842851;1.581590322061016;0.6328125;0.09716796875;-0.01806640625;33.0625;-51.6875;-8.25;
1441975266505267;-0.67584228515625;0.030517578125;-0.736328125;0.01580810546875;0.6176003526000471;7.097748201166274;1.8425734329833419;0.65625;0.13037109375;-0.01171875;13.6875;-72.125;-12.125;
1441975266536269;-0.689697265625;0.0303955078125;-0.723388671875;0.011474609375;0.43556287621707823;6.4027637558725585;2.5205230863481987;0.69677734375;0.16015625;-0.03076171875;-3.4375;-91.0;-15.0625;
1441975266544269;-0.704833984375;0.0321044921875;-0.708740234375;0.00537109375;0.30531528967928967;4.743363278236197;4.148292334147724;0.7353515625;0.20458984375;-0.05419921875;-20.0;-106.375;-15.875;
1441975266565270;-0.7205810546875;0.03558349609375;-0.6925048828125;-0.00250244140625;0.35161893047610726;2.4067285233604445;6.438883462756601;0.7998046875;0.24072265625;-0.08056640625;-35.0;-117.9375;-15.25;
1441975266588272;-0.73663330078125;0.040771484375;-0.67498779296875;-0.0123291015625;0.5503047274339458;1.1306840255296084;7.65388949368989;0.869140625;0.2734375;-0.107421875;-49.25;-126.5625;-15.0;
1441975266606273;-0.75274658203125;0.04754638671875;-0.65618896484375;-0.02423095703125;0.8055169609561195;0.5329389098127301;8.175423434887097;0.91552734375;0.28759765625;-0.1357421875;-64.0625;-133.1875;-15.625;
1441975266625274;-0.76861572265625;0.0555419921875;-0.63623046875;-0.0382080078125;1.0834106795988503;0.1820881891883395;8.436124328211115;0.92578125;0.26513671875;-0.1708984375;-79.0625;-138.625;-17.5;
1441975266648275;-0.78350830078125;0.06390380859375;-0.61578369140625;-0.05389404296875;1.3646452319200757;17.930165600257197;8.588630816712095;0.9169921875;0.20849609375;-0.20361328125;-93.125;-142.8125;-21.5625;
1441975266664276;-0.7969970703125;0.071533203125;-0.5955810546875;-0.070556640625;1.637617447363567;17.722592964068774;8.694813409861062;0.921875;0.14501953125;-0.25341796875;-102.125;-140.75;-27.25;
1441975266685277;-0.80908203125;0.07757568359375;-0.5760498046875;-0.0870361328125;1.898413677958836;17.544893654085723;8.777370650238376;0.9443359375;0.0947265625;-0.2763671875;-104.9375;-134.5;-34.5;
1441975266708279;-0.81988525390625;0.0814208984375;-0.55755615234375;-0.10198974609375;2.1445131442357677;17.396609697639683;8.844940403289982;0.97607421875;0.05859375;-0.314453125;-98.8125;-126.4375;-41.5;
1441975266724279;-0.82958984375;0.0828857421875;-0.540283203125;-0.114501953125;2.375005973262958;17.27819431447073;8.901863158012013;0.994140625;0.0302734375;-0.34228515625;-85.125;-117.5;-46.5;
1441975266746281;-0.8377685546875;0.08251953125;-0.52569580078125;-0.12274169921875;2.570998828353816;17.20472792699148;8.939148057905687;0.9931640625;0.01806640625;-0.3662109375;-66.625;-107.8125;-49.0;
1441975266768282;-0.8447265625;0.07977294921875;-0.51385498046875;-0.1270751953125;2.733959165536915;17.160350362270215;8.973952465660703;0.99365234375;0.01708984375;-0.388671875;-42.3125;-95.3125;-48.0625;
1441975266784283;-0.85040283203125;0.07489013671875;-0.5050048828125;-0.12762451171875;2.8605987378269564;17.141072289814172;9.009144343288746;1.00732421875;0.03857421875;-0.39794921875;-15.6875;-80.0625;-44.8125;
1441975266814285;-0.854736328125;0.0687255859375;-0.4991455078125;-0.1251220703125;2.9496304081612235;17.14199020420024;9.04319155225506;1.0166015625;0.09228515625;-0.42333984375;10.5;-62.3125;-38.6875;
1441975266829286;-0.8577880859375;0.06207275390625;-0.495849609375;-0.1207275390625;3.00518034110052;17.155195846672527;9.075713268347448;1.0126953125;0.14111328125;-0.43115234375;30.875;-44.75;-31.0625;
1441975266844286;-0.859619140625;0.05572509765625;-0.49468994140625;-0.11553955078125;3.0314819175589154;17.174213825653133;9.10505485817768;0.99951171875;0.18310546875;-0.43017578125;43.125;-29.75;-22.8125;
1441975266868288;-0.86004638671875;0.05035400390625;-0.49566650390625;-0.11041259765625;3.0273052132660743;17.193880664734003;9.129838139872373;0.97900390625;0.21337890625;-0.41357421875;47.375;-16.375;-14.6875;
1441975266888289;-0.8592529296875;0.04608154296875;-0.49847412109375;-0.1055908203125;2.996783221622003;17.212973717782777;9.149614985302357;0.94873046875;0.22509765625;-0.3935546875;45.125;-3.1875;-7.0625;
1441975266904290;-0.857421875;0.04290771484375;-0.5029296875;-0.100830078125;2.942546398992668;17.234426128617784;9.162411857302498;0.91552734375;0.22265625;-0.3681640625;40.1875;8.75;-0.5;
1441975266928291;-0.8546142578125;0.0406494140625;-0.50885009765625;-0.0958251953125;2.8667482585592587;17.260873321484357;9.167534087853308;0.875;0.2080078125;-0.33740234375;36.375;19.5;5.5;
1441975266948292;-0.85101318359375;0.03936767578125;-0.51593017578125;-0.0904541015625;2.773302587140661;17.295312642318336;9.162163304395369;0.83837890625;0.19140625;-0.31103515625;34.5;28.875;12.3125;
1441975266964293;-0.8466796875;0.0389404296875;-0.52392578125;-0.0849609375;2.665518013926137;17.335981303910785;9.14747457405833;0.810546875;0.18701171875;-0.31005859375;33.3125;38.25;19.0;
1441975266986294;-0.841796875;0.03948974609375;-0.53253173828125;-0.0797119140625;2.5478142345747488;17.381637499743512;9.122651181837936;0.7958984375;0.18798828125;-0.314453125;30.9375;45.9375;25.25;
1441975267016296;-0.8365478515625;0.041015625;-0.541259765625;-0.07489013671875;2.426378117843994;17.43236135704394;9.086779650339626;0.77978515625;0.1748046875;-0.30419921875;26.75;51.1875;29.9375;
1441975267024297;-0.83123779296875;0.04339599609375;-0.5498046875;-0.07098388671875;2.3066990641642042;17.483343652776764;9.043205188730838;0.76611328125;0.1533203125;-0.283203125;20.875;52.9375;32.375;
1441975267045298;-0.82586669921875;0.046630859375;-0.557861328125;-0.06768798828125;2.1916124612771393;17.53923284058836;8.988481725437223;0.7490234375;0.13232421875;-0.259765625;13.625;51.8125;33.375;
1441975267068299;-0.82061767578125;0.0506591796875;-0.5655517578125;-0.06536865234375;2.081516754337927;17.595735995914005;8.925791169703613;0.74658203125;0.11474609375;-0.24267578125;7.1875;49.6875;34.4375;
1441975267086300;-0.81549072265625;0.055419921875;-0.57257080078125;-0.0640869140625;1.97938346357726;17.651791533778102;8.8561269883219;0.75634765625;0.10009765625;-0.23974609375;-0.125;47.75;35.0625;
1441975267114302;-0.81060791015625;0.06097412109375;-0.5789794921875;-0.0638427734375;1.8853983004841717;17.707887017372755;8.778842589694618;0.77587890625;0.10400390625;-0.23583984375;-7.5625;45.0;35.3125;
1441975267128303;-0.8060302734375;0.06732177734375;-0.58453369140625;-0.06488037109375;1.8021867025718732;17.76003346151719;8.696882776078048;0.80126953125;0.1005859375;-0.22802734375;-15.0;40.9375;35.25;
1441975267144304;-0.80181884765625;0.0745849609375;-0.58917236328125;-0.06732177734375;1.73050232184627;17.80655848701722;8.610934257652472;0.82568359375;0.10009765625;-0.2333984375;-23.875;36.4375;34.8125;
1441975267165305;-0.7978515625;0.0826416015625;-0.593017578125;-0.07122802734375;1.668081490747686;17.843820766101057;8.524892201197844;0.86279296875;0.099609375;-0.236328125;-33.6875;31.875;34.0625;
1441975267188306;-0.794189453125;0.0914306640625;-0.59600830078125;-0.076171875;1.6158333591761116;17.876416995075207;8.436141647304973;0.8935546875;0.095703125;-0.24609375;-43.25;28.125;32.8125;
1441975267204307;-0.79083251953125;0.10064697265625;-0.59814453125;-0.0819091796875;1.573602196989527;17.90333166840761;8.347909712128585;0.91357421875;0.08251953125;-0.27294921875;-51.1875;25.375;31.125;
1441975267242309;-0.787841796875;0.109619140625;-0.59967041015625;-0.0877685546875;1.5395822868243747;17.926349045228413;8.26399310344899;0.9326171875;0.0654296875;-0.29052734375;-56.625;22.1875;28.6875;
1441975267248309;-0.7852783203125;0.117919921875;-0.6007080078125;-0.09307861328125;1.513364009886308;17.950464636733876;8.18392736321491;0.93701171875;0.048828125;-0.30908203125;-57.25;19.8125;25.875;
1441975267264310;-0.78314208984375;0.12506103515625;-0.601318359375;-0.09765625;1.4941061810510226;17.97161822045448;8.114497938104595;0.9345703125;0.025390625;-0.33447265625;-52.8125;18.0;23.0;
1441975267285312;-0.78143310546875;0.130859375;-0.6016845703125;-0.10125732421875;1.4801772668079232;17.991259177339394;8.056072672860779;0.9228515625;0.01806640625;-0.34375;-45.75;16.125;18.9375;
1441975267308313;-0.78021240234375;0.1353759765625;-0.6019287109375;-0.10382080078125;1.4709813418228566;0.010928662201406345;8.007221585550225;0.90380859375;0.00390625;-0.3369140625;-36.6875;13.5;15.3125;
1441975267324314;-0.779296875;0.13873291015625;-0.6019287109375;-0.1058349609375;1.4656410756898741;0.023333139869102945;7.972561668790432;0.8798828125;-0.01806640625;-0.326171875;-28.0625;11.0;11.3125;
1441975267346315;-0.77886962890625;0.14141845703125;-0.6015625;-0.10748291015625;1.4667226111904166;0.030702039033852623;7.947197740876511;0.875;0.001953125;-0.3173828125;-21.0;8.75;8.9375;
1441975267368316;-0.77886962890625;0.14434814453125;-0.6005859375;-0.10906982421875;1.4766448264271588;0.039164269042382356;7.919869412582622;0.88916015625;0.0458984375;-0.32763671875;-16.5625;5.9375;9.6875;
1441975267384317;-0.77923583984375;0.14776611328125;-0.59906005859375;-0.1103515625;1.4952511143696956;0.05619936477847129;7.883091328570454;0.9111328125;0.06982421875;-0.3515625;-16.375;2.75;12.0;
1441975267405318;-0.7799072265625;0.1512451171875;-0.59710693359375;-0.1114501953125;1.5202838549227518;0.07404082801833974;7.8458956870735905;0.927734375;0.0419921875;-0.3681640625;-17.5625;-1.0;12.625;
1441975267428320;-0.78070068359375;0.15447998046875;-0.5950927734375;-0.11199951171875;1.5475110422018876;0.09647027370938613;7.807333139368517;0.95361328125;0.01806640625;-0.3720703125;-17.875;-4.6875;11.6875;
1441975267444321;-0.78173828125;0.157470703125;-0.59295654296875;-0.112060546875;1.5782335903752878;0.12160525305845468;7.769089692492812;0.99462890625;0.00634765625;-0.3740234375;-14.5;-6.5;11.5625;
1441975267468322;-0.782958984375;0.16033935546875;-0.59063720703125;-0.1116943359375;1.612699034960766;0.14961278274197476;7.730169180258017;1.0244140625;-0.00146484375;-0.39306640625;-11.375;-7.9375;11.625;
1441975267488323;-0.784423828125;0.16302490234375;-0.588134765625;-0.1109619140625;1.6511097798354073;0.1783007820713776;7.692812991375151;1.03076171875;-0.02490234375;-0.4013671875;-9.4375;-9.75;11.0;
1441975267510324;-0.78619384765625;0.1654052734375;-0.58526611328125;-0.1102294921875;1.69440028604608;0.19956759709603442;7.664046197853698;1.02099609375;-0.060546875;-0.39990234375;-8.0;-12.125;8.75;
1441975267527325;-0.7882080078125;0.16717529296875;-0.58221435546875;-0.10919189453125;1.7405839398699001;0.2159628889737041;7.643870110391427;0.978515625;-0.09423828125;-0.39453125;-7.5;-14.5;4.5;
1441975267551327;-0.79046630859375;0.16815185546875;-0.57916259765625;-0.10760498046875;1.788205457151284;0.23027685319666888;7.6313665431105395;0.919921875;-0.12255859375;-0.3798828125;-5.0;-16.5;0.8125;
1441975267564328;-0.79278564453125;0.1680908203125;-0.57635498046875;-0.10528564453125;1.8338369772177399;0.2445119107000399;7.626312367571921;0.8984375;-0.13330078125;-0.37890625;0.4375;-17.5625;-1.6875;
1441975267587329;-0.79498291015625;0.16705322265625;-0.5740966796875;-0.1025390625;1.8729066519708222;0.25708042283082594;7.628932370236557;0.91943359375;-0.11376953125;-0.3876953125;7.375;-16.75;-2.4375;
1441975267611330;-0.796875;0.1656494140625;-0.57244873046875;-0.09979248046875;1.9038167507953756;0.26917218989051667;7.633762016101605;0.99609375;-0.04296875;-0.43408203125;15.0;-13.125;0.0625;
1441975267624331;-0.79840087890625;0.164794921875;-0.57080078125;-0.098388671875;1.930124735501442;0.26925042179312136;7.642698953748254;1.11279296875;0.03125;-0.513671875;18.375;-6.9375;4.3125;
1441975267647332;-0.79974365234375;0.16546630859375;-0.5684814453125;-0.09979248046875;1.9573852077974345;0.24408098800803768;7.658732692063179;1.18017578125;0.0810546875;-0.57177734375;11.75;-2.375;6.375;
1441975267668333;-0.80108642578125;0.168212890625;-0.565185546875;-0.103271484375;1.9924674585750763;0.20766062509261593;7.66848514061843;1.04052734375;0.06298828125;-0.53271484375;-7.5;-3.375;2.3125;
1441975267684334;-0.80242919921875;0.17236328125;-0.561279296875;-0.107177734375;2.0346796945724117;0.17709238946829356;7.6644725082251615;0.82080078125;-0.01171875;-0.4072265625;-27.0625;-10.5;-1.3125;
1441975267708336;-0.80352783203125;0.17681884765625;-0.5574951171875;-0.11083984375;2.0753235129622003;0.15388948165918773;7.6527002364765195;0.71923828125;-0.09423828125;-0.34228515625;-35.8125;-16.0625;-2.4375;
1441975267728337;-0.8045654296875;0.1805419921875;-0.554443359375;-0.1129150390625;2.111316484938452;0.1472294035106489;7.634265243875949;0.68408203125;-0.138671875;-0.31298828125;-37.25;-16.5;-2.625;
1441975267744338;-0.8056640625;0.1826171875;-0.5521240234375;-0.11297607421875;2.1429019354904106;0.1538582229564177;7.617964369232006;0.7060546875;-0.13818359375;-0.30859375;-27.1875;-15.25;-0.75;
1441975267774340;-0.806884765625;0.18316650390625;-0.55029296875;-0.1121826171875;2.170142500275891;0.15931763825486353;7.612953435886589;0.74560546875;-0.0830078125;-0.3291015625;-10.1875;-13.0625;2.1875;
1441975267797341;-0.80828857421875;0.18328857421875;-0.54833984375;-0.1119384765625;2.197527760050771;0.15356160400150792;7.618719664255574;0.80908203125;-4.8828125E-4;-0.37646484375;1.375;-10.1875;3.875;
1441975267806341;-0.8095703125;0.1839599609375;-0.5460205078125;-0.1129150390625;2.2255512550325847;0.13668940689149991;7.6280324927250795;0.85986328125;0.06982421875;-0.42138671875;2.0625;-8.875;4.4375;
1441975267827343;-0.810302734375;0.18572998046875;-0.54376220703125;-0.11517333984375;2.2484943327285047;0.11490164398237362;7.632217585102474;0.92529296875;0.10791015625;-0.47265625;-4.8125;-8.125;5.3125;
1441975267851344;-0.81036376953125;0.18829345703125;-0.54217529296875;-0.11822509765625;2.260582617670105;0.09365785930855486;7.629447411741699;0.98291015625;0.07763671875;-0.5048828125;-15.375;-5.1875;5.125;
1441975267864345;-0.8099365234375;0.190673828125;-0.54144287109375;-0.12078857421875;2.262607811201653;0.08054234404213369;7.621583630524492;0.98046875;0.0244140625;-0.49755859375;-22.75;-0.1875;3.4375;
1441975267887346;-0.809326171875;0.1922607421875;-0.5413818359375;-0.12237548828125;2.2582852373277222;0.07527384544311555;7.613452098376464;0.9443359375;-0.04443359375;-0.4921875;-21.1875;5.625;1.25;
1441975267908347;-0.80889892578125;0.19293212890625;-0.541748046875;-0.12261962890625;2.2528112201846637;0.07976751169457195;7.605217928970236;0.8916015625;-0.0830078125;-0.46435546875;-14.75;8.3125;-1.875;
1441975267924348;-0.8087158203125;0.1923828125;-0.54241943359375;-0.1217041015625;2.246763586085472;0.08888667933456416;7.602449374917135;0.85693359375;-0.10400390625;-0.4599609375;-5.5625;9.3125;-3.3125;
1441975267948350;-0.808837890625;0.1903076171875;-0.5433349609375;-0.119873046875;2.2399623894130563;0.09689067338775519;7.611129680538744;0.84521484375;-0.1103515625;-0.43603515625;3.875;8.9375;-5.25;
1441975267976351;-0.8094482421875;0.18682861328125;-0.544189453125;-0.11749267578125;2.2356562467978027;0.09891766553808748;7.634039905445473;0.8525390625;-0.09033203125;-0.41796875;13.9375;7.5625;-8.5625;
1441975267984352;-0.81060791015625;0.18280029296875;-0.54437255859375;-0.11529541015625;2.239608650943405;0.09101418307180774;7.668243964188116;0.8720703125;-0.0595703125;-0.39990234375;22.25;4.5;-11.75;
1441975268007353;-0.81207275390625;0.178955078125;-0.543701171875;-0.1141357421875;2.2514197879351037;0.0690015337601965;7.711151393499247;0.89013671875;-0.02685546875;-0.39404296875;23.0625;-0.625;-14.1875;
1441975268028354;-0.8138427734375;0.17572021484375;-0.5421142578125;-0.1141357421875;2.2723274745508792;0.03517762662957734;7.758200260214579;0.90185546875;-0.015625;-0.38232421875;17.625;-6.0;-16.375;
1441975268046355;-0.8157958984375;0.1729736328125;-0.53973388671875;-0.1153564453125;2.300437666069161;17.989040260485876;7.810137485956169;0.91650390625;-0.02880859375;-0.3837890625;8.625;-10.6875;-19.5;
1441975268067356;-0.81817626953125;0.17022705078125;-0.5367431640625;-0.11669921875;2.337345644496858;17.9406104422676;7.8637224149563405;0.9130859375;-0.05224609375;-0.3740234375;0.625;-15.125;-23.5625;
1441975268088358;-0.82098388671875;0.167236328125;-0.53314208984375;-0.11798095703125;2.3832139224271525;17.890806268911355;7.919768278556427;0.88916015625;-0.08203125;-0.36962890625;-2.0;-19.0625;-27.1875;
1441975268104358;-0.82415771484375;0.16363525390625;-0.529052734375;-0.119140625;2.436407315139782;17.838557930604903;7.981135821014702;0.86376953125;-0.10009765625;-0.37890625;-1.5;-22.5;-30.5625;
1441975268134360;-0.8277587890625;0.15899658203125;-0.5245361328125;-0.12030029296875;2.4965023084239855;17.7801530809694;8.052894033892985;0.83349609375;-0.10986328125;-0.37890625;0.125;-25.1875;-34.75;
1441975268156361;-0.83154296875;0.15380859375;-0.51983642578125;-0.12127685546875;2.5606103899801154;17.722616092923356;8.126796824721358;0.7978515625;-0.0810546875;-0.3759765625;3.5625;-27.5625;-38.6875;
1441975268164362;-0.835205078125;0.1480712890625;-0.51544189453125;-0.1220703125;2.6222738068609424;17.666912346972797;8.202044613949163;0.78466796875;-0.0703125;-0.37890625;6.1875;-28.9375;-41.1875;
1441975268187363;-0.83843994140625;0.14208984375;-0.51171875;-0.12255859375;2.6762985769489696;17.616547073638326;8.274442535191907;0.82373046875;-0.0302734375;-0.38818359375;9.5;-28.25;-40.6875;
1441975268208364;-0.841064453125;0.135986328125;-0.50909423828125;-0.12249755859375;2.717434879874493;17.57444113153549;8.341762226317693;0.88525390625;0.01513671875;-0.40966796875;13.3125;-24.9375;-38.4375;
1441975268234366;-0.84283447265625;0.1300048828125;-0.50799560546875;-0.12158203125;2.739884548140582;17.54453641959214;8.400439619177536;0.95947265625;0.06396484375;-0.4267578125;17.5625;-19.9375;-33.8125;
1441975268247367;-0.8436279296875;0.124267578125;-0.50836181640625;-0.120361328125;2.742815435578517;17.52057029256494;8.453816897818442;1.072265625;0.10986328125;-0.46533203125;23.25;-12.25;-26.6875;
1441975268268368;-0.84375;0.1185302734375;-0.50982666015625;-0.119384765625;2.7313390467725602;17.494223264600066;8.508884919915866;1.1357421875;0.140625;-0.490234375;25.5;-3.3125;-21.9375;
1441975268285369;-0.84307861328125;0.11297607421875;-0.5123291015625;-0.11865234375;2.705327742489091;17.465954097295835;8.564274533804033;1.05517578125;0.146484375;-0.45947265625;24.4375;5.1875;-20.75;
1441975268307370;-0.84173583984375;0.10760498046875;-0.51593017578125;-0.11749267578125;2.665013505523129;17.442391647751908;8.616222075244186;0.94970703125;0.12255859375;-0.41064453125;22.4375;13.25;-20.5625;
1441975268328371;-0.83978271484375;0.10205078125;-0.520751953125;-0.11517333984375;2.6096161629828187;17.42866376997902;8.664203322454393;0.88037109375;0.0791015625;-0.36669921875;23.1875;20.125;-19.625;
1441975268344372;-0.83721923828125;0.09613037109375;-0.52685546875;-0.11114501953125;2.5383441050218534;17.429507582150553;8.706474768520236;0.83544921875;0.0693359375;-0.35791015625;29.0;28.4375;-16.25;
1441975268373374;-0.8341064453125;0.089599609375;-0.53411865234375;-0.10528564453125;2.4526005902048595;17.445015381551745;8.744336180545451;0.83740234375;0.0908203125;-0.3662109375;39.25;37.0;-10.1875;
1441975268388375;-0.83056640625;0.082275390625;-0.54205322265625;-0.09820556640625;2.3578527437362045;17.467449362130125;8.783485524734692;0.87353515625;0.13134765625;-0.3759765625;51.75;44.125;-3.75;
1441975268404376;-0.8267822265625;0.074462890625;-0.55023193359375;-0.0906982421875;2.259203473722878;17.49003710731607;8.826016021377097;0.923828125;0.203125;-0.37646484375;62.0;48.125;1.4375;
1441975268428377;-0.8226318359375;0.0670166015625;-0.55841064453125;-0.08349609375;2.1578247618759936;17.510562918602204;8.867454759167005;0.9658203125;0.2578125;-0.3642578125;66.75;49.1875;4.5625;
1441975268467379;-0.818115234375;0.06097412109375;-0.566650390625;-0.0770263671875;2.0526302931183706;17.5328196489145;8.898071395686685;1.01025390625;0.28515625;-0.34423828125;64.8125;49.25;7.9375;
1441975268480380;-0.8134765625;0.0567626953125;-0.57440185546875;-0.07183837890625;1.9503739690913415;17.554893625376568;8.915714259233706;1.07275390625;0.29833984375;-0.322265625;56.8125;48.5;12.875;
1441975268502381;-0.80908203125;0.0545654296875;-0.581298828125;-0.06793212890625;1.8568776000624785;17.580333773452534;8.916169852813779;1.12744140625;0.2958984375;-0.32080078125;44.8125;46.4375;17.8125;
1441975268509382;-0.8050537109375;0.0537109375;-0.58721923828125;-0.0650634765625;1.7745088762492587;17.607031175601094;8.90536074869417;1.13623046875;0.23828125;-0.28759765625;30.0625;40.375;19.125;
1441975268524382;-0.80169677734375;0.05340576171875;-0.59210205078125;-0.0631103515625;1.7063149903295027;17.62852051937325;8.893620319497382;1.08837890625;0.154296875;-0.2470703125;19.25;33.4375;16.25;
1441975268548384;-0.79888916015625;0.0535888671875;-0.59588623046875;-0.06268310546875;1.652183076819721;17.63348225652084;8.889987577268984;1.02294921875;0.0751953125;-0.2255859375;10.9375;27.625;10.4375;
1441975268569385;-0.79681396484375;0.0540771484375;-0.5985107421875;-0.06378173828125;1.6139780163765498;17.618507244373298;8.89867858061724;0.96337890625;0.029296875;-0.23388671875;1.5625;23.5;3.75;
1441975268586386;-0.79559326171875;0.05511474609375;-0.599853515625;-0.06536865234375;1.593270212030345;17.603328855990018;8.90320102275926;0.931640625;0.02197265625;-0.26123046875;-6.8125;18.75;-0.5625;
1441975268606387;-0.7952880859375;0.0560302734375;-0.5999755859375;-0.067138671875;1.5901635406749017;17.585000883177898;8.910519938797178;0.92919921875;-0.00244140625;-0.28857421875;-11.6875;11.875;-2.5;
1441975268630389;-0.7955322265625;0.05596923828125;-0.5994873046875;-0.0684814453125;1.596854491124598;17.562512669959805;8.927697148704578;0.92822265625;-0.0048828125;-0.30615234375;-12.25;5.0;-4.5625;
1441975268659390;-0.79638671875;0.05474853515625;-0.598388671875;-0.06927490234375;1.6139119515214075;17.53612832618733;8.955733992340841;0.9287109375;0.0166015625;-0.3095703125;-6.625;0.5;-7.125;
1441975268666391;-0.7978515625;0.0531005859375;-0.596435546875;-0.07012939453125;1.6434608923594185;17.50582995883683;8.989090479594573;0.93408203125;0.0498046875;-0.330078125;0.25;-3.1875;-8.4375;
1441975268689392;-0.79974365234375;0.0518798828125;-0.59393310546875;-0.07122802734375;1.6809328274501116;17.479071030497437;9.016127313471102;0.9287109375;0.09814453125;-0.34765625;2.75;-7.75;-8.0625;
1441975268705393;-0.8017578125;0.0516357421875;-0.591064453125;-0.072509765625;1.721964480775527;17.4624275992407;9.028227706893796;0.912109375;0.1298828125;-0.353515625;0.3125;-11.4375;-5.625;
1441975268726394;-0.80377197265625;0.0521240234375;-0.588134765625;-0.073974609375;1.763046252466787;17.45187087904861;9.030475866639229;0.91748046875;0.1201171875;-0.36181640625;-4.125;-14.1875;-2.8125;
1441975268749395;-0.80560302734375;0.0531005859375;-0.58538818359375;-0.07501220703125;1.8004678383863357;17.45277555120473;9.021004589844651;0.92138671875;0.12158203125;-0.3642578125;-7.25;-14.75;0.0;
1441975268765396;-0.8072509765625;0.0545654296875;-0.5828857421875;-0.07550048828125;1.8336289286808198;17.466202833726143;8.999274504339304;0.92822265625;0.11865234375;-0.373046875;-7.25;-13.8125;3.5;
1441975268786397;-0.80877685546875;0.0565185546875;-0.58056640625;-0.07550048828125;1.8636781924492116;17.490856924386073;8.966333357002854;0.935546875;0.125;-0.38037109375;-6.0625;-12.5;7.875;
1441975268808399;-0.80999755859375;0.05908203125;-0.57867431640625;-0.07513427734375;1.887315228857869;17.52549456356552;8.922451613680089;0.9365234375;0.13134765625;-0.400390625;-5.4375;-10.6875;12.75;
1441975268824400;-0.81097412109375;0.06201171875;-0.57708740234375;-0.0743408203125;1.906485758456981;17.568610229691046;8.870359839822163;0.93896484375;0.125;-0.39990234375;-5.5;-8.6875;16.8125;
1441975268846401;-0.81182861328125;0.06494140625;-0.5758056640625;-0.07281494140625;1.9223948365862196;17.620997412802666;8.812060657495895;0.93408203125;0.111328125;-0.3828125;-4.9375;-8.0625;19.3125;
1441975268868402;-0.8123779296875;0.06756591796875;-0.574951171875;-0.07073974609375;1.9330673466234747;17.677050784898867;8.753636982557278;0.931640625;0.08642578125;-0.3662109375;-1.875;-7.4375;20.5625;
1441975268891403;-0.812744140625;0.0699462890625;-0.574462890625;-0.06805419921875;1.939989546026273;17.738690633400424;8.693195453186362;0.94287109375;0.08056640625;-0.3447265625;1.9375;-6.875;21.5;
1441975268906404;-0.81280517578125;0.07208251953125;-0.574462890625;-0.06512451171875;1.9412519977129565;17.801187047144865;8.633969012377829;0.97705078125;0.09228515625;-0.34423828125;6.0625;-5.125;23.625;
1441975268928406;-0.8128662109375;0.0740966796875;-0.5743408203125;-0.0626220703125;1.944255012401178;17.85627298089681;8.580855664087553;1.0263671875;0.1064453125;-0.3515625;8.25;-2.9375;24.9375;
1441975268959407;-0.8131103515625;0.07598876953125;-0.57403564453125;-0.06060791015625;1.9504855915281827;17.902854105536626;8.534749294144623;1.013671875;0.09619140625;-0.3466796875;7.0;-3.25;22.875;
1441975268966408;-0.81341552734375;0.07763671875;-0.573486328125;-0.0592041015625;1.9593086568024325;17.937909691734863;8.4985964539625;0.9765625;0.06103515625;-0.3271484375;4.375;-4.875;18.3125;
1441975268988409;-0.81390380859375;0.07891845703125;-0.57275390625;-0.05810546875;1.9708782232443207;17.96447005549187;8.471188244734607;0.93994140625;0.02392578125;-0.31640625;1.25;-6.1875;13.0;
1441975269011410;-0.81463623046875;0.0797119140625;-0.57171630859375;-0.05670166015625;1.9870364330917873;17.9895724435847;8.448460622495626;0.89404296875;-0.00341796875;-0.30810546875;0.625;-6.9375;8.75;
1441975269034412;-0.815673828125;0.0797119140625;-0.5704345703125;-0.055419921875;2.006961062168686;0.004438136186210522;8.438744387483903;0.87060546875;-0.01904296875;-0.3076171875;3.1875;-8.375;6.125;
1441975269049412;-0.8170166015625;0.0792236328125;-0.568603515625;-0.05462646484375;2.0332612413797393;0.006860794054645151;8.441377303132773;0.8701171875;0.00341796875;-0.30419921875;5.75;-10.9375;3.6875;
1441975269083414;-0.8187255859375;0.07855224609375;-0.56622314453125;-0.05474853515625;2.066146286417073;17.99438326296493;8.455840601413696;0.87939453125;0.025390625;-0.29736328125;5.75;-15.125;0.875;
1441975269086415;-0.82080078125;0.07830810546875;-0.5631103515625;-0.055908203125;2.1076957148426247;17.97142862990772;8.474630239167913;0.89404296875;0.0380859375;-0.2841796875;1.875;-20.125;-2.5;
1441975269108416;-0.8231201171875;0.07867431640625;-0.55950927734375;-0.0582275390625;2.154923893961712;17.939024040835232;8.49550163786788;0.89990234375;0.03515625;-0.28662109375;-4.8125;-24.5625;-4.8125;
1441975269139418;-0.8255615234375;0.07958984375;-0.5552978515625;-0.06182861328125;2.208199023269404;17.89562497551507;8.519628343424273;0.91015625;0.02294921875;-0.29638671875;-12.625;-27.6875;-6.875;
1441975269146418;-0.82818603515625;0.08123779296875;-0.5506591796875;-0.0660400390625;2.266793147033155;17.85188393076087;8.53843740076497;0.91357421875;0.02294921875;-0.306640625;-20.4375;-30.4375;-9.0;
1441975269170419;-0.8309326171875;0.0833740234375;-0.54559326171875;-0.07080078125;2.330232942649995;17.80662015094942;8.55431425985239;0.90771484375;0.01025390625;-0.32958984375;-26.5625;-32.375;-9.1875;
1441975269199421;-0.8336181640625;0.0855712890625;-0.54052734375;-0.07586669921875;2.3933351108252396;17.759795253687248;8.570151316466788;0.92236328125;-0.0166015625;-0.35693359375;-32.0625;-33.625;-10.8125;
1441975269206421;-0.836181640625;0.08721923828125;-0.5355224609375;-0.0806884765625;2.4553918503774668;17.71328013268496;8.588844800002482;0.92138671875;-0.04052734375;-0.365234375;-34.0625;-34.0;-13.6875;
1441975269228423;-0.838623046875;0.0885009765625;-0.53082275390625;-0.0848388671875;2.5142454005930626;17.673385539609857;8.605220071144226;0.9189453125;-0.048828125;-0.3701171875;-31.9375;-33.375;-16.25;
1441975269251424;-0.8409423828125;0.08953857421875;-0.52630615234375;-0.0887451171875;2.5708741558936397;17.63576342422072;8.621314470686187;0.9267578125;-0.05517578125;-0.3916015625;-28.0;-31.0;-16.5;
1441975269266425;-0.8431396484375;0.09075927734375;-0.52197265625;-0.09222412109375;2.6251893809028255;17.60520498432648;8.631337427753955;0.9345703125;-0.03173828125;-0.41259765625;-25.6875;-29.625;-16.0;
1441975269289426;-0.8450927734375;0.09197998046875;-0.51812744140625;-0.09490966796875;2.673504172496253;17.584018558890378;8.635355572508042;0.92724609375;-0.02734375;-0.4267578125;-24.1875;-28.0;-13.75;
1441975269311427;-0.8466796875;0.0926513671875;-0.5150146484375;-0.09674072265625;2.712838182251872;17.568768560426992;8.639409390665296;0.912109375;-0.060546875;-0.43115234375;-21.4375;-25.1875;-13.125;
1441975269326428;-0.8480224609375;0.09283447265625;-0.51263427734375;-0.0975341796875;2.7439211098768292;17.56163316337528;8.64191498859409;0.89404296875;-0.0771484375;-0.42236328125;-16.375;-21.25;-13.75;
1441975269351430;-0.84906005859375;0.0928955078125;-0.51092529296875;-0.09747314453125;2.766802885255811;17.562799132380523;8.64036088274849;0.8916015625;-0.0712890625;-0.43505859375;-9.125;-16.625;-12.5625;
1441975269379431;-0.849609375;0.0936279296875;-0.5098876953125;-0.09735107421875;2.7799773671126546;17.56878230153982;8.631572503344143;0.91064453125;-0.044921875;-0.4609375;-4.125;-11.8125;-8.25;
1441975269386432;-0.84967041015625;0.09527587890625;-0.50946044921875;-0.09747314453125;2.783937492555054;17.577910951537227;8.61491524618139;0.93359375;-0.02099609375;-0.49169921875;-4.9375;-7.1875;-2.75;
1441975269408433;-0.84930419921875;0.0975341796875;-0.50958251953125;-0.097900390625;2.779774139140724;17.587704936456127;8.593881266745745;0.95458984375;-0.0263671875;-0.51123046875;-9.0625;-2.375;1.0;
1441975269431434;-0.8485107421875;0.10009765625;-0.5103759765625;-0.09796142578125;2.766612109824189;17.603472349821946;8.567275136760804;0.9482421875;-0.04833984375;-0.51611328125;-12.625;1.9375;2.75;
1441975269446435;-0.84735107421875;0.10296630859375;-0.51177978515625;-0.09759521484375;2.745557220479568;17.626132944217186;8.534434179263872;0.9287109375;-0.064453125;-0.50146484375;-12.25;6.125;4.6875;
1441975269468436;-0.84588623046875;0.10589599609375;-0.51385498046875;-0.0963134765625;2.716817623304568;17.65972750896;8.494416090798996;0.89892578125;-0.0693359375;-0.50537109375;-10.9375;10.75;8.3125;
1441975269492438;-0.84423828125;0.1085205078125;-0.51641845703125;-0.0941162109375;2.6832079974896357;17.702269174256397;8.450675209043565;0.8701171875;-0.08056640625;-0.48974609375;-6.25;14.875;11.6875;
1441975269507439;-0.842529296875;0.11083984375;-0.51922607421875;-0.09124755859375;2.6479009313981643;17.751334721461077;8.404544453343977;0.8408203125;-0.0634765625;-0.48828125;-0.125;18.625;14.75;
1441975269528440;-0.8409423828125;0.1134033203125;-0.521728515625;-0.08856201171875;2.6169344354322077;17.80096042028529;8.355979950689727;0.828125;-0.02294921875;-0.498046875;5.625;21.125;18.6875;
1441975269551441;-0.83917236328125;0.1168212890625;-0.524169921875;-0.08642578125;2.586063304247046;17.85161836640109;8.300460976316037;0.8310546875;0.0146484375;-0.5205078125;5.375;20.9375;21.75;
1441975269567442;-0.8369140625;0.12127685546875;-0.52703857421875;-0.0849609375;2.5488704884393134;17.904298417644835;8.235868520630138;0.85400390625;0.0224609375;-0.515625;0.75;20.0625;25.3125;
1441975269597444;-0.83416748046875;0.12603759765625;-0.5303955078125;-0.0838623046875;2.504836605410065;17.957976245495566;8.167542333238348;0.88671875;0.0224609375;-0.4970703125;-5.5625;22.1875;29.1875;
1441975269611445;-0.83123779296875;0.131103515625;-0.533935546875;-0.08282470703125;2.4592742454774132;0.01588362766322096;8.093510989896604;0.89990234375;0.0126953125;-0.4755859375;-7.75;24.625;30.25;
1441975269627446;-0.82806396484375;0.13726806640625;-0.537353515625;-0.08245849609375;2.4148192000795063;0.07676049018127006;8.009058270125774;0.88671875;-0.00146484375;-0.46533203125;-9.4375;26.6875;31.375;
1441975269648447;-0.8250732421875;0.14385986328125;-0.540283203125;-0.0823974609375;2.377600104977825;0.13847200009008376;7.9206129814479285;0.8876953125;-0.01171875;-0.4482421875;-15.875;25.8125;34.1875;
1441975269671448;-0.822265625;0.15032958984375;-0.54266357421875;-0.0826416015625;2.34735907984632;0.19613110489304147;7.835257408310778;0.8974609375;-0.0341796875;-0.453125;-19.6875;23.6875;34.5;
1441975269687449;-0.81982421875;0.15631103515625;-0.544677734375;-0.0826416015625;2.3238394268000198;0.2528094980743084;7.753894549130733;0.8896484375;-0.048828125;-0.447265625;-21.1875;21.125;31.625;
1441975269708450;-0.817626953125;0.161376953125;-0.54656982421875;-0.08245849609375;2.302893280329714;0.3049482790501461;7.6816529931850805;0.8779296875;-0.078125;-0.439453125;-19.1875;18.3125;28.1875;
1441975269731451;-0.815673828125;0.16534423828125;-0.54833984375;-0.0819091796875;2.2842579691829505;0.35293905938481346;7.619622381048284;0.8642578125;-0.08740234375;-0.42333984375;-15.625;16.875;24.1875;
1441975269747452;-0.81402587890625;0.168212890625;-0.54998779296875;-0.081298828125;2.2671172423736894;0.39269594522221885;7.570683895834213;0.85107421875;-0.08251953125;-0.41845703125;-9.9375;15.875;20.5;
1441975269768454;-0.81268310546875;0.17010498046875;-0.55145263671875;-0.080810546875;2.2513900579555663;0.42246209078839936;7.535304207230331;0.83837890625;-0.06494140625;-0.4140625;-5.25;15.375;16.5;
1441975269791455;-0.81158447265625;0.17132568359375;-0.55267333984375;-0.08099365234375;2.236067285086954;0.43775152445733484;7.514404257080412;0.83544921875;-0.0458984375;-0.4150390625;-2.8125;14.3125;12.625;
1441975269807456;-0.81072998046875;0.1722412109375;-0.5535888671875;-0.08184814453125;2.2223474282951825;0.4409156117687751;7.504100163152963;0.8447265625;-0.01904296875;-0.40283203125;-2.75;12.5625;8.9375;
1441975269829457;-0.8099365234375;0.1728515625;-0.5543212890625;-0.08331298828125;2.208148644603385;0.4335079081675033;7.503040866486161;0.85595703125;-0.01025390625;-0.39697265625;-4.875;10.875;5.625;
1441975269851458;-0.80908203125;0.17315673828125;-0.55511474609375;-0.0853271484375;2.1907295407037823;0.4173947973512387;7.50970103884998;0.87109375;-0.00341796875;-0.39306640625;-7.125;9.875;2.5625;
1441975269867459;-0.80828857421875;0.1732177734375;-0.55584716796875;-0.08795166015625;2.1719665501432277;0.3912429478511434;7.524921182543601;0.9150390625;0.01025390625;-0.3857421875;-8.125;9.625;0.25;
1441975269896461;-0.8076171875;0.1737060546875;-0.55615234375;-0.09136962890625;2.156654633027782;0.3565215363769433;7.5435361906829765;0.98828125;0.0517578125;-0.4013671875;-9.3125;9.125;0.0625;
1441975269911462;-0.80712890625;0.17462158203125;-0.55584716796875;-0.09588623046875;2.1461150637801447;0.30860317090463013;7.568843433882137;1.0478515625;0.06591796875;-0.42333984375;-14.375;7.625;-0.1875;
1441975269927463;-0.8070068359375;0.17572021484375;-0.5548095703125;-0.10076904296875;2.1442301096652123;0.253740563979818;7.598584373859169;1.02294921875;0.048828125;-0.38916015625;-22.0625;3.25;-3.6875;
1441975269949464;-0.80706787109375;0.17657470703125;-0.55352783203125;-0.10540771484375;2.146276474080367;0.1985164891114443;7.630608938383265;0.9443359375;-9.765625E-4;-0.33935546875;-26.375;-2.0625;-8.6875;
1441975269971465;-0.80731201171875;0.1766357421875;-0.55242919921875;-0.1092529296875;2.1487270460344394;0.146737764407116;7.665900060502878;0.892578125;-0.04833984375;-0.3037109375;-26.1875;-5.0;-13.0;
1441975269987466;-0.80767822265625;0.17529296875;-0.5517578125;-0.1119384765625;2.1488104724593176;0.09869735096038444;7.708262913265263;0.89453125;-0.06103515625;-0.31640625;-20.3125;-4.4375;-15.8125;
1441975270009467;-0.808349609375;0.17230224609375;-0.55145263671875;-0.11346435546875;2.1479538969010963;0.051597765284316185;7.761584425969833;0.93115234375;-0.04833984375;-0.34716796875;-9.3125;-1.9375;-17.9375;
1441975270031469;-0.80926513671875;0.16815185546875;-0.5511474609375;-0.11474609375;2.1482244407361772;17.997128679277345;7.828146961255272;0.982421875;-0.01416015625;-0.39453125;2.0625;0.375;-19.875;
1441975270047470;-0.81024169921875;0.16351318359375;-0.55072021484375;-0.11651611328125;2.1495458340069145;17.93188526973301;7.905432863669943;1.01513671875;0.0341796875;-0.4306640625;8.4375;1.75;-22.375;
1441975270068471;-0.81121826171875;0.1591796875;-0.54998779296875;-0.118896484375;2.1543595426846824;17.861019257561463;7.984391241377625;1.03076171875;0.06396484375;-0.443359375;8.125;2.0;-24.75;
1441975270091472;-0.81201171875;0.1552734375;-0.5494384765625;-0.12115478515625;2.1581765811972318;17.796310900603675;8.055960214071698;1.0146484375;0.0673828125;-0.4365234375;3.6875;1.0;-25.9375;
1441975270107473;-0.81292724609375;0.15106201171875;-0.5489501953125;-0.1226806640625;2.1640605998603792;17.738566158420603;8.12491097305448;0.9736328125;0.005859375;-0.38037109375;1.25;-0.5625;-27.5;
1441975270136475;-0.81414794921875;0.1461181640625;-0.54833984375;-0.1234130859375;2.174571319628221;17.684618009711;8.196387996592183;0.9365234375;-0.02490234375;-0.34130859375;4.875;-2.875;-29.6875;
1441975270151476;-0.81561279296875;0.14080810546875;-0.54742431640625;-0.12384033203125;2.1906883340839363;17.631614327235265;8.26959737624761;0.90185546875;-0.03271484375;-0.31494140625;10.5625;-5.25;-31.3125;
1441975270167476;-0.81744384765625;0.13519287109375;-0.54595947265625;-0.12432861328125;2.215307179627935;17.575720651916914;8.34655676238037;0.8798828125;-0.01025390625;-0.302734375;13.875;-8.0625;-31.8125;
1441975270188478;-0.819580078125;0.12982177734375;-0.54388427734375;-0.1251220703125;2.2486139232794;17.519280309077704;8.42161930050628;0.86328125;0.0244140625;-0.2958984375;14.875;-11.5;-31.6875;
1441975270211479;-0.82183837890625;0.1246337890625;-0.54150390625;-0.12615966796875;2.2865773165348724;17.463241540122546;8.494427700415294;0.8564453125;0.0537109375;-0.30322265625;13.0625;-15.0;-31.4375;
1441975270227480;-0.823974609375;0.11981201171875;-0.53912353515625;-0.126953125;2.324672526640482;17.415132435729006;8.558740799913588;0.8818359375;0.0732421875;-0.31005859375;11.5;-17.3125;-30.625;
1441975270248481;-0.82598876953125;0.11505126953125;-0.53704833984375;-0.127197265625;2.3598417140168326;17.37575666812768;8.616465399357322;0.9267578125;0.0751953125;-0.31640625;11.1875;-18.625;-29.0;
1441975270272482;-0.82781982421875;0.110107421875;-0.535400390625;-0.12640380859375;2.3903556864802735;17.34838526848498;8.667361791463925;0.953125;0.0791015625;-0.3212890625;13.9375;-17.9375;-26.5625;
1441975270287483;-0.82958984375;0.10467529296875;-0.5341796875;-0.12481689453125;2.416977673797926;17.32736946257858;8.71741883681677;0.95947265625;0.08056640625;-0.3291015625;19.3125;-15.875;-24.5;
1441975270308485;-0.83111572265625;0.09906005859375;-0.5333251953125;-0.1226806640625;2.438836123466321;17.311707711309708;8.76522563142047;0.93212890625;0.0908203125;-0.32568359375;24.625;-13.625;-23.3125;
1441975270331486;-0.832275390625;0.09344482421875;-0.53314208984375;-0.1202392578125;2.452069191393479;17.299349300796734;8.811201954750143;0.9111328125;0.11083984375;-0.32421875;29.0;-10.9375;-21.0625;
1441975270347487;-0.83294677734375;0.0880126953125;-0.53363037109375;-0.1175537109375;2.4556969685781738;17.290445536491227;8.85410050518117;0.9228515625;0.12841796875;-0.31591796875;30.8125;-7.8125;-18.25;
1441975270369488;-0.8331298828125;0.08270263671875;-0.5347900390625;-0.11444091796875;2.4496055106032517;17.286329411519986;8.893575052240756;0.93798828125;0.1376953125;-0.31103515625;31.9375;-4.0;-15.5;
1441975270392489;-0.8328857421875;0.07769775390625;-0.53668212890625;-0.11102294921875;2.433373932305974;17.286753325048792;8.92867571817689;0.93896484375;0.140625;-0.31201171875;33.4375;0.25;-13.0;
1441975270407490;-0.8321533203125;0.07293701171875;-0.53924560546875;-0.10760498046875;2.407427303690941;17.28751198744158;8.962513070104583;0.98681640625;0.1455078125;-0.31640625;34.3125;3.9375;-9.875;
1441975270430491;-0.8309326171875;0.06884765625;-0.542236328125;-0.10418701171875;2.3735836244160784;17.29195395950161;8.989840497137807;1.03662109375;0.16650390625;-0.31298828125;33.9375;7.125;-6.75;
1441975270451493;-0.829345703125;0.06573486328125;-0.5455322265625;-0.1016845703125;2.3340852566452526;17.29191151898925;9.013813601476215;1.08544921875;0.1796875;-0.33349609375;32.1875;10.8125;-2.625;
1441975270467494;-0.82769775390625;0.0640869140625;-0.54852294921875;-0.09991455078125;2.2959347572621667;17.29455987117633;9.025862603491497;1.11328125;0.2080078125;-0.33154296875;25.0;12.5625;1.3125;
1441975270490495;-0.826171875;0.06341552734375;-0.55120849609375;-0.09857177734375;2.260613451267478;17.300316623244434;9.028935391967167;1.08740234375;0.17822265625;-0.32177734375;16.625;11.4375;4.3125;
1441975270512496;-0.82470703125;0.063232421875;-0.55364990234375;-0.09716796875;2.227357771912177;17.31130864925676;9.024921775255354;1.04248046875;0.12353515625;-0.2763671875;9.8125;8.125;4.5625;
1441975270533497;-0.82354736328125;0.06317138671875;-0.5555419921875;-0.0958251953125;2.2011437663158198;17.32383317497501;9.018501730793924;0.9833984375;0.06689453125;-0.24609375;7.5625;6.0;3.5;
1441975270564499;-0.82275390625;0.06317138671875;-0.55694580078125;-0.0946044921875;2.1819123318302225;17.33660410528529;9.011022555619668;0.90087890625;0.0224609375;-0.2236328125;5.5625;3.8125;1.375;
1441975270571500;-0.822265625;0.06341552734375;-0.557861328125;-0.0933837890625;2.16899559385139;17.352591818172343;8.999237261788712;0.86279296875;0.02978515625;-0.232421875;5.25;1.875;1.6875;
1441975270595501;-0.82208251953125;0.0635986328125;-0.55828857421875;-0.09246826171875;2.16295648535244;17.365192212609564;8.98975208394516;0.8759765625;0.03857421875;-0.2734375;4.4375;0.75;2.9375;
1441975270625503;-0.82208251953125;0.063720703125;-0.5584716796875;-0.091064453125;2.1601617411905543;17.384041921219733;8.976240101661016;0.87744140625;0.06591796875;-0.30224609375;3.5625;-0.25;3.5;
1441975270631503;-0.822265625;0.0640869140625;-0.5584716796875;-0.08935546875;2.1599222603005632;17.409354294392045;8.956515337530885;0.900390625;0.080078125;-0.337890625;6.4375;-0.4375;5.3125;
1441975270655504;-0.82232666015625;0.06475830078125;-0.55859375;-0.08758544921875;2.157581544997901;17.437885463386188;8.932570703509425;0.9296875;0.0927734375;-0.3642578125;7.5625;-1.125;8.25;
1441975270670505;-0.82208251953125;0.0665283203125;-0.55902099609375;-0.08587646484375;2.149759126030171;17.47481821619811;8.895470582643222;0.96240234375;0.1328125;-0.3720703125;7.625;-0.4375;12.9375;
1441975270691506;-0.82135009765625;0.06976318359375;-0.559814453125;-0.08465576171875;2.1349007998443223;17.518078177230144;8.843984580148703;1.01318359375;0.166015625;-0.38671875;4.8125;0.8125;20.125;
1441975270715508;-0.8203125;0.074462890625;-0.560791015625;-0.0841064453125;2.1163052977547196;17.56611379332938;8.778921177388643;1.0771484375;0.18798828125;-0.39501953125;-1.5625;2.6875;27.4375;
1441975270730509;-0.8192138671875;0.08026123046875;-0.56158447265625;-0.0845947265625;2.099462110360658;17.61139607636992;8.707762263322188;1.1162109375;0.158203125;-0.400390625;-10.125;3.5625;30.875;
1441975270759510;-0.81817626953125;0.08697509765625;-0.5618896484375;-0.08599853515625;2.088106633226208;17.6537140337099;8.631881977614382;1.04638671875;0.099609375;-0.3701171875;-19.6875;2.6875;29.5625;
1441975270767511;-0.81719970703125;0.0947265625;-0.56170654296875;-0.088134765625;2.082278378408102;17.69619067817622;8.548398711526529;0.9541015625;0.03271484375;-0.34326171875;-29.125;0.8125;27.0625;
1441975270790512;-0.8162841796875;0.10260009765625;-0.561279296875;-0.0904541015625;2.0799448793849997;17.73746925042984;8.464772995553457;0.89599609375;-0.02197265625;-0.3388671875;-37.0;-0.4375;25.8125;
1441975270811513;-0.815673828125;0.1094970703125;-0.56060791015625;-0.09210205078125;2.082931747573569;17.778397349149987;8.388254927541013;0.88232421875;-0.0595703125;-0.3310546875;-39.0625;-2.125;23.9375;
1441975270827514;-0.81549072265625;0.11480712890625;-0.5596923828125;-0.09271240234375;2.091953562581484;17.817766645366913;8.324096384758812;0.88037109375;-0.06689453125;-0.32421875;-32.8125;-4.375;20.9375;
1441975270857516;-0.8157958984375;0.11865234375;-0.5584716796875;-0.0927734375;2.1073308471152155;17.84983611560839;8.27554765813609;0.88525390625;-0.05322265625;-0.32763671875;-22.625;-7.0;17.4375;
1441975270871517;-0.81634521484375;0.12164306640625;-0.5570068359375;-0.09283447265625;2.1263903386764813;17.873124012652568;8.239252839455167;0.90478515625;-0.02783203125;-0.3310546875;-14.1875;-9.5625;14.0625;
1441975270887518;-0.817138671875;0.12451171875;-0.55511474609375;-0.09326171875;2.1507169846803054;17.88918433428801;8.209064924503547;0.9169921875;0.00244140625;-0.337890625;-10.9375;-11.6875;11.625;
1441975270910519;-0.81787109375;0.127685546875;-0.5531005859375;-0.09454345703125;2.1750927881588855;17.896371885308955;8.182894920110499;0.92578125;0.01318359375;-0.3701171875;-12.1875;-12.0;10.25;
1441975270931520;-0.818603515625;0.1312255859375;-0.55084228515625;-0.0965576171875;2.2011588814210166;17.89667777478955;8.158953564541436;0.92431640625;0.01220703125;-0.38525390625;-17.125;-11.75;9.0625;
1441975270947521;-0.8192138671875;0.13519287109375;-0.54852294921875;-0.09912109375;2.226640797382435;17.8934574897394;8.134416268506474;0.92333984375;-0.00390625;-0.3974609375;-22.3125;-11.5;7.75;
1441975270977523;-0.81976318359375;0.13922119140625;-0.54620361328125;-0.101806640625;2.2515986415497125;17.88905128927548;8.110252964406586;0.92578125;-0.01953125;-0.404296875;-26.8125;-11.75;6.3125;
1441975270998524;-0.8203125;0.14288330078125;-0.5439453125;-0.104248046875;2.2759901070790702;17.88452850568908;8.088709256494266;0.92626953125;-0.0400390625;-0.39892578125;-28.4375;-11.75;5.1875;
1441975271007524;-0.82098388671875;0.14581298828125;-0.54193115234375;-0.105712890625;2.29959128751405;17.88605923672271;8.068312509177488;0.90576171875;-0.06298828125;-0.39306640625;-26.5;-11.6875;2.875;
1441975271030526;-0.82171630859375;0.147705078125;-0.5401611328125;-0.10595703125;2.322161568966639;17.894160658749563;8.050743547571994;0.86376953125;-0.087890625;-0.38232421875;-20.25;-11.125;0.5625;
1441975271051527;-0.82269287109375;0.1485595703125;-0.53857421875;-0.10528564453125;2.345005384283929;17.90485476012635;8.038842191839427;0.83251953125;-0.1015625;-0.37109375;-11.125;-10.6875;-1.0;
1441975271067528;-0.82373046875;0.1485595703125;-0.5372314453125;-0.10418701171875;2.3658193144138724;17.914164809849538;8.033770952366272;0.82373046875;-0.10009765625;-0.39013671875;-3.5625;-9.3125;-2.8125;
1441975271090529;-0.82476806640625;0.148193359375;-0.5360107421875;-0.10308837890625;2.3851501207825736;17.92078393932082;8.032976634246628;0.83251953125;-0.0751953125;-0.40771484375;2.25;-7.9375;-3.6875;
1441975271118531;-0.8255615234375;0.14788818359375;-0.53485107421875;-0.102783203125;2.4012380975098795;17.918953912003914;8.037017220087199;0.86474609375;-0.0400390625;-0.439453125;4.5;-6.0625;-3.375;
1441975271127531;-0.8262939453125;0.14788818359375;-0.5335693359375;-0.1033935546875;2.417005935371229;17.908680680929454;8.044391081494892;0.9033203125;-0.01220703125;-0.4609375;1.125;-4.1875;-3.3125;
1441975271150533;-0.8267822265625;0.14813232421875;-0.5325927734375;-0.104736328125;2.427518094569429;17.892679313508186;8.053558442372935;0.92333984375;-0.01171875;-0.4814453125;-4.3125;-3.4375;-4.9375;
1441975271171534;-0.8270263671875;0.14849853515625;-0.53179931640625;-0.106201171875;2.434746910404399;17.876846284808266;8.061514502537824;0.9287109375;-0.02587890625;-0.48486328125;-9.0625;-1.0;-6.4375;
1441975271187535;-0.82708740234375;0.14837646484375;-0.53155517578125;-0.10699462890625;2.4362189995712518;17.86629315535422;8.069192849060556;0.916015625;-0.05419921875;-0.490234375;-10.625;1.625;-8.125;
1441975271210536;-0.8271484375;0.1473388671875;-0.5318603515625;-0.10662841796875;2.433398773964896;17.863227313370583;8.078256661647224;0.88720703125;-0.07421875;-0.48291015625;-6.5;4.375;-9.375;
1441975271231537;-0.8271484375;0.14520263671875;-0.53265380859375;-0.10540771484375;2.4259050421699264;17.862667602488933;8.093093948718119;0.86328125;-0.08251953125;-0.47412109375;2.0625;7.0;-10.0;
1441975271255539;-0.82720947265625;0.14202880859375;-0.53369140625;-0.10369873046875;2.416359785819324;17.860244186836155;8.116237517565303;0.841796875;-0.0654296875;-0.45458984375;10.625;8.75;-11.375;
1441975271269539;-0.82720947265625;0.13861083984375;-0.534912109375;-0.10211181640625;2.404382423275023;17.854773396570426;8.143008022014321;0.82373046875;-0.03662109375;-0.44384765625;16.8125;10.1875;-12.625;
1441975271291541;-0.82708740234375;0.13531494140625;-0.53619384765625;-0.1009521484375;2.3906652918740936;17.845245099392727;8.17154128515897;0.81787109375;-0.0146484375;-0.44482421875;18.0;11.625;-12.875;
1441975271315542;-0.8267822265625;0.13232421875;-0.53753662109375;-0.1004638671875;2.3747106492529686;17.830144290718135;8.201566309127013;0.8203125;-0.00341796875;-0.44921875;15.5625;12.875;-12.6875;
1441975271329543;-0.82623291015625;0.12969970703125;-0.53900146484375;-0.10040283203125;2.3559287902755397;17.81284585351284;8.230457561522684;0.82763671875;0.00732421875;-0.443359375;11.8125;13.8125;-12.5625;
1441975271351544;-0.82550048828125;0.1273193359375;-0.5406494140625;-0.1005859375;2.3342635913760725;17.794524524359684;8.258371564678596;0.853515625;0.00732421875;-0.43212890625;8.5625;14.0625;-12.0625;
1441975271375546;-0.8245849609375;0.12493896484375;-0.5426025390625;-0.10089111328125;2.3085704644245877;17.774756202372778;8.287309294341899;0.8623046875;-0.00537109375;-0.423828125;6.1875;14.875;-12.4375;
1441975271389546;-0.82354736328125;0.12225341796875;-0.54473876953125;-0.1009521484375;2.2806312280681205;17.755202006763756;8.31830498507641;0.859375;-0.017578125;-0.4052734375;5.75;16.125;-13.4375;
1441975271420548;-0.82232666015625;0.11944580078125;-0.547119140625;-0.10101318359375;2.2493423321676858;17.73432701662065;8.351148463919415;0.87158203125;-0.01171875;-0.40771484375;7.6875;17.75;-13.5625;
1441975271433549;-0.821044921875;0.11639404296875;-0.54962158203125;-0.1014404296875;2.216390251237837;17.70615812971865;8.390815443163373;0.8876953125;-0.005859375;-0.3974609375;8.25;18.8125;-14.0;
1441975271450550;-0.8197021484375;0.1131591796875;-0.55224609375;-0.10205078125;2.182071365269694;17.673165272855126;8.435332275519578;0.89111328125;0.01220703125;-0.3818359375;7.625;19.0;-14.875;
1441975271472551;-0.818115234375;0.10980224609375;-0.55511474609375;-0.10272216796875;2.144237746995311;17.637230624842786;8.483025343414386;0.89501953125;0.029296875;-0.36328125;8.0;19.25;-15.5;
1441975271493552;-0.81640625;0.10650634765625;-0.5582275390625;-0.10308837890625;2.103852265532114;17.604459203168936;8.528611065515193;0.921875;0.05126953125;-0.34912109375;8.6875;20.25;-14.625;
1441975271509553;-0.8145751953125;0.10321044921875;-0.56146240234375;-0.103271484375;2.061950799064403;17.57261556873044;8.573997188658163;0.95849609375;0.06298828125;-0.35009765625;9.9375;21.3125;-13.0;
1441975271533555;-0.8128662109375;0.09979248046875;-0.56451416015625;-0.10333251953125;2.0229905535800765;17.539714962777744;8.621379503774241;0.9892578125;0.056640625;-0.33984375;10.8125;20.9375;-12.9375;
1441975271553556;-0.811279296875;0.0963134765625;-0.56744384765625;-0.10333251953125;1.9863937805468457;17.505584803515482;8.670470800773524;0.9951171875;0.0595703125;-0.31884765625;11.5625;18.875;-13.375;
1441975271569557;-0.8095703125;0.09271240234375;-0.5704345703125;-0.103271484375;1.948891478816266;17.46944123336984;8.72226756128753;0.98779296875;0.052734375;-0.30712890625;11.875;18.0;-14.125;
1441975271592558;-0.80792236328125;0.08892822265625;-0.5733642578125;-0.1031494140625;1.9129190237633398;17.430690275295646;8.777648242502918;0.9833984375;0.048828125;-0.28955078125;12.3125;17.8125;-14.75;
1441975271613559;-0.8065185546875;0.084716796875;-0.5760498046875;-0.10308837890625;1.8817194781806;17.385338568387283;8.841102322337623;0.978515625;0.05322265625;-0.28466796875;13.6875;18.0;-15.5;
1441975271629560;-0.80517578125;0.08013916015625;-0.5784912109375;-0.103271484375;1.8543683064351322;17.331128899948382;8.913794262066414;0.95458984375;0.06787109375;-0.291015625;14.75;17.625;-17.0625;
1441975271652561;-0.80389404296875;0.075439453125;-0.580810546875;-0.1038818359375;1.8299489061558054;17.267768130840967;8.994349693978224;0.95166015625;0.09130859375;-0.28857421875;15.125;17.125;-18.5;
1441975271675563;-0.8026123046875;0.07073974609375;-0.5830078125;-0.104736328125;1.8080578876513687;17.19912168863833;9.079121955403346;0.96142578125;0.12158203125;-0.2939453125;14.125;17.125;-19.0625;
1441975271690564;-0.8013916015625;0.06610107421875;-0.5850830078125;-0.10577392578125;1.7891146769825739;17.127016181984928;9.166319058245291;0.96435546875;0.134765625;-0.29736328125;12.875;17.1875;-19.375;
1441975271712565;-0.8001708984375;0.0614013671875;-0.58709716796875;-0.10675048828125;1.772121369826945;17.053684748957494;9.25520006739007;0.95751953125;0.1474609375;-0.29052734375;11.8125;16.375;-19.4375;
1441975271733566;-0.79913330078125;0.056640625;-0.5887451171875;-0.1077880859375;1.7612700024415833;16.978964442796155;9.34537408625272;0.95556640625;0.1513671875;-0.255859375;12.5;14.25;-19.6875;
1441975271749567;-0.79827880859375;0.05181884765625;-0.5902099609375;-0.1087646484375;1.754704317745554;16.90482761822663;9.435457974595641;0.95703125;0.15380859375;-0.23974609375;12.4375;11.375;-20.6875;
1441975271772568;-0.79754638671875;0.04693603515625;-0.59136962890625;-0.1097412109375;1.7532026487296117;16.8311123981569;9.525280964716524;0.96533203125;0.154296875;-0.2353515625;13.0625;9.5;-21.5;
1441975271793569;-0.79693603515625;0.04205322265625;-0.59234619140625;-0.11077880859375;1.7556341954706551;16.757704154395356;9.614521229342998;0.96484375;0.15771484375;-0.2353515625;12.9375;8.0625;-22.0625;
1441975271809570;-0.7965087890625;0.036865234375;-0.59307861328125;-0.11181640625;1.7636109426888826;16.683355219762063;9.705920825545205;0.96630859375;0.1591796875;-0.23095703125;12.6875;6.875;-23.1875;
1441975271832572;-0.7962646484375;0.0313720703125;-0.5936279296875;-0.11285400390625;1.776681426264434;16.60851356959659;9.799061109190733;0.9599609375;0.16748046875;-0.23828125;13.625;5.875;-24.5625;
1441975271853573;-0.79595947265625;0.026123046875;-0.593994140625;-0.11407470703125;1.7921650094051282;16.53541118747126;9.888622567938263;0.966796875;0.1884765625;-0.24951171875;14.9375;5.375;-25.125;
1441975271869574;-0.79559326171875;0.02099609375;-0.594482421875;-0.11529541015625;1.807197342882322;16.463937633347015;9.976089346265635;0.97119140625;0.1962890625;-0.25634765625;13.1875;5.0;-25.0;
1441975271892575;-0.79510498046875;0.015869140625;-0.59503173828125;-0.11627197265625;1.8214815412282666;16.396055397440293;10.060944234980585;0.96240234375;0.19775390625;-0.24560546875;12.4375;5.25;-24.625;
1441975271913576;-0.7945556640625;0.010498046875;-0.59588623046875;-0.11676025390625;1.8332718251164792;16.33148430218588;10.145580766264118;0.958984375;0.19677734375;-0.24365234375;13.875;6.125;-24.375;
1441975271929577;-0.7938232421875;0.00506591796875;-0.59686279296875;-0.116943359375;1.8432783206486252;16.269433202000727;10.229176619675332;0.96142578125;0.19970703125;-0.24609375;16.4375;8.0625;-23.75;
1441975271960579;-0.7930908203125;-2.44140625E-4;-0.59783935546875;-0.1168212890625;1.8526777635947453;16.21318932432117;10.307720890707326;0.9541015625;0.19873046875;-0.23681640625;17.75;8.875;-23.4375;
1441975271982580;-0.79229736328125;-0.0057373046875;-0.59906005859375;-0.11627197265625;1.8597658637225494;16.159479679685578;10.386295075499957;0.947265625;0.19140625;-0.244140625;18.6875;9.5625;-22.875;
1441975271989581;-0.79132080078125;-0.0113525390625;-0.60040283203125;-0.11529541015625;1.8645366249093784;16.108494128997318;10.464377148340663;0.9453125;0.1923828125;-0.240234375;20.75;10.8125;-22.125;
1441975272012582;-0.79046630859375;-0.01708984375;-0.60174560546875;-0.11358642578125;1.868127829030141;16.066755093920897;10.53675220757047;0.9443359375;0.19873046875;-0.23681640625;23.375;12.25;-20.875;
1441975272033583;-0.7896728515625;-0.02288818359375;-0.60296630859375;-0.1114501953125;1.8719880060971514;16.03128332340957;10.604845975127695;0.9462890625;0.20947265625;-0.24462890625;27.125;12.5625;-18.9375;
1441975272049584;-0.7889404296875;-0.02850341796875;-0.6041259765625;-0.1090087890625;1.874845159908325;16.00206296609039;10.667192330549444;0.9404296875;0.220703125;-0.23828125;29.4375;11.6875;-16.875;
1441975272072585;-0.7882080078125;-0.03369140625;-0.60528564453125;-0.106201171875;1.8742452335136084;15.980692146772816;10.721440686671937;0.927734375;0.22900390625;-0.22509765625;30.5625;10.4375;-14.25;
1441975272093587;-0.78759765625;-0.03839111328125;-0.60638427734375;-0.10321044921875;1.8716480296089495;15.966667421908808;10.767102360116416;0.931640625;0.23779296875;-0.21826171875;30.9375;9.9375;-11.125;
1441975272109588;-0.7869873046875;-0.04229736328125;-0.6072998046875;-0.10040283203125;1.8674883162582174;15.957926266818912;10.803437600393545;0.94775390625;0.25537109375;-0.224609375;30.125;9.375;-7.375;
1441975272132589;-0.78656005859375;-0.0452880859375;-0.60809326171875;-0.097900390625;1.8621015546933646;15.954930911347342;10.829027280835117;0.96630859375;0.27197265625;-0.22314453125;27.0;7.5625;-3.5;
1441975272153590;-0.7862548828125;-0.04718017578125;-0.60870361328125;-0.0958251953125;1.8552678477532585;15.957686455599974;10.842592522971387;0.98583984375;0.2880859375;-0.22509765625;23.0625;5.4375;0.3125;
1441975272169591;-0.7861328125;-0.0478515625;-0.6090087890625;-0.09429931640625;1.8481824480431697;15.967220010553746;10.842098435802638;0.982421875;0.27587890625;-0.2138671875;16.875;2.875;3.0;
1441975272192592;-0.78607177734375;-0.04766845703125;-0.6092529296875;-0.09307861328125;1.8390726546090967;15.980817534784354;10.832781958900112;0.9765625;0.2578125;-0.2197265625;10.3125;0.625;5.4375;
1441975272213593;-0.7861328125;-0.04705810546875;-0.6094970703125;-0.091796875;1.8281684399979203;15.999636134368135;10.816757509105711;0.9716796875;0.248046875;-0.20654296875;6.125;-0.875;7.6875;
1441975272229594;-0.78619384765625;-0.04620361328125;-0.60968017578125;-0.09033203125;1.81570004364866;16.023343114575134;10.79558536507928;0.978515625;0.24072265625;-0.20703125;4.375;-1.8125;9.6875;
1441975272251596;-0.78643798828125;-0.04547119140625;-0.60968017578125;-0.08856201171875;1.8048061903902155;16.05297810268549;10.770236102273165;0.978515625;0.23828125;-0.2041015625;4.9375;-2.6875;11.3125;
1441975272273597;-0.78668212890625;-0.04498291015625;-0.60968017578125;-0.08660888671875;1.7943843891276465;16.0831803693689;10.746069771092603;0.9912109375;0.251953125;-0.21044921875;6.8125;-3.25;12.8125;
1441975272289598;-0.78692626953125;-0.04449462890625;-0.6097412109375;-0.08447265625;1.7827936590820948;16.115537825904447;10.720504252515681;0.98583984375;0.2626953125;-0.2119140625;8.875;-3.3125;13.5625;
1441975272312599;-0.7869873046875;-0.04376220703125;-0.60992431640625;-0.08245849609375;1.7688893297067694;16.146488809271442;10.694834925304622;0.97412109375;0.26171875;-0.21435546875;9.75;-2.5625;14.375;
1441975272335600;-0.7869873046875;-0.0428466796875;-0.61029052734375;-0.08050537109375;1.7528336515505232;16.176863418533138;10.668753407012261;0.96923828125;0.25927734375;-0.20703125;8.3125;-1.8125;15.3125;
1441975272349601;-0.786865234375;-0.0418701171875;-0.6107177734375;-0.0784912109375;1.7352605594777604;16.207713443084984;10.642187845124026;0.966796875;0.255859375;-0.22119140625;6.9375;-0.1875;16.0625;
1441975272371603;-0.78668212890625;-0.0411376953125;-0.611328125;-0.07623291015625;1.7161018696960577;16.23830894671405;10.617887712414767;0.94482421875;0.2392578125;-0.22265625;6.8125;1.3125;16.25;
1441975272395604;-0.78643798828125;-0.040771484375;-0.61199951171875;-0.07373046875;1.69683662666567;16.268442996280147;10.596544808634365;0.92822265625;0.23681640625;-0.20849609375;8.875;2.0;16.125;
1441975272409605;-0.7861328125;-0.04083251953125;-0.6126708984375;-0.0711669921875;1.6789699871694068;16.29542384117145;10.580343940703683;0.91943359375;0.23828125;-0.20166015625;11.375;2.3125;15.6875;
1441975272431606;-0.785888671875;-0.0408935546875;-0.61322021484375;-0.06884765625;1.6635476561605396;16.320848416447003;10.564690230289662;0.9189453125;0.2470703125;-0.18994140625;13.5;1.9375;15.25;
1441975272455607;-0.7857666015625;-0.0408935546875;-0.6136474609375;-0.06671142578125;1.6503797247733463;16.34651894501769;10.547787729943362;0.90966796875;0.24853515625;-0.18359375;12.75;0.8125;14.75;
1441975272477609;-0.78582763671875;-0.0406494140625;-0.61376953125;-0.0648193359375;1.6407684348696143;16.375152165033494;10.525912447933806;0.896484375;0.24658203125;-0.17041015625;11.5625;-0.5;14.5;
1441975272491609;-0.78607177734375;-0.04010009765625;-0.6136474609375;-0.0633544921875;1.6347801928761019;16.404222054556854;10.500597707764205;0.88623046875;0.2431640625;-0.1767578125;9.8125;-2.25;14.5625;
1441975272522611;-0.7864990234375;-0.0391845703125;-0.61328125;-0.0621337890625;1.6314579393622182;16.43682763317817;10.46924508333492;0.884765625;0.24560546875;-0.1806640625;6.8125;-4.1875;15.1875;
1441975272529612;-0.78704833984375;-0.0379638671875;-0.61273193359375;-0.06109619140625;1.6300409197970083;16.4722323835415;10.43309104902798;0.8828125;0.25;-0.17236328125;5.0625;-6.25;16.1875;
1441975272552613;-0.7877197265625;-0.0362548828125;-0.61212158203125;-0.06011962890625;1.6284288591718523;16.51318792626627;10.389142661062703;0.90380859375;0.26611328125;-0.17822265625;3.5625;-8.0625;18.0625;
1441975272575614;-0.78857421875;-0.03411865234375;-0.6112060546875;-0.05938720703125;1.6300726405474872;16.558414432129066;10.338167600455328;0.92529296875;0.265625;-0.17724609375;1.5625;-9.5;19.75;
1441975272589615;-0.78948974609375;-0.03131103515625;-0.61016845703125;-0.05926513671875;1.6332983980946336;16.60286215525384;10.282721401576978;0.953125;0.2587890625;-0.1875;-1.1875;-11.625;20.5;
1441975272611616;-0.790283203125;-0.027587890625;-0.6092529296875;-0.0604248046875;1.6364680610929994;16.636399626235587;10.229193592927745;0.970703125;0.2373046875;-0.19921875;-6.5625;-12.125;20.25;
1441975272642618;-0.7908935546875;-0.0233154296875;-0.60833740234375;-0.06256103515625;1.6402775719174587;16.660028493900498;10.179310524950413;0.95849609375;0.21826171875;-0.20458984375;-15.625;-11.625;18.4375;
1441975272657619;-0.79150390625;-0.019287109375;-0.607421875;-0.06549072265625;1.6477606847202524;16.669009387296725;10.141823316083121;0.90673828125;0.162109375;-0.2119140625;-23.25;-9.9375;14.5;
1441975272672620;-0.79168701171875;-0.015869140625;-0.60687255859375;-0.06903076171875;1.653643732142717;16.657503780529236;10.124810048466989;0.857421875;0.11669921875;-0.2275390625;-27.0625;-8.25;8.125;
1441975272695621;-0.79144287109375;-0.01300048828125;-0.6068115234375;-0.072509765625;1.6544179686208769;16.635610744342156;10.12068724913798;0.8388671875;0.1171875;-0.2333984375;-27.9375;-4.0625;3.375;
1441975272716622;-0.79083251953125;-0.01104736328125;-0.60736083984375;-0.07568359375;1.6499503296661184;16.602604863852978;10.132714400849895;0.869140625;0.1298828125;-0.267578125;-26.0625;1.8125;1.3125;
1441975272731623;-0.78973388671875;-0.0107421875;-0.6085205078125;-0.0777587890625;1.639574768062187;16.561301477750316;10.16429693322003;0.89501953125;0.12353515625;-0.3017578125;-22.125;8.125;-2.0;
1441975272755624;-0.78802490234375;-0.012451171875;-0.61065673828125;-0.07806396484375;1.618784436307553;16.513895515223677;10.217524269060032;0.8935546875;0.09619140625;-0.31689453125;-12.4375;14.5;-7.3125;
1441975272776626;-0.78570556640625;-0.01617431640625;-0.6136474609375;-0.076904296875;1.590128867624589;16.455142802320534;10.296357394757651;0.88720703125;0.06201171875;-0.31201171875;1.625;22.5;-12.4375;
1441975272791627;-0.78289794921875;-0.02178955078125;-0.6173095703125;-0.0745849609375;1.5572007150498448;16.382036002657646;10.402030156487696;0.857421875;0.037109375;-0.30126953125;14.8125;29.5625;-17.5;
1441975272815628;-0.77960205078125;-0.02850341796875;-0.62152099609375;-0.07196044921875;1.522119423825434;16.28933333513574;10.533015848876689;0.83642578125;0.05126953125;-0.28515625;26.375;35.0;-20.9375;
1441975272836629;-0.776123046875;-0.035400390625;-0.6258544921875;-0.06915283203125;1.4874325127075494;16.189580774979266;10.672506962321735;0.85498046875;0.091796875;-0.27685546875;32.3125;39.25;-21.8125;
1441975272851630;-0.77252197265625;-0.04254150390625;-0.630126953125;-0.06640625;1.456652258120301;16.080266077121205;10.822259972776322;0.90625;0.11376953125;-0.2744140625;33.5625;40.8125;-21.5;
1441975272875631;-0.76904296875;-0.05010986328125;-0.6341552734375;-0.0634765625;1.4325160343575396;15.967705728207651;10.977716645887272;0.90869140625;0.099609375;-0.25732421875;34.25;40.0;-24.1875;
1441975272896633;-0.7655029296875;-0.05804443359375;-0.63800048828125;-0.0604248046875;1.4138060031349544;15.850302134260348;11.139980391251825;0.908203125;0.0830078125;-0.2412109375;36.125;38.5625;-26.75;
1441975272920634;-0.761962890625;-0.06561279296875;-0.64178466796875;-0.0579833984375;1.4002445588190071;15.725405364197615;11.305734693718765;0.90283203125;0.06982421875;-0.23876953125;37.875;38.5;-29.125;
1441975272935635;-0.758544921875;-0.0726318359375;-0.6451416015625;-0.05633544921875;1.3949514344684417;15.599546068071444;11.466969654477635;0.892578125;0.05517578125;-0.22021484375;34.0;37.375;-31.25;
1441975272956636;-0.75543212890625;-0.07904052734375;-0.648193359375;-0.054931640625;1.393866018948482;15.48298727165826;11.615415162073283;0.8857421875;0.06201171875;-0.208984375;28.5625;34.25;-31.5;
1441975272971637;-0.75250244140625;-0.08514404296875;-0.65087890625;-0.05413818359375;1.4004764131864322;15.369051211705552;11.757515662966055;0.90087890625;0.05322265625;-0.2060546875;25.125;31.625;-31.1875;
1441975272995638;-0.749755859375;-0.09088134765625;-0.6533203125;-0.0540771484375;1.4142365836700173;15.25684724446663;11.893411299983217;0.92919921875;0.05126953125;-0.20458984375;21.9375;29.5;-33.1875;
1441975273016639;-0.74725341796875;-0.095703125;-0.65545654296875;-0.05462646484375;1.4308488307291074;15.154357968692764;12.013377837646923;0.955078125;0.07080078125;-0.20068359375;17.4375;26.5625;-33.5;
1441975273031640;-0.7449951171875;-0.0997314453125;-0.6573486328125;-0.05511474609375;1.4454951842187778;15.066657496193292;12.115572184200365;0.96044921875;0.0634765625;-0.19482421875;11.5;23.875;-32.9375;
1441975273055642;-0.742919921875;-0.10369873046875;-0.6590576171875;-0.05523681640625;1.4599911483268402;14.989905231734664;12.208069268196162;0.98388671875;0.02880859375;-0.1943359375;8.625;22.0;-32.5625;
1441975273076643;-0.740966796875;-0.10772705078125;-0.66064453125;-0.0546875;1.4721506293429885;14.924094170544537;12.292620192259506;1.013671875;0.033203125;-0.19775390625;9.9375;20.75;-31.375;
1441975273091644;-0.739013671875;-0.11187744140625;-0.6622314453125;-0.0537109375;1.4830318875541086;14.862692843053344;12.375008819404817;1.0283203125;0.03271484375;-0.2041015625;13.0625;20.6875;-29.8125;
1441975273115645;-0.737060546875;-0.11578369140625;-0.663818359375;-0.052734375;1.4930155357329864;14.803397378421;12.454299665165061;1.0341796875;0.03662109375;-0.17431640625;15.625;19.4375;-28.5625;
1441975273136646;-0.73516845703125;-0.11871337890625;-0.66546630859375;-0.05206298828125;1.4987742162583555;14.746358753608396;12.526082546098609;0.9921875;0.03759765625;-0.14990234375;15.0625;18.125;-27.25;
1441975273152647;-0.7332763671875;-0.11895751953125;-0.6673583984375;-0.05340576171875;1.4995108684851082;14.680411884035891;12.587545224994727;0.94091796875;0.0419921875;-0.12548828125;10.75;17.0625;-23.3125;
1441975273174648;-0.732421875;-0.1153564453125;-0.66876220703125;-0.05517578125;1.4790124079397169;14.646496702303542;12.59943673514069;0.955078125;0.08984375;-0.0576171875;-6.9375;11.1875;-16.75;
1441975273196650;-0.732177734375;-0.1090087890625;-0.6700439453125;-0.0565185546875;1.4362931293725965;14.63591762839588;12.57846112170969;1.0;0.044921875;-0.0205078125;-22.4375;1.1875;-5.0625;
1441975273212651;-0.73248291015625;-0.1014404296875;-0.67083740234375;-0.05682373046875;1.3795167164088002;14.655122577963052;12.526980375261386;1.046875;-0.03564453125;0.013671875;-30.9375;-4.9375;2.5;
1441975273235652;-0.73345947265625;-0.0926513671875;-0.671142578125;-0.05609130859375;1.3095064134994852;14.711131291109934;12.437968889121228;1.1806640625;0.01025390625;-0.0166015625;-31.0;-7.0;13.125;
1441975273256653;-0.73492431640625;-0.08258056640625;-0.67095947265625;-0.0548095703125;1.2302763923425943;14.80484771711793;12.308316256632613;1.2978515625;0.04345703125;-0.091796875;-31.625;-7.25;24.625;
1441975273280655;-0.73699951171875;-0.07318115234375;-0.66986083984375;-0.0535888671875;1.1643017401262568;14.935200306102846;12.144586055640554;1.3505859375;-0.05322265625;-0.1318359375;-34.75;-9.25;26.0;
1441975273294655;-0.73992919921875;-0.0643310546875;-0.66766357421875;-0.05206298828125;1.1117939143761861;15.116714075004252;11.93322157710738;1.30419921875;-0.1220703125;-0.134765625;-32.5;-14.5625;19.9375;
1441975273317657;-0.7432861328125;-0.054443359375;-0.66485595703125;-0.05059814453125;1.06372527344045;15.34518215977535;11.670463564889145;1.2578125;-0.09814453125;-0.16064453125;-28.3125;-20.75;22.375;
1441975273331657;-0.746826171875;-0.04296875;-0.6617431640625;-0.05059814453125;1.0260820482973956;15.598539733493215;11.3704268043257;1.26025390625;-0.09765625;-0.20458984375;-32.4375;-23.0625;28.1875;
1441975273354659;-0.75067138671875;-0.029541015625;-0.65802001953125;-0.05194091796875;1.0009990340729935;15.887955008349888;11.020945428877262;1.21142578125;-0.103515625;-0.21728515625;-44.5;-25.25;30.375;
1441975273377660;-0.7552490234375;-0.0147705078125;-0.6531982421875;-0.0528564453125;0.9931901002155847;16.245971020334277;10.599132741558002;1.11328125;-0.13720703125;-0.185546875;-57.5625;-32.3125;33.375;
1441975273391661;-0.760009765625;-0.0013427734375;-0.6478271484375;-0.0521240234375;1.0082540940667624;16.62257554877326;10.170845804859761;1.0732421875;-0.248046875;-0.1572265625;-60.75;-42.8125;34.4375;
1441975273414662;-0.7646484375;0.0101318359375;-0.642578125;-0.048828125;1.0390064419008362;17.000610513620423;9.759472022301326;1.078125;-0.26416015625;-0.1650390625;-48.6875;-45.4375;35.375;
1441975273437663;-0.769287109375;0.02008056640625;-0.63720703125;-0.0430908203125;1.0879259905586938;17.377288730630443;9.365545393480579;1.13818359375;-0.21044921875;-0.21435546875;-30.25;-42.4375;41.0625;
1441975273452664;-0.7738037109375;0.02911376953125;-0.63177490234375;-0.037109375;1.1545335226962;17.70402147755131;9.026231751937773;1.2275390625;-0.15234375;-0.27001953125;-13.1875;-40.9375;48.5625;
1441975273474666;-0.77825927734375;0.03778076171875;-0.62603759765625;-0.03216552734375;1.236621924002022;17.963056199769312;8.751796267638285;1.20361328125;-0.1513671875;-0.2548828125;-8.75;-42.8125;47.5625;
1441975273505667;-0.7825927734375;0.04718017578125;-0.62017822265625;-0.0267333984375;1.3293791599623233;0.20795861496212711;8.490422435695251;1.06884765625;-0.1513671875;-0.20458984375;-11.75;-46.375;43.8125;
1441975273518668;-0.78668212890625;0.0574951171875;-0.6143798828125;-0.02117919921875;1.430463525618855;0.4343990242078249;8.244203543324987;1.04248046875;-0.22900390625;-0.1845703125;-13.125;-48.875;44.9375;
1441975273534669;-0.791015625;0.06939697265625;-0.60772705078125;-0.01470947265625;1.5545667799875804;0.6586190732749122;7.997275526142823;1.1650390625;-0.2734375;-0.1962890625;-16.9375;-50.125;48.3125;
1441975273565671;-0.7958984375;0.08270263671875;-0.59979248046875;-0.00732421875;1.7085986242385782;0.8667449448255097;7.764188898571544;1.3330078125;-0.28125;-0.2744140625;-18.0;-55.125;60.5625;
1441975273578672;-0.80316162109375;0.0965576171875;-0.58795166015625;-0.00115966796875;1.916303204040421;0.9944299425924789;7.603761899058594;1.42236328125;-0.4189453125;-0.3349609375;-21.875;-62.75;63.8125;
1441975273594672;-0.81329345703125;0.1107177734375;-0.5712890625;0.0020751953125;2.1764254469094335;1.025131230415737;7.526211285219686;1.4140625;-0.51123046875;-0.494140625;-31.8125;-80.5625;57.0;
1441975273617674;-0.82659912109375;0.12335205078125;-0.54913330078125;0.0078125;2.506644427494388;1.0250263335379994;7.494907200983054;1.5546875;-0.8115234375;-0.63623046875;-45.1875;-112.0;60.6875;
1441975273638675;-0.84100341796875;0.1334228515625;-0.52398681640625;0.0189208984375;2.8801636596246856;1.043590048152324;7.476907961206338;1.69921875;-1.11083984375;-0.689453125;-34.6875;-151.5625;56.25;
1441975273654676;-0.85247802734375;0.14306640625;-0.50146484375;0.03790283203125;3.2429281439929376;1.1416284553974259;7.4142349626476864;1.7958984375;-0.9462890625;-0.81201171875;-1.9375;-173.5625;64.375;
1441975273677677;-0.858642578125;0.15582275390625;-0.48529052734375;0.0546875;3.5283692770928576;1.255619911042988;7.314022223459513;1.91796875;-0.65185546875;-1.08984375;42.4375;-156.8125;94.5625;
1441975273698678;-0.8621826171875;0.16766357421875;-0.47296142578125;0.06982421875;3.761646395927353;1.3599395923980924;7.220946072898016;2.2197265625;-0.232421875;-1.22802734375;30.625;-108.0;108.875;
1441975273714679;-0.86505126953125;0.17425537109375;-0.4630126953125;0.08331298828125;3.9464041884081427;1.4364270774766479;7.171837793186809;2.482421875;0.4638671875;-1.14306640625;29.4375;-80.4375;101.0;
1441975273737681;-0.86334228515625;0.17730712890625;-0.4642333984375;0.08770751953125;3.960298655869413;1.4861845134139064;7.127705223385751;2.376953125;0.41162109375;-0.83642578125;38.1875;-67.1875;70.4375;
1441975273758682;-0.8614501953125;0.17816162109375;-0.4656982421875;0.0965576171875;3.9832694069023615;1.5624322880914476;7.085709114006478;1.74951171875;-0.15234375;-0.19287109375;14.0625;-50.9375;58.875;
1441975273782683;-0.8603515625;0.17340087890625;-0.46685791015625;0.109130859375;4.0059985074274325;1.6453142775568388;7.077447908075111;0.87255859375;-0.123046875;0.13818359375;36.4375;-37.125;42.1875;
1441975273797684;-0.8597412109375;0.166748046875;-0.46734619140625;0.121337890625;4.026571704263877;1.7162671690628917;7.087755116743779;0.03955078125;0.27197265625;0.474609375;75.25;-33.4375;25.1875;
1441975273834686;-0.8575439453125;0.1683349609375;-0.46771240234375;0.132568359375;4.075569593119087;1.8058948803679056;7.03951027536483;-0.5595703125;0.65771484375;0.587890625;87.875;-22.6875;20.25;
1441975273837686;-0.85369873046875;0.18267822265625;-0.46661376953125;0.14208984375;4.186545070476198;1.9118087689776588;6.912110897984377;-0.93603515625;0.79345703125;0.26708984375;74.0;17.4375;55.875;
1441975273863688;-0.847412109375;0.204345703125;-0.4666748046875;0.14971923828125;4.313917964770689;2.0270370596716165;6.734921996707551;-1.263671875;0.68505859375;-0.048828125;34.5625;54.0;99.8125;
1441975273878689;-0.84271240234375;0.228515625;-0.4613037109375;0.15771484375;4.514049818451871;2.1126049350542657;6.5766161694189735;-1.10400390625;0.6455078125;-0.060546875;-9.3125;37.375;132.4375;
1441975273894690;-0.84222412109375;0.25457763671875;-0.44842529296875;0.1575927734375;4.754107988786856;2.100421273758761;6.4698416172567805;-0.38232421875;0.6455078125;-0.25830078125;-20.375;4.5;153.625;
1441975273918691;-0.848388671875;0.27569580078125;-0.4273681640625;0.147216796875;4.991540473510149;1.9688849260832022;6.456039289365687;0.138671875;0.47998046875;-0.49169921875;-77.4375;-32.5;144.4375;
1441975273940692;-0.8582763671875;0.28753662109375;-0.40386962890625;0.1326904296875;5.1907241911766135;1.7883856764114956;6.512177150308789;0.54443359375;0.1474609375;-0.5185546875;-134.875;-82.75;91.75;
1441975273954693;-0.86724853515625;0.2923583984375;-0.3837890625;0.12310791015625;5.358196740561202;1.6484913194966264;6.581042870432111;0.65966796875;-0.47265625;-0.4541015625;-146.6875;-108.125;26.4375;
1441975273977694;-0.871826171875;0.29620361328125;-0.36968994140625;0.1248779296875;5.520896950869888;1.6062751583996815;6.608021780874516;0.48486328125;-0.87744140625;-0.42431640625;-105.25;-101.5;-3.25;
1441975273998696;-0.873046875;0.30126953125;-0.36090087890625;0.12969970703125;5.649618972210805;1.6082384899199693;6.6001879659765486;0.26025390625;-0.62646484375;-0.400390625;-44.75;-77.0625;7.875;
1441975274014696;-0.87567138671875;0.3072509765625;-0.35137939453125;0.12408447265625;5.7377677324055085;1.5477045854917104;6.603288679997187;0.33056640625;-0.3056640625;-0.755859375;6.25;-38.3125;38.0625;
1441975274037698;-0.881103515625;0.3140869140625;-0.33697509765625;0.10760498046875;5.825366953729815;1.4077088730758418;6.63019063334191;0.48779296875;-0.23583984375;-0.97802734375;-41.3125;-26.5;26.75;
1441975274059699;-0.88720703125;0.32073974609375;-0.3211669921875;0.0833740234375;5.8912679556833965;1.2205447444570543;6.668121346582995;0.39306640625;-0.2421875;-1.04248046875;-121.5;-44.9375;2.25;
1441975274074700;-0.89031982421875;0.3245849609375;-0.31329345703125;0.06201171875;5.882895418244858;1.0757414640634229;6.693608233640882;0.2646484375;-0.49560546875;-1.10205078125;-167.5625;-37.6875;-17.375;
1441975274096701;-0.8934326171875;0.32489013671875;-0.3046875;0.0582275390625;5.95623642860935;1.0252923187676115;6.719941855506121;0.1162109375;-0.8173828125;-1.4541015625;-134.8125;6.625;-28.875;
1441975274118702;-0.89874267578125;0.31427001953125;-0.29962158203125;0.06097412109375;5.998390604433726;1.0062543127034473;6.800262648491713;-0.07373046875;-0.89892578125;-1.60205078125;-54.0;19.8125;-42.5;
1441975274134703;-0.90301513671875;0.29888916015625;-0.303466796875;0.05633544921875;5.904430112582181;0.9639428154028349;6.899323716674201;0.01318359375;-0.525390625;-1.37109375;20.9375;3.875;-75.9375;
1441975274156705;-0.9061279296875;0.28387451171875;-0.3101806640625;0.04705810546875;5.763118260252599;0.9012970933580365;6.996932910063917;0.6083984375;0.0703125;-1.45263671875;41.6875;33.125;-81.1875;
1441975274178706;-0.91259765625;0.26409912109375;-0.30938720703125;0.04144287109375;5.712618005358208;0.8268456425511865;7.140504061307081;1.046875;0.08349609375;-1.3427734375;18.25;31.0;-79.0625;
1441975274194707;-0.91778564453125;0.24212646484375;-0.3126220703125;0.03680419921875;5.622081112592447;0.7635986551417614;7.289016922066811;1.41162109375;-0.19091796875;-0.7294921875;3.0;-24.5;-118.6875;
1441975274216708;-0.9180908203125;0.22412109375;-0.32550048828125;0.03192138671875;5.431583986947257;0.7291106028446908;7.392322073603754;1.13427734375;-0.15380859375;-0.5732421875;18.125;-1.0;-129.125;
1441975274248710;-0.9158935546875;0.20819091796875;-0.34210205078125;0.02874755859375;5.207362318678262;0.7159698094478378;7.472226452442346;1.0361328125;0.2138671875;-0.80615234375;47.9375;45.5;-83.1875;
1441975274254710;-0.91339111328125;0.1923828125;-0.3580322265625;0.0233154296875;4.982984794868874;0.6825711805968429;7.559982415293539;1.5224609375;0.35595703125;-0.9326171875;67.1875;49.4375;-53.875;
1441975274276711;-0.90960693359375;0.18121337890625;-0.37371826171875;0.0145263671875;4.758143403512942;0.633239566510367;7.626707000740873;1.67431640625;0.44873046875;-0.62158203125;53.125;31.8125;-52.0;
1441975274307713;-0.9046630859375;0.17718505859375;-0.38763427734375;0.00146484375;4.550981563646541;0.5659175957530183;7.6597516362324845;1.5546875;0.6005859375;-0.51123046875;31.3125;42.6875;-28.25;
1441975274314714;-0.900146484375;0.1766357421875;-0.39813232421875;-0.01214599609375;4.3866318866613945;0.4934263704581165;7.6792385366685485;1.5986328125;0.52197265625;-0.69287109375;-11.1875;51.0625;-3.0;
1441975274336715;-0.89593505859375;0.17633056640625;-0.40728759765625;-0.01934814453125;4.25579841387326;0.46354610580502964;7.682537561602572;1.4833984375;0.32177734375;-0.7333984375;-36.625;43.9375;0.4375;
1441975274360716;-0.89263916015625;0.1737060546875;-0.41558837890625;-0.02008056640625;4.150951071860158;0.4712151186622144;7.686194545708588;1.23486328125;0.10791015625;-0.66259765625;-17.125;40.125;1.9375;
1441975274374717;-0.8909912109375;0.1678466796875;-0.42169189453125;-0.01409912109375;4.087538899466764;0.5124047976909925;7.698468954707156;0.94287109375;-0.13330078125;-0.63671875;9.1875;41.5;-10.5625;
1441975274398718;-0.89080810546875;0.16131591796875;-0.42486572265625;-0.00115966796875;4.077626557436674;0.5964602267200525;7.699545300588561;0.6953125;-0.3232421875;-0.75439453125;41.8125;38.4375;-24.8125;
1441975274420720;-0.891845703125;0.1571044921875;-0.4239501953125;0.01422119140625;4.126015450906988;0.6956657753715901;7.684583307430495;0.7431640625;-0.39306640625;-0.95703125;76.3125;22.6875;-15.3125;
1441975274434721;-0.89495849609375;0.15325927734375;-0.4180908203125;0.0291748046875;4.232490004412747;0.7768375417403592;7.6833148319052365;0.84716796875;-0.33251953125;-0.9921875;83.9375;-6.6875;6.75;
1441975274464722;-0.89996337890625;0.14923095703125;-0.40753173828125;0.042724609375;4.388808654561233;0.8319739099504979;7.702332544408252;0.578125;-0.36865234375;-0.8818359375;74.5625;-31.8125;2.875;
1441975274495724;-0.90496826171875;0.14556884765625;-0.39508056640625;0.06207275390625;4.581881316333054;0.9241418263773966;7.7083787291348695;0.2099609375;-0.416015625;-0.72509765625;60.0;-51.625;-8.75;
1441975274501724;-0.906005859375;0.14239501953125;-0.38885498046875;0.0880126953125;4.719603665544411;1.0804807577150934;7.679026404308468;0.01806640625;-0.4326171875;-0.7607421875;88.0;-57.0625;4.875;
1441975274524726;-0.90399169921875;0.14068603515625;-0.384765625;0.12274169921875;4.8620361712736955;1.305154832177933;7.6150731066270225;-0.05029296875;-0.287109375;-0.82763671875;136.6875;-47.0625;40.125;
1441975274540727;-0.89886474609375;0.1412353515625;-0.38287353515625;0.15985107421875;4.997529953548016;1.5548058041688746;7.528403644214207;-0.05859375;0.00341796875;-0.85400390625;186.6875;-35.5625;72.5625;
1441975274569728;-0.8895263671875;0.1466064453125;-0.38531494140625;0.1971435546875;5.112392904606752;1.8277316742915417;7.399280716424709;0.091796875;0.4521484375;-0.77001953125;203.5625;-20.5;95.8125;
1441975274576729;-0.87896728515625;0.15673828125;-0.38818359375;0.22845458984375;5.235488220306849;2.068298702279575;7.255629803308878;0.47998046875;0.7998046875;-0.78076171875;205.625;11.0;127.375;
1441975274600730;-0.86669921875;0.17047119140625;-0.38946533203125;0.260986328125;5.411907788582742;2.3118761058341804;7.100266347719197;0.82080078125;0.91259765625;-0.591796875;166.25;20.5625;143.375;
1441975274621731;-0.85870361328125;0.17822265625;-0.39056396484375;0.27984619140625;5.517906147538124;2.4513804926000002;7.013676578836831;1.4169921875;0.87646484375;-0.6064453125;150.8125;22.625;150.9375;
1441975274644733;-0.8536376953125;0.1785888671875;-0.39459228515625;0.2894287109375;5.523135701319772;2.5314456808630545;6.975996232973296;1.568359375;-0.06396484375;-0.47900390625;94.125;6.375;102.875;
1441975274667734;-0.84674072265625;0.1827392578125;-0.3994140625;0.30029296875;5.548586903518833;2.6293389382598384;6.909555500624002;0.6494140625;-0.2080078125;0.015625;50.4375;-2.25;42.3125;
1441975274682735;-0.84228515625;0.1865234375;-0.40704345703125;0.30023193359375;5.499422700270066;2.6699190887347273;6.850129513689248;0.62255859375;-0.0302734375;-0.38623046875;77.0;27.9375;70.75;
1441975274696735;-0.83990478515625;0.18475341796875;-0.41534423828125;0.29656982421875;5.397826675258317;2.683794271116923;6.825247569633221;0.98779296875;0.20263671875;-0.69580078125;46.125;48.0;63.1875;
1441975274727737;-0.837158203125;0.17987060546875;-0.42510986328125;0.2935791015625;5.269205387049522;2.705703219217081;6.8090431743791155;0.896484375;0.1318359375;-0.4794921875;25.8125;35.875;17.0;
1441975274741738;-0.83447265625;0.17559814453125;-0.43701171875;0.2861328125;5.103535933837042;2.7123178410695905;6.78452567904743;0.81884765625;-0.0126953125;-0.41845703125;30.875;39.375;-7.875;
1441975274755739;-0.83203125;0.17254638671875;-0.45037841796875;0.27423095703125;4.909833771864405;2.7014244542541026;6.751935559701842;0.755859375;-0.00439453125;-0.42431640625;10.5;58.8125;-23.0;
1441975274770740;-0.82916259765625;0.16961669921875;-0.46435546875;0.26116943359375;4.704873774770896;2.6894628889004;6.71539053633486;0.607421875;0.02099609375;-0.35546875;-15.6875;74.3125;-37.5625;
1441975274792741;-0.8250732421875;0.16595458984375;-0.47979736328125;0.24810791015625;4.481784058176094;2.6889343301497175;6.671318552548712;0.494140625;0.00537109375;-0.23779296875;-26.375;78.625;-46.25;
1441975274816742;-0.81768798828125;0.162353515625;-0.49853515625;0.2379150390625;4.24423940524862;2.73593136772691;6.592630681838535;0.33203125;0.15869140625;-0.09326171875;-22.8125;86.1875;-50.6875;
1441975274830743;-0.807861328125;0.15606689453125;-0.521728515625;0.22552490234375;3.9418452124097056;2.806319564483509;6.4927227629406286;0.1494140625;0.4091796875;-0.1484375;-5.5;114.375;-58.0;
1441975274852744;-0.79827880859375;0.144287109375;-0.54669189453125;0.20770263671875;3.562740224582598;2.857198666641292;6.412751683011394;-0.0869140625;0.39794921875;-0.30029296875;0.125;144.125;-83.1875;
1441975274876746;-0.78564453125;0.12713623046875;-0.57464599609375;0.19097900390625;3.131798486576639;2.9565849116040317;6.312125275188197;-0.22900390625;0.197265625;-0.1103515625;-10.5;147.75;-130.75;
1441975274899747;-0.7701416015625;0.10540771484375;-0.60382080078125;0.1767578125;2.6781964124922064;3.122786854851969;6.1744840585939755;-0.09912109375;0.07177734375;-0.1875;17.0625;164.125;-153.4375;
1441975274912748;-0.7547607421875;0.07794189453125;-0.63116455078125;0.1611328125;2.1940492413900485;3.304857604896776;6.038651255530659;0.26220703125;-0.00927734375;-0.296875;48.0;172.8125;-163.8125;
1441975274936749;-0.74212646484375;0.0462646484375;-0.65264892578125;0.14581298828125;1.7233630564182958;3.4552199917423625;5.953020960033756;0.578125;-0.0078125;-0.1748046875;59.1875;156.5625;-190.625;
1441975274950750;-0.73370361328125;0.0128173828125;-0.66619873046875;0.13330078125;1.3069997226706136;3.506134377569504;5.985772860736992;0.9443359375;0.22216796875;-0.0703125;70.875;115.625;-198.625;
1441975274981752;-0.72821044921875;-0.0201416015625;-0.67529296875;0.11572265625;0.886086911191121;3.327927562719977;6.224993675921395;1.63037109375;0.2724609375;-0.14892578125;83.3125;64.5;-187.6875;
1441975274996753;-0.72491455078125;-0.0526123046875;-0.680419921875;0.0941162109375;0.4931611686208051;2.448440777354638;7.147614817246155;1.8134765625;-0.0107421875;0.02197265625;56.625;33.0;-208.0625;
1441975275010753;-0.72344970703125;-0.0811767578125;-0.68218994140625;0.06884765625;0.34896631556569213;17.47275594996421;10.136457646566353;1.681640625;-0.23388671875;0.24462890625;36.375;4.5625;-225.125;
1441975275032755;-0.72308349609375;-0.10406494140625;-0.68145751953125;0.044921875;0.5862544409496773;15.559679969707853;12.045821290436363;1.404296875;-0.28564453125;0.357421875;6.1875;-17.8125;-224.1875;
1441975275056756;-0.7232666015625;-0.11907958984375;-0.67987060546875;0.02435302734375;0.8449842904231907;15.022502793823024;12.561163347382418;1.16357421875;-0.23681640625;0.25927734375;-9.375;-27.75;-193.875;
1441975275078757;-0.7227783203125;-0.12664794921875;-0.679443359375;0.00531005859375;1.045390992002157;14.75149448313453;12.786112077329204;1.0888671875;-0.08056640625;0.05712890625;-25.5625;-25.75;-145.6875;
1441975275092758;-0.72137451171875;-0.1280517578125;-0.68048095703125;-0.0145263671875;1.2040564134440335;14.531676304813713;12.931307392567987;1.14111328125;0.06591796875;-0.0615234375;-49.3125;-14.375;-108.25;
1441975275124760;-0.7198486328125;-0.1234130859375;-0.682373046875;-0.03204345703125;1.2984546959309138;14.364086603822749;13.00872917609301;1.21240234375;0.16845703125;-0.02490234375;-76.875;-9.375;-88.9375;
1441975275138761;-0.71734619140625;-0.11773681640625;-0.68487548828125;-0.051513671875;1.3997910892944596;14.178207560215295;13.092184029688717;1.46484375;0.12548828125;-0.02978515625;-92.0625;-4.625;-63.6875;
1441975275161762;-0.7138671875;-0.111572265625;-0.6884765625;-0.0634765625;1.4369397624987827;14.010870513634313;13.185557865451253;1.57666015625;0.025390625;0.01318359375;-104.625;3.25;-59.9375;
1441975275175763;-0.710205078125;-0.10894775390625;-0.692138671875;-0.0692138671875;1.454846950799271;13.870662088235196;13.29163585646972;1.619140625;-0.078125;-0.029296875;-77.875;15.25;-56.4375;
1441975275190764;-0.7064208984375;-0.1094970703125;-0.69573974609375;-0.070556640625;1.4654657005549607;13.749285884234206;13.409793530022384;1.73193359375;-0.0986328125;-0.10302734375;-39.6875;27.5;-50.6875;
1441975275212765;-0.70172119140625;-0.11102294921875;-0.7000732421875;-0.0726318359375;1.4923143084753892;13.6041440070875;13.552733421187732;1.90771484375;-0.02490234375;-0.12939453125;-9.75;34.9375;-44.9375;
1441975275236766;-0.6971435546875;-0.1103515625;-0.70440673828125;-0.075927734375;1.5148416888872094;13.458704722815535;13.681992590124612;1.92626953125;0.15625;-0.1162109375;-9.125;42.1875;-40.25;
1441975275250767;-0.69268798828125;-0.106201171875;-0.7088623046875;-0.08050537109375;1.5229528198865834;13.304959176254762;13.800074229947255;1.87109375;0.234375;-0.1494140625;-23.625;44.375;-30.6875;
1441975275272768;-0.6883544921875;-0.09912109375;-0.71368408203125;-0.08428955078125;1.5044923015875529;13.137154644098645;13.923453753908568;1.802734375;0.1865234375;-0.1962890625;-43.8125;46.75;-24.0625;
1441975275296770;-0.684814453125;-0.09332275390625;-0.7177734375;-0.08489990234375;1.4725834200830161;12.993332306987886;14.041074666588376;1.7705078125;0.14990234375;-0.181640625;-52.5;47.5;-10.0625;
1441975275310771;-0.68280029296875;-0.09149169921875;-0.72021484375;-0.08221435546875;1.443567832189407;12.911181064937358;14.126704833867894;1.71240234375;0.1162109375;-0.171875;-33.9375;44.8125;-2.5;
1441975275332772;-0.6826171875;-0.09295654296875;-0.72076416015625;-0.07696533203125;1.4146887884263504;12.89999438758077;14.165290023245928;1.6064453125;0.13671875;-0.17724609375;-2.9375;36.375;-0.125;
1441975275363774;-0.68414306640625;-0.09356689453125;-0.7198486328125;-0.07159423828125;1.3723916099333724;12.934889236863276;14.154772098095378;1.5205078125;0.2080078125;-0.20166015625;21.75;25.875;4.8125;
1441975275373774;-0.6868896484375;-0.0927734375;-0.71771240234375;-0.06707763671875;1.322015529822694;13.006706434655227;14.09809881799641;1.47412109375;0.24755859375;-0.18310546875;20.9375;10.875;12.8125;
1441975275392775;-0.69024658203125;-0.09197998046875;-0.71502685546875;-0.0626220703125;1.2712582194355126;13.104532505489413;14.015148095776134;1.35546875;0.13818359375;-0.08203125;14.875;-8.25;10.3125;
1441975275416777;-0.69366455078125;-0.092529296875;-0.71209716796875;-0.05712890625;1.224099536862371;13.221053915326486;13.923199862816148;1.23828125;0.05859375;0.037109375;17.625;-22.0;7.125;
1441975275430777;-0.69671630859375;-0.0941162109375;-0.7093505859375;-0.05157470703125;1.1869983973699918;13.338835932117362;13.834463453143243;1.11474609375;0.05712890625;0.03466796875;27.0625;-23.375;8.625;
1441975275452779;-0.6995849609375;-0.09808349609375;-0.70635986328125;-0.04620361328125;1.172399380150722;13.471248350217824;13.740079308021306;1.03564453125;0.134765625;-0.00341796875;30.875;-19.0;11.1875;
1441975275476780;-0.70269775390625;-0.1038818359375;-0.7027587890625;-0.04095458984375;1.1755764002632088;13.626973854479669;13.629388341463297;1.03173828125;0.27734375;-0.01318359375;39.9375;-18.375;11.125;
1441975275490781;-0.7056884765625;-0.10931396484375;-0.6990966796875;-0.03717041015625;1.1902428842559398;13.775822351160167;13.518165168133283;1.04052734375;0.32666015625;-0.04052734375;46.875;-20.625;6.25;
1441975275515782;-0.70843505859375;-0.1114501953125;-0.69622802734375;-0.032958984375;1.1762921657188476;13.90150405356193;13.4183265955091;1.0009765625;0.3310546875;-0.01318359375;40.1875;-23.6875;2.75;
1441975275536784;-0.7099609375;-0.111328125;-0.69500732421875;-0.02520751953125;1.114639013042318;13.987895025120245;13.362873119335653;1.05859375;0.251953125;0.0595703125;29.375;-25.9375;11.6875;
1441975275550784;-0.7095947265625;-0.11578369140625;-0.6949462890625;-0.01593017578125;1.0753425283551665;14.02062632226567;13.386024340439242;1.22314453125;0.05908203125;0.05810546875;32.8125;-13.0;19.6875;
1441975275572786;-0.70904541015625;-0.1258544921875;-0.69390869140625;-0.0084228515625;1.0965021843864868;14.060816388802461;13.417651846158066;1.294921875;0.1630859375;0.0537109375;56.625;1.0;13.125;
1441975275595787;-0.70782470703125;-0.13525390625;-0.69342041015625;-0.003662109375;1.1334097689169407;14.064241514837365;13.472253239210056;1.23681640625;0.27587890625;0.02978515625;72.375;-1.5;-8.75;
1441975275610788;-0.707763671875;-0.141357421875;-0.6922607421875;-1.220703125E-4;1.1551252560176906;14.100695471688653;13.475359113639005;1.14404296875;0.27001953125;0.07763671875;58.75;-1.8125;-17.25;
1441975275632789;-0.7076416015625;-0.14630126953125;-0.6912841796875;7.9345703125E-4;1.188563178001297;14.120826978859542;13.479422972110596;1.08740234375;0.17138671875;0.03173828125;40.25;-7.0;-14.0;
1441975275656790;-0.70843505859375;-0.15399169921875;-0.6888427734375;0.0015869140625;1.2474749570110826;14.183940797946894;13.451396872309234;1.1484375;0.21533203125;0.06396484375;25.5;-10.875;-18.0625;
1441975275678792;-0.7122802734375;-0.16107177734375;-0.6832275390625;0.003173828125;1.3036469625978948;14.356911822938365;13.314348108201456;1.078125;0.216796875;0.0263671875;36.8125;-18.1875;-28.3125;
1441975275692792;-0.71478271484375;-0.16693115234375;-0.67919921875;0.00555419921875;1.3420068547773645;14.474419060429003;13.230949093325847;0.96875;0.0751953125;-0.0771484375;38.625;-35.6875;-28.6875;
1441975275716794;-0.7142333984375;-0.18072509765625;-0.6761474609375;0.01092529296875;1.4135689047488786;14.524517945122623;13.260302712333637;1.013671875;0.09033203125;0.01171875;37.0625;-30.4375;-21.5;
1441975275730795;-0.716552734375;-0.18829345703125;-0.67144775390625;0.01953125;1.418987208335044;14.673963344802695;13.177597764513047;1.0224609375;0.16015625;0.013671875;79.5625;-13.0;-41.625;
1441975275752796;-0.721923828125;-0.19024658203125;-0.6650390625;0.02044677734375;1.4548770778833984;14.85795801649622;13.005817517644623;0.8212890625;-0.03125;-0.06884765625;68.0;-20.5;-10.1875;
1441975275775797;-0.72802734375;-0.19219970703125;-0.65789794921875;0.01873779296875;1.5204058478265465;15.033355797217656;12.832043134002104;0.9365234375;0.32373046875;-0.16796875;17.5625;-42.25;9.1875;
1441975275790798;-0.73553466796875;-0.1895751953125;-0.6502685546875;0.015380859375;1.5764319250243692;15.224704906604572;12.616583533506821;1.0263671875;0.23974609375;-0.11376953125;8.0625;-56.9375;-6.9375;
1441975275812799;-0.74420166015625;-0.19140625;-0.639892578125;0.01300048828125;1.6804768283268976;15.435727787725735;12.40435924571544;0.87890625;0.0380859375;-0.05322265625;-16.9375;-69.5;-3.875;
1441975275835801;-0.7535400390625;-0.1947021484375;-0.6279296875;0.01153564453125;1.8069684988020973;15.646605906363812;12.202484362419087;0.77685546875;0.09326171875;-0.087890625;7.125;-82.625;-12.25;
1441975275850802;-0.7626953125;-0.196044921875;-0.6163330078125;0.0103759765625;1.9246116220174212;15.838088442444828;12.013227178595374;0.73974609375;0.123046875;-0.16162109375;17.8125;-87.4375;-12.0625;
1441975275872803;-0.77227783203125;-0.19403076171875;-0.60491943359375;0.01092529296875;2.0203788167135164;16.04460040891439;11.801869220918977;0.7080078125;0.103515625;-0.1650390625;11.25;-85.5625;-3.3125;
1441975275896804;-0.78216552734375;-0.18817138671875;-0.59393310546875;0.01177978515625;2.1019193277042856;16.256367933164544;11.570370671671261;0.6767578125;0.07275390625;-0.21630859375;5.625;-81.25;16.9375;
1441975275918805;-0.7919921875;-0.17974853515625;-0.58349609375;0.01202392578125;2.181165728448866;16.456108298233936;11.33760090977921;0.6611328125;0.05908203125;-0.31396484375;-8.0625;-74.6875;34.6875;
1441975275932806;-0.80120849609375;-0.169677734375;-0.57379150390625;0.01202392578125;2.2566467400862362;16.63983543120384;11.11294750573257;0.64599609375;0.07666015625;-0.365234375;-20.3125;-70.3125;46.25;
1441975275955808;-0.80987548828125;-0.15911865234375;-0.5645751953125;0.0107421875;2.339077343859424;16.79381888477221;10.91069608036486;0.66796875;0.09130859375;-0.40380859375;-27.1875;-64.0;53.625;
1441975275970808;-0.81732177734375;-0.14990234375;-0.55633544921875;0.0091552734375;2.420514469846934;16.91337210422348;10.747122022795816;0.66748046875;0.08935546875;-0.42431640625;-35.0;-60.9375;51.0;
1441975275992810;-0.82342529296875;-0.1412353515625;-0.54962158203125;0.0072021484375;2.4895501012348644;17.004368284432474;10.612649225070491;0.63916015625;0.09716796875;-0.40087890625;-31.875;-55.0;44.5;
1441975276015811;-0.82818603515625;-0.13336181640625;-0.54443359375;0.00537109375;2.5429543814177125;17.07464608330043;10.502491807366596;0.60400390625;0.08447265625;-0.37939453125;-32.75;-44.625;39.1875;
1441975276030812;-0.832275390625;-0.1260986328125;-0.53985595703125;0.00616455078125;2.582704281178696;17.160259016132905;10.390328320525096;0.56298828125;0.091796875;-0.3408203125;-30.125;-35.3125;35.875;
1441975276052813;-0.83587646484375;-0.1190185546875;-0.535888671875;0.00927734375;2.610669138557915;17.262481722883685;10.271829307375405;0.60205078125;0.1240234375;-0.35546875;-15.0625;-28.75;42.5625;
1441975276075814;-0.83868408203125;-0.11138916015625;-0.5330810546875;0.0126953125;2.6249027661108815;17.36354659632724;10.153321802605017;0.6982421875;0.18603515625;-0.38623046875;-1.8125;-23.9375;52.4375;
1441975276090815;-0.84027099609375;-0.103271484375;-0.53204345703125;0.01568603515625;2.6190918894729056;17.4545645133728;10.040859033611667;0.7470703125;0.234375;-0.3564453125;-0.75;-19.6875;58.875;
1441975276112816;-0.84014892578125;-0.09478759765625;-0.5338134765625;0.01806640625;2.5804546725375146;17.531759136517113;9.937800686633366;0.8232421875;0.28857421875;-0.3369140625;-3.0;-11.0625;62.5;
1441975276144818;-0.8388671875;-0.0849609375;-0.53741455078125;0.0186767578125;2.5211669956109755;17.595269864812934;9.835369924091955;1.0107421875;0.38134765625;-0.392578125;-6.0625;5.5;67.125;
1441975276150819;-0.8369140625;-0.07330322265625;-0.54217529296875;0.01788330078125;2.448577517198171;17.65669568994364;9.721598066529376;1.15625;0.40283203125;-0.4697265625;-18.4375;18.1875;68.9375;
1441975276172820;-0.83428955078125;-0.061279296875;-0.5477294921875;0.0179443359375;2.364959990399101;17.73407425018894;9.594012220633115;1.12158203125;0.29248046875;-0.4091796875;-34.75;23.8125;67.0625;
1441975276196821;-0.83087158203125;-0.05059814453125;-0.55389404296875;0.0198974609375;2.2728079659468063;17.829467397036915;9.461962194896078;1.02783203125;0.1357421875;-0.29931640625;-35.875;26.25;62.3125;
1441975276234823;-0.8272705078125;-0.04193115234375;-0.55987548828125;0.02301025390625;2.1851620635412696;17.931646270064846;9.33639715282899;0.931640625;0.03662109375;-0.2353515625;-25.5625;32.125;56.375;
1441975276237824;-0.8240966796875;-0.034912109375;-0.5648193359375;0.02685546875;2.113764129995527;0.0383281649425118;9.216308629084539;0.83154296875;-0.00390625;-0.21484375;-14.25;33.75;48.6875;
1441975276264825;-0.82110595703125;-0.02923583984375;-0.5692138671875;0.03094482421875;2.052006842961417;0.14336253181549896;9.104490295041408;0.76904296875;-0.03564453125;-0.2138671875;-5.9375;30.0;42.0;
1441975276278826;-0.81817626953125;-0.0255126953125;-0.5733642578125;0.0350341796875;1.995202750009424;0.23593457981906785;9.013206111262658;0.84521484375;-0.02685546875;-0.17138671875;0.375;22.6875;38.1875;
1441975276292827;-0.815673828125;-0.0235595703125;-0.57684326171875;0.03814697265625;1.948104475360269;0.3016240474037613;8.952104475272083;0.986328125;0.01220703125;-0.14111328125;7.625;16.125;32.125;
1441975276315828;-0.813720703125;-0.0224609375;-0.57952880859375;0.03961181640625;1.9114899815748234;0.33697611253082216;8.918122235353852;1.005859375;0.025390625;-0.154296875;9.0625;12.0625;22.5625;
1441975276338829;-0.81231689453125;-0.02239990234375;-0.58148193359375;0.03948974609375;1.8839766101218725;0.33883149518747185;8.915415229647383;1.01611328125;0.03466796875;-0.1513671875;4.375;6.3125;14.25;
1441975276352830;-0.81170654296875;-0.02288818359375;-0.58251953125;0.037353515625;1.8689294399052239;0.30427886827471506;8.943130760655315;1.05517578125;0.05078125;-0.1572265625;1.0;0.125;5.3125;
1441975276375832;-0.81170654296875;-0.02313232421875;-0.582763671875;0.03363037109375;1.8651258757128484;0.24781984274975893;8.985277168073141;1.00244140625;0.0478515625;-0.173828125;-6.8125;-4.4375;-4.0;
1441975276398833;-0.81201171875;-0.023681640625;-0.58251953125;0.0291748046875;1.868241360348998;0.177090158220073;9.03997218793166;0.923828125;4.8828125E-4;-0.1787109375;-16.4375;-8.125;-11.8125;
1441975276412834;-0.8125;-0.0250244140625;-0.58197021484375;0.0245361328125;1.8762549338690506;0.09570612004450554;9.107841824324465;0.8896484375;-0.009765625;-0.1708984375;-18.6875;-11.25;-16.6875;
1441975276435835;-0.81365966796875;-0.0263671875;-0.58050537109375;0.0189208984375;1.898776505349971;0.0015649800623239632;9.184489324686686;0.89892578125;0.029296875;-0.18017578125;-16.6875;-13.375;-18.875;
1441975276462837;-0.815673828125;-0.02679443359375;-0.57781982421875;0.01226806640625;1.9400748586218945;17.905541788473013;9.255028044410498;0.89453125;0.0947265625;-0.21484375;-19.375;-18.25;-18.5;
1441975276472837;-0.81817626953125;-0.02557373046875;-0.57440185546875;0.00469970703125;1.992494152573778;17.81755772105768;9.306978705619155;0.8876953125;0.1201171875;-0.22705078125;-26.625;-25.8125;-15.9375;
1441975276499839;-0.82086181640625;-0.02313232421875;-0.57073974609375;-0.00323486328125;2.048722164057464;17.74007169513935;9.341845635589195;0.88427734375;0.11376953125;-0.22265625;-36.75;-31.6875;-12.5625;
1441975276518840;-0.82366943359375;-0.0201416015625;-0.56671142578125;-0.01129150390625;2.1093716544699554;17.66952398793062;9.36694561624326;0.86767578125;0.10400390625;-0.22265625;-42.9375;-33.8125;-9.1875;
1441975276532841;-0.82666015625;-0.01702880859375;-0.56219482421875;-0.0185546875;2.1752021135117667;17.613699685345736;9.380005461164911;0.85205078125;0.10498046875;-0.22216796875;-45.1875;-35.9375;-7.3125;
1441975276556842;-0.829833984375;-0.01287841796875;-0.557373046875;-0.0252685546875;2.24344228022671;17.575907507680096;9.372918900428294;0.82568359375;0.11962890625;-0.23974609375;-41.5625;-37.75;-4.0;
1441975276578843;-0.83294677734375;-0.00738525390625;-0.552490234375;-0.0318603515625;2.310121681589306;17.551098893027046;9.347693045363068;0.82763671875;0.14306640625;-0.25537109375;-41.5625;-39.5;3.6875;
1441975276592844;-0.83587646484375;-3.662109375E-4;-0.54766845703125;-0.03814697265625;2.3728846580750877;17.541223355705267;9.302356686815845;0.876953125;0.16943359375;-0.255859375;-44.75;-41.875;11.9375;
1441975276616845;-0.83843994140625;0.00799560546875;-0.543212890625;-0.04400634765625;2.4279602063490113;17.54450834406418;9.239946428620744;0.9296875;0.1650390625;-0.26513671875;-48.1875;-42.8125;19.375;
1441975276639847;-0.840576171875;0.01751708984375;-0.53924560546875;-0.0496826171875;2.47453505292965;17.555941720231324;9.165238225246199;0.96875;0.1435546875;-0.2734375;-50.75;-41.1875;25.4375;
1441975276660848;-0.8421630859375;0.0279541015625;-0.535888671875;-0.0540771484375;2.510591373610562;17.58591244894715;9.073425113254501;0.9775390625;0.13818359375;-0.29931640625;-53.875;-37.0625;31.8125;
1441975276675849;-0.8431396484375;0.03887939453125;-0.53326416015625;-0.05743408203125;2.535937358410037;17.62853048622714;8.97119633483976;0.9765625;0.08740234375;-0.31982421875;-52.0625;-32.1875;36.75;
1441975276698850;-0.8431396484375;0.0504150390625;-0.5321044921875;-0.0594482421875;2.5420098722885935;17.68845042891619;8.854804284020036;1.0419921875;0.1162109375;-0.3447265625;-47.6875;-27.8125;44.75;
1441975276712851;-0.8419189453125;0.06292724609375;-0.53253173828125;-0.06121826171875;2.527235986319803;17.757766121927457;8.72611756185606;1.2216796875;0.19091796875;-0.46142578125;-40.875;-16.4375;57.5625;
1441975276735852;-0.83990478515625;0.07745361328125;-0.53314208984375;-0.06640625;2.50710491097143;17.804059550622746;8.59781091680312;1.47021484375;0.24560546875;-0.59912109375;-41.1875;-3.625;67.625;
1441975276758853;-0.83734130859375;0.094970703125;-0.533203125;-0.0745849609375;2.4894146382916658;17.83911090759022;8.455642946557376;1.326171875;0.1923828125;-0.57568359375;-65.0;3.0;64.9375;
1441975276772854;-0.8338623046875;0.11468505859375;-0.53314208984375;-0.08563232421875;2.4669831847276167;17.859080161221033;8.30725527684079;0.97900390625;0.05517578125;-0.4462890625;-93.0;4.9375;62.5;
1441975276795856;-0.8294677734375;0.134033203125;-0.53350830078125;-0.0975341796875;2.434399979145548;17.869404219189132;8.166357324811633;0.85498046875;-0.1494140625;-0.45361328125;-116.0;8.625;59.875;
1441975276818857;-0.8250732421875;0.15179443359375;-0.53460693359375;-0.102294921875;2.40508662568584;17.954303665980813;7.987194137923233;0.78955078125;-0.28759765625;-0.43505859375;-120.0;14.75;54.5;
1441975276834858;-0.82135009765625;0.164794921875;-0.53656005859375;-0.10186767578125;2.3802962793171516;0.0674836736095346;7.821495663837606;0.7529296875;-0.35302734375;-0.396484375;-89.125;15.625;51.0625;
1441975276855859;-0.8182373046875;0.173828125;-0.5389404296875;-0.09942626953125;2.35855683899135;0.176643155724397;7.68498223091694;0.8037109375;-0.3017578125;-0.39794921875;-46.6875;15.25;48.125;
1441975276878860;-0.81549072265625;0.18115234375;-0.54095458984375;-0.097900390625;2.340733604863832;0.26224033706130406;7.575269208562588;0.8974609375;-0.16259765625;-0.4443359375;-19.6875;16.4375;45.25;
1441975276892861;-0.81280517578125;0.18853759765625;-0.5423583984375;-0.09869384765625;2.3249581285492518;0.32049066242667684;7.482816548146842;0.93212890625;-0.0654296875;-0.4765625;-15.9375;17.1875;41.1875;
1441975276924863;-0.8099365234375;0.1973876953125;-0.54302978515625;-0.1011962890625;2.314478690655246;0.36868944163312956;7.386807037848354;0.93701171875;-0.01513671875;-0.50341796875;-25.1875;18.0625;37.5;
1441975276938864;-0.80657958984375;0.20806884765625;-0.54339599609375;-0.1044921875;2.307228660596094;0.42231091729913056;7.274084815921063;0.9150390625;-0.0458984375;-0.54296875;-39.5;19.9375;37.25;
1441975276954865;-0.8031005859375;0.21875;-0.5438232421875;-0.10711669921875;2.3027613048032323;0.4847049929302751;7.155248667540833;0.87548828125;-0.142578125;-0.5341796875;-52.0625;20.25;37.4375;
1441975276975866;-0.7998046875;0.22857666015625;-0.5443115234375;-0.10888671875;2.301495603164966;0.5503866980966987;7.040235938602708;0.837890625;-0.189453125;-0.53466796875;-49.625;21.4375;37.0;
1441975276998867;-0.79681396484375;0.23779296875;-0.54437255859375;-0.11065673828125;2.3057354428887153;0.6083592513679906;6.9352547268392915;0.81689453125;-0.2021484375;-0.5517578125;-43.0625;22.25;35.125;
1441975277012868;-0.79412841796875;0.2467041015625;-0.5439453125;-0.1124267578125;2.316445550481931;0.6599703736660069;6.837652457523092;0.79345703125;-0.18603515625;-0.55224609375;-40.5625;20.5625;33.125;
1441975277035869;-0.79180908203125;0.25518798828125;-0.543212890625;-0.11370849609375;2.3336958314728093;0.7099063764494141;6.745426762758674;0.7841796875;-0.17041015625;-0.54052734375;-39.25;16.8125;32.6875;
1441975277066871;-0.78955078125;0.26318359375;-0.54241943359375;-0.114990234375;2.351251828598921;0.7549424551055043;6.660023703521704;0.79296875;-0.1884765625;-0.53955078125;-36.5;13.5625;30.625;
1441975277080872;-0.7874755859375;0.27032470703125;-0.5416259765625;-0.1160888671875;2.368444516490892;0.7945783327712058;6.584332985331023;0.82080078125;-0.181640625;-0.5341796875;-34.5;12.1875;29.0;
1441975277111874;-0.78558349609375;0.27685546875;-0.540771484375;-0.117431640625;2.3843595953224663;0.8258423810672938;6.51858797442641;0.83544921875;-0.16650390625;-0.5380859375;-30.125;11.8125;27.3125;
1441975277117874;-0.7840576171875;0.28350830078125;-0.5391845703125;-0.11932373046875;2.406440203810878;0.8454840062466068;6.461344044365262;0.82958984375;-0.14306640625;-0.52490234375;-28.5;10.8125;25.125;
1441975277135875;-0.78271484375;0.29071044921875;-0.53662109375;-0.12213134765625;2.435304240543231;0.8518080942026502;6.410616380967907;0.83056640625;-0.125;-0.548828125;-31.6875;8.5;24.125;
1441975277155876;-0.7813720703125;0.298095703125;-0.53387451171875;-0.12518310546875;2.4652408408169233;0.8550186948446075;6.36103564619107;0.85888671875;-0.134765625;-0.56982421875;-39.0625;4.9375;22.875;
1441975277179878;-0.78021240234375;0.3045654296875;-0.5313720703125;-0.12744140625;2.494488780478584;0.8606222139486694;6.316304123842571;0.89208984375;-0.1767578125;-0.55517578125;-41.875;2.3125;20.3125;
1441975277209879;-0.77960205078125;0.30938720703125;-0.52923583984375;-0.128173828125;2.5246624093312846;0.8705666978317621;6.280890052475281;0.89111328125;-0.2216796875;-0.5166015625;-37.0;-0.875;15.75;
1441975277223880;-0.77960205078125;0.31219482421875;-0.52777099609375;-0.127685546875;2.5505188621359256;0.8816527613063294;6.258738036062133;0.83984375;-0.24169921875;-0.486328125;-24.75;-3.0625;11.0625;
1441975277239881;-0.78009033203125;0.31329345703125;-0.52667236328125;-0.12664794921875;2.5716196784731475;0.8882763665488083;6.251065252545068;0.7958984375;-0.2021484375;-0.46875;-10.4375;-2.6875;7.3125;
1441975277252882;-0.78106689453125;0.313232421875;-0.52545166015625;-0.12579345703125;2.5902609689073843;0.8839152654280329;6.258709427044972;0.7294921875;-0.1396484375;-0.46923828125;-0.0625;-0.6875;4.1875;
1441975277275883;-0.7823486328125;0.3125;-0.52398681640625;-0.12554931640625;2.6064009952870286;0.8675912853850539;6.278640316622183;0.6962890625;-0.083984375;-0.47998046875;4.5625;0.0;1.0;
1441975277297884;-0.78369140625;0.31121826171875;-0.5225830078125;-0.1260986328125;2.6161417521680184;0.8413061807732575;6.307733013129505;0.728515625;-0.0478515625;-0.49560546875;4.75;-0.5;-2.25;
1441975277315885;-0.7850341796875;0.3096923828125;-0.521240234375;-0.12725830078125;2.6215592946718704;0.8085858737442049;6.341897830271375;0.80712890625;-0.03564453125;-0.490234375;3.125;-1.5;-5.8125;
1441975277338887;-0.7862548828125;0.30810546875;-0.5198974609375;-0.12890625;2.62406294246799;0.7716293855600458;6.378452441171324;0.84765625;-0.041015625;-0.466796875;0.875;-2.8125;-8.9375;
1441975277357888;-0.7874755859375;0.30615234375;-0.51873779296875;-0.13079833984375;2.622890532952246;0.7314433820398687;6.41895978000988;0.88134765625;-0.04541015625;-0.43896484375;-1.9375;-4.3125;-10.75;
1441975277372889;-0.78887939453125;0.3035888671875;-0.51763916015625;-0.13262939453125;2.6206863486610463;0.6879845662986436;6.465710557543567;0.90576171875;-0.06201171875;-0.41064453125;-2.5625;-5.375;-14.0;
1441975277395890;-0.79083251953125;0.300048828125;-0.516357421875;-0.13409423828125;2.6216938666608054;0.6392947191611037;6.5234727563495145;0.9169921875;-0.078125;-0.39990234375;-0.9375;-6.875;-18.5;
1441975277419891;-0.7933349609375;0.29547119140625;-0.514892578125;-0.1348876953125;2.6274695999427284;0.5881815393269624;6.590887494138955;0.9052734375;-0.1064453125;-0.37158203125;2.5;-10.125;-25.1875;
1441975277432892;-0.79632568359375;0.2899169921875;-0.51318359375;-0.13623046875;2.6334218521385595;0.5233220566761106;6.67405802005918;0.89892578125;-0.12353515625;-0.36328125;7.6875;-13.625;-30.875;
1441975277455893;-0.799560546875;0.28387451171875;-0.510986328125;-0.1383056640625;2.642123828198557;0.4456214119984778;6.768793579589757;0.92138671875;-0.078125;-0.36083984375;9.375;-15.5625;-35.375;
1441975277477895;-0.802978515625;0.2777099609375;-0.50823974609375;-0.14111328125;2.6557919787780855;0.35755420000655574;6.871017785195971;0.95556640625;-0.0419921875;-0.3896484375;7.625;-16.3125;-38.8125;
1441975277492895;-0.8065185546875;0.271240234375;-0.50531005859375;-0.1439208984375;2.6737976278588773;0.26761274990482425;6.976258826298388;0.96923828125;-0.0283203125;-0.39599609375;4.125;-18.75;-42.125;
1441975277515897;-0.80999755859375;0.26446533203125;-0.50262451171875;-0.1463623046875;2.692710683674955;0.1819622959694089;7.080117418138748;0.94677734375;-0.03125;-0.3798828125;4.125;-19.9375;-44.75;
