1441975604388593;0.3409423828125;-0.61346435546875;-0.71209716796875;-0.019775390625;12.065076488098033;13.450405401139971;1.348368015025014;-0.35546875;0.7705078125;0.08544921875;28.75;1.875;36.5;
1441975604402594;0.3377685546875;-0.619140625;-0.70880126953125;-0.01617431640625;11.992118466395864;13.48268745396183;1.3567241199648878;-0.419921875;0.78515625;0.044921875;35.0;7.125;31.875;
1441975604425595;0.33477783203125;-0.6192626953125;-0.710205078125;-0.0113525390625;11.931046965231518;13.470572588003241;1.3596028835322;-0.4248046875;0.91015625;-0.01953125;26.625;5.8125;30.8125;
1441975604448596;0.33123779296875;-0.61712646484375;-0.7137451171875;-0.006103515625;11.870866830351547;13.438245164829016;1.357051344403986;-0.39892578125;0.896484375;0.07080078125;-9.875;4.625;23.875;
1441975604462597;0.32666015625;-0.61712646484375;-0.7159423828125;-0.001708984375;11.802058303253935;13.4187902306441;1.3496705163565481;-0.43310546875;0.8583984375;0.09716796875;-26.5;-0.1875;27.625;
1441975604485598;0.3212890625;-0.62139892578125;-0.714599609375;3.0517578125E-4;11.730966678631878;13.43135420454097;1.3367661271608653;-0.41357421875;0.77294921875;0.15185546875;-7.6875;-3.1875;34.375;
1441975604508600;0.31707763671875;-0.6273193359375;-0.7113037109375;0.00103759765625;11.672863159022251;13.461874222523297;1.3277429165639916;-0.3876953125;0.796875;0.1357421875;25.625;-8.3125;33.75;
1441975604529601;0.31494140625;-0.62908935546875;-0.710693359375;0.00262451171875;11.638090027015068;13.467541246138147;1.3258537063669151;-0.36328125;0.81640625;0.0439453125;36.875;-7.4375;25.875;
1441975604545602;0.314453125;-0.626220703125;-0.71343994140625;0.0047607421875;11.627635008849511;13.44253502496707;1.3268363309095659;-0.38037109375;0.9169921875;0.04736328125;8.75;-0.875;12.75;
1441975604568603;0.31390380859375;-0.62255859375;-0.71685791015625;0.00689697265625;11.619581340774973;13.411175096689076;1.3262385033639243;-0.4482421875;0.89599609375;0.05810546875;-22.8125;1.875;5.4375;
1441975604589604;0.3131103515625;-0.62127685546875;-0.71832275390625;0.0087890625;11.603175026848428;13.397830616160586;1.3275528600422914;-0.43310546875;0.802734375;0.08544921875;-27.375;1.3125;6.3125;
1441975604605605;0.3123779296875;-0.6226806640625;-0.7174072265625;0.009521484375;11.586893336837065;13.406218307598708;1.3291583517025614;-0.41015625;0.80029296875;0.078125;-10.75;2.375;9.4375;
1441975604628607;0.311279296875;-0.6239013671875;-0.716796875;0.01031494140625;11.568063825431805;13.411759074558141;1.328758206357675;-0.4248046875;0.861328125;0.0576171875;9.1875;2.125;8.625;
1441975604649608;0.31036376953125;-0.62408447265625;-0.717041015625;0.01165771484375;11.549911848216786;13.409609603236447;1.329730628309697;-0.43408203125;0.89501953125;0.033203125;6.3125;-0.4375;9.375;
1441975604664609;0.30902099609375;-0.6243896484375;-0.71728515625;0.01385498046875;11.52133928799623;13.407104345619578;1.332324243516795;-0.41357421875;0.89404296875;4.8828125E-4;-4.375;-0.3125;8.25;
1441975604688610;0.3074951171875;-0.6251220703125;-0.71728515625;0.0157470703125;11.492321629014498;13.40706926427297;1.3333297075666508;-0.3837890625;0.86962890625;-0.01806640625;-6.75;0.5625;12.8125;
1441975604702611;0.3056640625;-0.6273193359375;-0.716064453125;0.01715087890625;11.459687079870587;13.417811530687002;1.333278933666905;-0.3642578125;0.83837890625;-0.0107421875;-2.5;-0.8125;12.875;
1441975604725612;0.303466796875;-0.6304931640625;-0.71417236328125;0.018798828125;11.418890054449145;13.434729008761229;1.3337568036261604;-0.3583984375;0.81396484375;-0.0322265625;7.0;-2.25;15.25;
1441975604748613;0.30126953125;-0.63348388671875;-0.71240234375;0.02178955078125;11.367953352528563;13.4501789903622;1.339315548693991;-0.3388671875;0.859375;-0.01904296875;14.1875;-1.0625;17.5;
1441975604769615;0.30010986328125;-0.635009765625;-0.71142578125;0.0263671875;11.317094000692723;13.457877916603868;1.3543390881256177;-0.30859375;0.89404296875;-0.0234375;10.5625;3.625;19.9375;
1441975604785616;0.3011474609375;-0.63372802734375;-0.71185302734375;0.0316162109375;11.287112003658976;13.452013699130426;1.379354230650665;-0.2529296875;0.89306640625;-0.0087890625;0.375;12.75;17.3125;
1441975604808617;0.30426025390625;-0.630126953125;-0.71368408203125;0.03350830078125;11.308039928581833;13.435124503339477;1.3976615664644731;-0.25830078125;0.8662109375;0.02099609375;-15.5;23.25;8.3125;
1441975604830618;0.30767822265625;-0.6248779296875;-0.71685791015625;0.03228759765625;11.362476307797078;13.40684258868753;1.4023394823626953;-0.43359375;0.82568359375;0.044921875;-22.25;17.375;-4.9375;
1441975604845619;0.31109619140625;-0.621826171875;-0.7181396484375;0.0306396484375;11.4121325505543;13.39573204078841;1.4084534722652153;-0.52783203125;0.75439453125;0.13720703125;-22.75;7.9375;-14.375;
1441975604868620;0.31500244140625;-0.62005615234375;-0.71795654296875;0.03009033203125;11.451771139669082;13.39711374457304;1.4238653728358508;-0.4296875;0.73486328125;0.11279296875;-8.25;8.8125;-18.1875;
1441975604889621;0.3194580078125;-0.6182861328125;-0.717529296875;0.0301513671875;11.490527513251315;13.400728709909352;1.444723729831801;-0.375;0.83544921875;0.111328125;0.375;16.9375;-19.75;
1441975604905622;0.324462890625;-0.61309814453125;-0.7196044921875;0.03192138671875;11.532939012102895;13.380527656238478;1.4702917463757945;-0.41015625;0.97265625;0.07861328125;-2.375;20.8125;-21.5;
1441975604928624;0.329833984375;-0.60491943359375;-0.72393798828125;0.03497314453125;11.580024482022177;13.338938968947465;1.4982073477003424;-0.4541015625;0.93408203125;0.04638671875;-30.5;24.125;-19.625;
1441975604949625;0.33447265625;-0.59796142578125;-0.72747802734375;0.03790283203125;11.61852030916549;13.304390480771136;1.523733974017111;-0.43701171875;0.86181640625;0.076171875;-52.125;27.3125;-21.0625;
1441975604965626;0.33978271484375;-0.59271240234375;-0.7291259765625;0.04071044921875;11.65648661610501;13.286747880336062;1.5554907682111707;-0.40185546875;0.85888671875;0.12646484375;-41.375;25.9375;-19.3125;
1441975604988627;0.34588623046875;-0.586669921875;-0.73095703125;0.044189453125;11.698614568177614;13.266902402503327;1.59314660419351;-0.35986328125;0.80810546875;0.0869140625;-30.0;30.8125;-19.625;
1441975605009628;0.35235595703125;-0.58087158203125;-0.73223876953125;0.04791259765625;11.74089715418655;13.251528817818459;1.634624868669061;-0.36328125;0.822265625;0.0888671875;-35.375;36.1875;-22.0;
1441975605025629;0.3580322265625;-0.5748291015625;-0.73394775390625;0.05218505859375;11.774585290558514;13.231633310064845;1.6739599073990166;-0.40869140625;0.8671875;0.03857421875;-36.9375;37.375;-20.6875;
1441975605048631;0.36248779296875;-0.57049560546875;-0.73492431640625;0.055419921875;11.800483824970778;13.219472993819235;1.70514897928936;-0.4140625;0.83740234375;0.0400390625;-40.5625;35.25;-15.625;
1441975605069632;0.365234375;-0.5692138671875;-0.73443603515625;0.05682373046875;11.814994714029096;13.222670214125397;1.7243591958811946;-0.3935546875;0.81201171875;0.02880859375;-29.8125;27.125;-12.625;
1441975605085633;0.3660888671875;-0.57098388671875;-0.73260498046875;0.057373046875;11.808997415925939;13.240008036685001;1.7345212675856434;-0.435546875;0.822265625;0.046875;-8.125;16.625;-6.0;
1441975605109634;0.36639404296875;-0.573486328125;-0.73040771484375;0.05865478515625;11.789983675185471;13.260494467846835;1.7459892440468492;-0.40771484375;0.82958984375;0.02783203125;9.5625;7.4375;1.5;
1441975605129635;0.3671875;-0.574951171875;-0.72869873046875;0.060546875;11.774165918211704;13.275560975507705;1.7610450562654725;-0.3603515625;0.8671875;0.021484375;12.0625;8.0625;4.25;
1441975605151636;0.36846923828125;-0.57537841796875;-0.72760009765625;0.06195068359375;11.770206374488586;13.28493242184301;1.7749695478572574;-0.3779296875;0.87890625;0.0390625;5.875;11.8125;3.5;
1441975605167637;0.36981201171875;-0.5755615234375;-0.726806640625;0.06158447265625;11.781631459683306;13.292505527922525;1.7812916630451663;-0.4306640625;0.86279296875;0.06201171875;2.8125;12.1875;1.4375;
1441975605189639;0.3699951171875;-0.57421875;-0.72784423828125;0.060791015625;11.795300274928332;13.283071379143372;1.776658066512616;-0.51220703125;0.84765625;0.0693359375;5.125;5.8125;-1.5;
1441975605205640;0.369140625;-0.57232666015625;-0.729736328125;0.06097412109375;11.796488659411486;13.264884947749021;1.7694357905517297;-0.52734375;0.8701171875;0.11376953125;-4.1875;-2.3125;-3.1875;
1441975605227641;0.3690185546875;-0.5712890625;-0.73052978515625;0.0616455078125;11.795085126085162;13.256713624657095;1.769928903296653;-0.453125;0.81494140625;0.1650390625;-8.875;-2.875;0.125;
1441975605258643;0.37030029296875;-0.571044921875;-0.7301025390625;0.0618896484375;11.803340998971194;13.260657147477236;1.7776638858445883;-0.43310546875;0.78759765625;0.15576171875;-2.8125;3.0;1.375;
1441975605265643;0.37225341796875;-0.57025146484375;-0.729736328125;0.0618896484375;11.820702616743336;13.263791313988559;1.7873439215283369;-0.45703125;0.79248046875;0.109375;2.8125;8.1875;-1.4375;
1441975605287644;0.37432861328125;-0.569091796875;-0.72955322265625;0.06170654296875;11.842001457054804;13.264994619503728;1.7964670720596412;-0.4892578125;0.7939453125;0.09521484375;0.4375;10.0;-4.0;
1441975605310646;0.37615966796875;-0.56817626953125;-0.72943115234375;0.060546875;11.868119871297207;13.266551705199461;1.8003408335048845;-0.484375;0.7900390625;0.0927734375;-1.5;9.5;-6.75;
1441975605325646;0.37713623046875;-0.56939697265625;-0.7281494140625;0.0584716796875;11.885563883224451;13.280072150254709;1.7991682026310194;-0.51416015625;0.740234375;0.13134765625;4.1875;6.375;-6.1875;
1441975605347648;0.37799072265625;-0.57275390625;-0.72528076171875;0.05548095703125;11.89946716902007;13.309288177185369;1.7973174498697866;-0.50927734375;0.7265625;0.12939453125;18.625;1.375;-2.1875;
1441975605370649;0.3787841796875;-0.57659912109375;-0.7220458984375;0.05181884765625;11.916010487409432;13.342149832792298;1.7933742495942777;-0.49609375;0.7900390625;0.08740234375;32.25;0.0625;-3.5;
1441975605391650;0.3795166015625;-0.5789794921875;-0.7200927734375;0.04693603515625;11.948731587532839;13.363410123545176;1.781418992002624;-0.48583984375;0.81689453125;0.0458984375;34.75;-3.0625;-6.6875;
1441975605407651;0.37982177734375;-0.581787109375;-0.71807861328125;0.041259765625;11.983045567232587;13.385722826223814;1.7644903605725233;-0.52392578125;0.77099609375;0.05517578125;28.1875;-9.375;-11.75;
1441975605430652;0.37994384765625;-0.58489990234375;-0.7158203125;0.034423828125;12.024173816966183;13.410062509092645;1.7427168005173816;-0.51953125;0.76513671875;0.048828125;31.9375;-13.625;-12.875;
1441975605451654;0.3802490234375;-0.58837890625;-0.713134765625;0.0262451171875;12.075970100661706;13.438418863784749;1.7175448915344647;-0.4794921875;0.75537109375;0.02880859375;35.5;-17.6875;-18.8125;
1441975605467655;0.38104248046875;-0.5924072265625;-0.709716796875;0.01641845703125;12.142323904366126;13.473723332276478;1.6900391527013023;-0.470703125;0.779296875;0.0341796875;42.125;-20.625;-26.25;
1441975605490656;0.3817138671875;-0.59552001953125;-0.7069091796875;0.00732421875;12.20652641986662;13.501944691252344;1.6636574021829875;-0.4912109375;0.82080078125;-4.8828125E-4;48.875;-23.4375;-34.0;
1441975605511657;0.38262939453125;-0.59710693359375;-0.705078125;-1.220703125E-4;12.266127175688922;13.519758271243262;1.6427656754102762;-0.5263671875;0.875;-0.0322265625;40.1875;-23.625;-33.6875;
1441975605527658;0.38323974609375;-0.598388671875;-0.70361328125;-0.00762939453125;12.325708188988601;13.53361264153066;1.6192538527598994;-0.5244140625;0.8447265625;-0.0576171875;26.0625;-19.4375;-30.875;
1441975605550659;0.38311767578125;-0.59918212890625;-0.702880859375;-0.01556396484375;12.386084128081903;13.53972257007193;1.5884530786877398;-0.54248046875;0.8193359375;-0.06591796875;23.0;-22.3125;-29.1875;
1441975605571660;0.38226318359375;-0.6002197265625;-0.70220947265625;-0.023681640625;12.442027860729686;13.54420848437537;1.5530098264225198;-0.53466796875;0.82958984375;-0.0517578125;20.875;-27.8125;-31.4375;
1441975605587661;0.38116455078125;-0.600341796875;-0.702392578125;-0.0321044921875;12.502642441422028;13.53956708874654;1.512458725612317;-0.50439453125;0.8193359375;-0.06494140625;21.3125;-31.9375;-30.8125;
1441975605610663;0.3790283203125;-0.60272216796875;-0.7010498046875;-0.040771484375;12.548872909563286;13.54856465726358;1.4699822227622437;-0.51708984375;0.822265625;-0.021484375;18.125;-34.125;-33.25;
1441975605631664;0.37591552734375;-0.6046142578125;-0.7005615234375;-0.04840087890625;12.581935635921992;13.548552054301952;1.4243580473007906;-0.52001953125;0.8447265625;-0.0546875;31.0;-36.75;-27.5625;
1441975605647665;0.3720703125;-0.6063232421875;-0.70062255859375;-0.05633544921875;12.61294742559478;13.54262552251311;1.37204531406056;-0.529296875;0.86181640625;-0.04150390625;25.0625;-38.4375;-21.125;
1441975605678667;0.36749267578125;-0.60906982421875;-0.69989013671875;-0.064697265625;12.638373142543106;13.542647662083025;1.3165010157329609;-0.541015625;0.822265625;-0.02490234375;24.0625;-43.4375;-18.3125;
1441975605691667;0.36273193359375;-0.61181640625;-0.69921875;-0.07257080078125;12.658523191625143;13.541813930793111;1.2617884167656102;-0.52294921875;0.8095703125;-0.0400390625;31.3125;-46.25;-16.1875;
1441975605715669;0.3572998046875;-0.61572265625;-0.69781494140625;-0.079345703125;12.66094204256642;13.548309770572649;1.2107767284869417;-0.51123046875;0.76611328125;-0.052734375;29.5625;-45.6875;-12.6875;
1441975605730670;0.35107421875;-0.62042236328125;-0.69610595703125;-0.0853271484375;12.648660371050804;13.558199577132811;1.1603904111253978;-0.50244140625;0.79248046875;-0.06005859375;34.1875;-43.125;-5.75;
1441975605753671;0.34515380859375;-0.62371826171875;-0.695556640625;-0.09002685546875;12.632861369351652;13.557790879302667;1.1134609768309687;-0.48046875;0.81396484375;-0.06396484375;37.1875;-42.375;-0.0625;
1441975605767672;0.339111328125;-0.62646484375;-0.695556640625;-0.09423828125;12.613833590496702;13.55240661698195;1.0664733758432319;-0.47119140625;0.8154296875;-0.064453125;24.9375;-39.6875;1.3125;
1441975605790673;0.33331298828125;-0.6287841796875;-0.69573974609375;-0.09759521484375;12.590931411862234;13.545586508731313;1.0238672385841423;-0.4990234375;0.83056640625;-0.04541015625;20.625;-39.1875;4.125;
1441975605811674;0.32763671875;-0.63140869140625;-0.6956787109375;-0.1004638671875;12.563911991358156;13.542160273182333;0.9849350433942767;-0.466796875;0.8076171875;-0.04150390625;16.5625;-35.5625;5.3125;
1441975605827675;0.322265625;-0.63385009765625;-0.695556640625;-0.10333251953125;12.539753035040253;13.539163595520602;0.9476783594954048;-0.47021484375;0.794921875;-0.05029296875;17.375;-33.0625;8.1875;
1441975605850676;0.3172607421875;-0.63604736328125;-0.69537353515625;-0.1064453125;12.52109603844146;13.536238080388461;0.9112435849613865;-0.4873046875;0.8056640625;-0.0322265625;17.3125;-31.0;7.8125;
1441975605873678;0.312255859375;-0.63824462890625;-0.69512939453125;-0.1094970703125;12.501963081427613;13.533809646363206;0.8753078134955692;-0.4912109375;0.77587890625;-0.01611328125;17.625;-29.8125;6.3125;
1441975605887679;0.30694580078125;-0.64117431640625;-0.6943359375;-0.112548828125;12.478667409256536;13.53680020838548;0.8397093155440367;-0.5009765625;0.755859375;0.00830078125;19.0625;-28.6875;8.125;
1441975605910680;0.30157470703125;-0.644775390625;-0.69287109375;-0.11566162109375;12.454005904690128;13.546023754577632;0.8055664092960807;-0.51318359375;0.7646484375;0.017578125;25.125;-28.125;10.8125;
1441975605933681;0.29656982421875;-0.6483154296875;-0.69110107421875;-0.11895751953125;12.434272595351391;13.557232917306829;0.7730452416799283;-0.529296875;0.78466796875;0.0068359375;29.6875;-27.0;12.0625;
1441975605947682;0.29205322265625;-0.65155029296875;-0.68939208984375;-0.12255859375;12.42171664675096;13.567663211759628;0.7412241131881881;-0.54443359375;0.79296875;-0.00927734375;30.0625;-26.5;10.4375;
1441975605970683;0.2879638671875;-0.65447998046875;-0.687744140625;-0.12567138671875;12.409455436794026;13.577779815266481;0.7132853977530159;-0.55615234375;0.775390625;-0.00634765625;29.0;-25.625;8.8125;
1441975605991684;0.284423828125;-0.6571044921875;-0.68621826171875;-0.12835693359375;12.398744100427196;13.587463817129425;0.6894217294719699;-0.5439453125;0.77099609375;9.765625E-4;27.1875;-22.0625;7.625;
1441975606007685;0.2816162109375;-0.65887451171875;-0.68524169921875;-0.130615234375;12.39207873958482;13.592558659289985;0.6692161497113341;-0.53564453125;0.783203125;0.00439453125;24.375;-18.5;6.5;
1441975606031687;0.27960205078125;-0.6597900390625;-0.68487548828125;-0.1324462890625;12.38972148126001;13.59286259338865;0.65284292063488;-0.5546875;0.78515625;0.01123046875;18.5625;-15.4375;5.25;
1441975606051688;0.27838134765625;-0.6602783203125;-0.68463134765625;-0.13385009765625;12.390919357985684;13.592612769298052;0.6416138974484428;-0.5654296875;0.77880859375;0.015625;11.8125;-11.75;4.0;
1441975606067689;0.27777099609375;-0.6605224609375;-0.6844482421875;-0.13494873046875;12.394812270410501;13.592439701805143;0.6343696942652246;-0.5595703125;0.7666015625;0.01513671875;8.125;-7.6875;2.4375;
1441975606089690;0.2777099609375;-0.6605224609375;-0.684326171875;-0.13568115234375;12.400461640413202;13.59227659970843;0.6310813077656904;-0.56787109375;0.7744140625;0.0146484375;6.375;-4.5;0.6875;
1441975606113691;0.2781982421875;-0.66009521484375;-0.6844482421875;-0.1361083984375;12.40868710172245;13.590373851140379;0.6309633644696577;-0.57080078125;0.78173828125;9.765625E-4;3.125;-1.625;-0.25;
1441975606128692;0.27899169921875;-0.65972900390625;-0.6844482421875;-0.13623046875;12.416659863709635;13.59020192000056;0.6339724851626125;-0.56298828125;0.76953125;-0.00146484375;-0.5;0.625;-1.625;
1441975606149694;0.2802734375;-0.65924072265625;-0.684326171875;-0.13629150390625;12.428281588632828;13.591107949206746;0.6397725299854777;-0.5478515625;0.7822265625;-0.013671875;-1.25;2.875;-3.0625;
1441975606173695;0.28204345703125;-0.65826416015625;-0.68450927734375;-0.13641357421875;12.445110300131464;13.589292456048323;0.6466657466881769;-0.556640625;0.791015625;-0.029296875;-2.75;4.25;-5.1875;
1441975606195696;0.2840576171875;-0.6571044921875;-0.684814453125;-0.13653564453125;12.464151025707729;13.586577698826352;0.6543561315846582;-0.5634765625;0.79443359375;-0.0361328125;-6.375;5.0;-7.5;
1441975606209697;0.28607177734375;-0.65625;-0.68475341796875;-0.13671875;12.48321818799788;13.58698663934859;0.6627961622379361;-0.56689453125;0.76904296875;-0.0380859375;-7.875;5.5625;-7.6875;
1441975606233698;0.28765869140625;-0.65594482421875;-0.684326171875;-0.13702392578125;12.49886375771787;13.590689913060755;0.6698501847504917;-0.56201171875;0.748046875;-0.03857421875;-5.3125;5.875;-7.1875;
1441975606247699;0.28912353515625;-0.65582275390625;-0.68377685546875;-0.13726806640625;12.512678575575412;13.595641955584998;0.6770122481329774;-0.5595703125;0.75634765625;-0.03369140625;-1.1875;5.1875;-6.4375;
1441975606270700;0.2904052734375;-0.65533447265625;-0.6837158203125;-0.13720703125;12.523206405871743;13.596477362462206;0.6833092626871343;-0.55615234375;0.76904296875;-0.0498046875;-0.3125;4.8125;-6.125;
1441975606293702;0.29168701171875;-0.654541015625;-0.68389892578125;-0.13726806640625;12.535396897109013;13.59465592536879;0.6882941802682621;-0.55029296875;0.77685546875;-0.048828125;-4.1875;4.0625;-5.75;
1441975606307703;0.2928466796875;-0.6541748046875;-0.6837158203125;-0.13739013671875;12.546283444308738;13.596247777829602;0.6935549873000542;-0.541015625;0.7587890625;-0.0341796875;-5.125;3.4375;-5.9375;
1441975606329704;0.2940673828125;-0.65399169921875;-0.683349609375;-0.1376953125;12.55872707906996;13.59954079699439;0.6988669964972697;-0.53369140625;0.759765625;-0.03955078125;-2.375;3.5;-6.1875;
1441975606360706;0.2950439453125;-0.65399169921875;-0.68280029296875;-0.13812255859375;12.570026245873358;13.60395107493106;0.7029900390048017;-0.53857421875;0.7666015625;-0.04541015625;-0.75;3.25;-6.75;
1441975606375706;0.29583740234375;-0.65411376953125;-0.6822509765625;-0.13848876953125;12.57908340452268;13.608584783675358;0.706596363051074;-0.5390625;0.7646484375;-0.04541015625;1.0;2.4375;-6.5625;
1441975606390707;0.29644775390625;-0.654296875;-0.6817626953125;-0.13897705078125;12.587504909843842;13.612695884561747;0.7086840875015721;-0.53369140625;0.763671875;-0.0458984375;1.4375;1.8125;-5.8125;
1441975606413709;0.296875;-0.654541015625;-0.68121337890625;-0.1395263671875;12.594979437726417;13.61694403893575;0.709779804049519;-0.53857421875;0.767578125;-0.04541015625;2.0;1.0625;-5.0625;
1441975606427709;0.29705810546875;-0.65472412109375;-0.68084716796875;-0.1400146484375;12.600150911957803;13.619541348440793;0.7094823816475095;-0.5478515625;0.77099609375;-0.044921875;2.6875;-0.125;-4.5625;
1441975606449711;0.2969970703125;-0.65496826171875;-0.68060302734375;-0.140380859375;12.60219298791252;13.62138505527973;0.7082976720484275;-0.55322265625;0.7734375;-0.04296875;2.25;-0.875;-3.0625;
1441975606463711;0.2967529296875;-0.6553955078125;-0.68017578125;-0.14068603515625;12.602062293506192;13.624620698117878;0.7070238401472835;-0.55078125;0.771484375;-0.03173828125;2.4375;-0.9375;-1.625;
1441975606486713;0.29638671875;-0.656005859375;-0.67974853515625;-0.140869140625;12.5994343614434;13.628515693036524;0.7058429841323839;-0.5546875;0.7724609375;-0.03076171875;4.1875;-1.0;-0.5;
1441975606501714;0.29595947265625;-0.65618896484375;-0.6796875;-0.14093017578125;12.596325492480414;13.6286628028073;0.703725740890795;-0.55908203125;0.79541015625;-0.03857421875;4.4375;-1.125;0.125;
1441975606525715;0.29559326171875;-0.6561279296875;-0.67999267578125;-0.1409912109375;12.593961588510368;13.626025647632229;0.7009129604255799;-0.5546875;0.79931640625;-0.0400390625;1.125;-1.8125;0.25;
1441975606546716;0.29522705078125;-0.65618896484375;-0.6800537109375;-0.14111328125;12.592026279568428;13.625098893399867;0.6984630390210841;-0.55078125;0.77490234375;-0.02490234375;-0.5;-1.9375;0.4375;
1441975606561717;0.29486083984375;-0.6563720703125;-0.67999267578125;-0.14105224609375;12.588362861910488;13.625490990637092;0.6971950057158142;-0.552734375;0.7666015625;-0.025390625;0.8125;-1.375;0.8125;
1441975606583718;0.2947998046875;-0.6563720703125;-0.6800537109375;-0.1409912109375;12.58734033689067;13.62511087043146;0.6970298123303051;-0.5478515625;0.7802734375;-0.02099609375;1.8125;-0.625;1.0625;
1441975606607720;0.29461669921875;-0.65606689453125;-0.68048095703125;-0.14080810546875;12.584964781312037;13.621398556052519;0.6957403994386386;-0.55322265625;0.7802734375;-0.0224609375;0.8125;-0.5;0.4375;
1441975606621721;0.29449462890625;-0.6556396484375;-0.68096923828125;-0.14056396484375;12.58286041712807;13.6170267950889;0.6947886921360917;-0.5517578125;0.77880859375;-0.0224609375;-2.3125;-0.5;0.8125;
1441975606651722;0.29443359375;-0.6553955078125;-0.6812744140625;-0.140380859375;12.581327885659572;13.614456704067322;0.6944273151387826;-0.55126953125;0.7666015625;-0.01416015625;-3.0;-0.0625;0.8125;
1441975606666723;0.29443359375;-0.6551513671875;-0.68157958984375;-0.1400146484375;12.578751388306387;13.612182603436166;0.6951836918195102;-0.55859375;0.75927734375;-0.021484375;-1.6875;0.25;1.25;
1441975606681724;0.29437255859375;-0.6549072265625;-0.6820068359375;-0.139404296875;12.57358080404065;13.609391825128851;0.6964614568619133;-0.5615234375;0.75390625;-0.02099609375;-2.4375;0.875;2.3125;
1441975606703725;0.29425048828125;-0.654541015625;-0.68243408203125;-0.13897705078125;12.569872924265205;13.605766098213815;0.6965150089168244;-0.55615234375;0.76513671875;-0.033203125;-3.6875;0.75;2.75;
1441975606734727;0.2940673828125;-0.6541748046875;-0.68292236328125;-0.1387939453125;12.567609239230068;13.601488661920763;0.6950551352775424;-0.55712890625;0.765625;-0.04150390625;-4.4375;-0.3125;2.25;
1441975606749728;0.29339599609375;-0.65423583984375;-0.68304443359375;-0.13934326171875;12.566815326049673;13.599240875101717;0.6890730565712555;-0.56494140625;0.75341796875;-0.0400390625;-4.0625;-1.5;2.3125;
1441975606763729;0.2913818359375;-0.65643310546875;-0.68133544921875;-0.14166259765625;12.566088920050033;13.611161452657349;0.6743399152609558;-0.5830078125;0.73291015625;-0.03125;0.9375;-5.1875;3.75;
1441975606786730;0.28668212890625;-0.6595458984375;-0.679443359375;-0.14581298828125;12.558116467544925;13.62078420307619;0.6393371259242323;-0.6005859375;0.7197265625;-0.07763671875;17.3125;-14.0;5.5;
1441975606809731;0.279541015625;-0.664794921875;-0.67572021484375;-0.153076171875;12.553770326904242;13.641091392165887;0.5841591522994355;-0.6044921875;0.75537109375;-0.06884765625;28.1875;-29.4375;8.9375;
1441975606823732;0.26959228515625;-0.67041015625;-0.67230224609375;-0.16119384765625;12.53498213476936;13.655150820826568;0.5110041962842395;-0.6201171875;0.6845703125;-0.17529296875;44.0625;-50.1875;11.4375;
1441975606863734;0.2564697265625;-0.6781005859375;-0.66778564453125;-0.16912841796875;12.487766756545865;13.678377104604811;0.4273495303514269;-0.60546875;0.7001953125;-0.1220703125;51.5;-62.1875;18.375;
1441975606869735;0.24169921875;-0.68603515625;-0.66339111328125;-0.1759033203125;12.419297533513715;13.701140891957307;0.34103266240902924;-0.55126953125;0.7783203125;-0.10302734375;68.25;-69.375;28.0;
1441975606883736;0.2271728515625;-0.6923828125;-0.6605224609375;-0.1810302734375;12.341883513782532;13.712774507028351;0.25923918607600455;-0.52099609375;0.86083984375;-0.07666015625;71.0;-69.375;35.125;
1441975606906737;0.2144775390625;-0.69525146484375;-0.66064453125;-0.1849365234375;12.27194877261864;13.700112151124438;0.18357633104661197;-0.4873046875;0.85595703125;-0.041015625;58.3125;-64.5;38.75;
1441975606929738;0.203857421875;-0.6934814453125;-0.66497802734375;-0.1883544921875;12.21598761696841;13.651656109520598;0.10910903734612325;-0.48193359375;0.91064453125;0.00146484375;32.5;-58.8125;33.125;
1441975606952739;0.1943359375;-0.68951416015625;-0.67095947265625;-0.19171142578125;12.167410614345211;13.588385790594657;0.036127241678664816;-0.51611328125;0.921875;0.1201171875;1.5625;-54.9375;28.1875;
1441975606966740;0.18536376953125;-0.6845703125;-0.67755126953125;-0.19476318359375;12.11876542319439;13.520051879385393;17.966059556847917;-0.5126953125;0.830078125;0.1376953125;-14.875;-54.75;26.9375;
1441975606997742;0.17742919921875;-0.68310546875;-0.680419921875;-0.19757080078125;12.075145509636542;13.48702989098382;17.911803833469083;-0.5107421875;0.78857421875;0.228515625;-17.875;-50.8125;27.3125;
1441975607012743;0.1719970703125;-0.68243408203125;-0.68231201171875;-0.19818115234375;12.034061173843478;13.468381854924836;17.881512589323975;-0.4521484375;0.76123046875;0.16162109375;4.375;-40.5625;21.9375;
1441975607026744;0.1705322265625;-0.67919921875;-0.68621826171875;-0.1968994140625;12.009820126301598;13.43618369225086;17.87221268951543;-0.44970703125;0.888671875;0.1103515625;2.75;-22.6875;16.0;
1441975607057745;0.17340087890625;-0.671630859375;-0.69329833984375;-0.195556640625;12.020465825676629;13.374835889206729;17.873222378139467;-0.4619140625;0.91748046875;0.0595703125;-24.9375;-6.875;7.5625;
1441975607063746;0.17864990234375;-0.661865234375;-0.7012939453125;-0.1956787109375;12.063418546913244;13.299680411062173;17.87354272961923;-0.47021484375;0.86181640625;0.05615234375;-60.875;1.75;-7.25;
1441975607087747;0.1844482421875;-0.65277099609375;-0.7080078125;-0.19683837890625;12.120380770876682;13.232073898777594;17.872966372080434;-0.50732421875;0.78662109375;0.05517578125;-75.25;1.3125;-18.875;
1441975607117749;0.19024658203125;-0.64495849609375;-0.7130126953125;-0.1988525390625;12.185354148445514;13.176356591070213;17.87124397784404;-0.51708984375;0.74755859375;0.03515625;-69.4375;0.0625;-24.9375;
1441975607123749;0.19525146484375;-0.63995361328125;-0.71563720703125;-0.20086669921875;12.244364959977666;13.143306280308407;17.87236728457226;-0.54296875;0.7197265625;0.04150390625;-57.125;0.0;-26.8125;
1441975607147751;0.19964599609375;-0.63726806640625;-0.71624755859375;-0.20263671875;12.297255523613009;13.129834842413853;17.87764920799958;-0.560546875;0.73193359375;0.009765625;-38.5625;0.5;-23.8125;
1441975607177752;0.2042236328125;-0.63653564453125;-0.71527099609375;-0.20404052734375;12.34931201291753;13.133681879572157;17.890414047552046;-0.5419921875;0.7412109375;-0.00146484375;-22.0625;3.5625;-22.3125;
1441975607183753;0.2099609375;-0.6353759765625;-0.71429443359375;-0.2052001953125;12.410040172563388;13.137409042073353;17.908872734300274;-0.5126953125;0.755859375;-0.046875;-11.75;8.4375;-24.1875;
1441975607208754;0.21624755859375;-0.63409423828125;-0.713134765625;-0.20648193359375;12.476875192246686;13.142117212406687;17.929353009411837;-0.52294921875;0.748046875;-0.05517578125;-15.3125;13.0;-27.3125;
1441975607229755;0.222412109375;-0.63360595703125;-0.711181640625;-0.208251953125;12.546520746634641;13.15368947041915;17.949468098977988;-0.54541015625;0.72021484375;-0.04443359375;-14.5625;15.375;-28.75;
1441975607243756;0.228271484375;-0.6343994140625;-0.70782470703125;-0.21087646484375;12.620525002298521;13.176554979615757;17.968415344555442;-0.55029296875;0.7080078125;-0.03369140625;-6.6875;15.4375;-30.125;
1441975607266757;0.2333984375;-0.63641357421875;-0.70343017578125;-0.21392822265625;12.691336831365062;13.209002283547798;17.986058498808084;-0.56591796875;0.697265625;-0.04052734375;4.75;14.3125;-32.0;
1441975607289759;0.23797607421875;-0.6387939453125;-0.69879150390625;-0.21697998046875;12.757167535487753;13.244139750666333;0.002847304825662583;-0.56884765625;0.7001953125;-0.0419921875;15.6875;12.6875;-31.25;
1441975607303760;0.24188232421875;-0.6414794921875;-0.6939697265625;-0.22021484375;12.818393551674713;13.280816668300574;0.01705624753744535;-0.55615234375;0.7099609375;-0.04248046875;18.9375;11.9375;-31.1875;
1441975607326761;0.24456787109375;-0.64459228515625;-0.68896484375;-0.22381591796875;12.871802042621292;13.318313945778378;0.025298329782846195;-0.5625;0.73193359375;-0.03759765625;23.0625;9.8125;-30.5625;
1441975607349762;0.24658203125;-0.64739990234375;-0.68450927734375;-0.22711181640625;12.916830456532356;13.351386997499663;0.030867826305465272;-0.57373046875;0.759765625;-0.0205078125;28.5625;5.5;-28.375;
1441975607363763;0.2484130859375;-0.6497802734375;-0.68048095703125;-0.2303466796875;12.959869001002508;13.380286901412322;0.03470588685717867;-0.5673828125;0.7744140625;0.00927734375;27.625;4.25;-25.875;
1441975607386764;0.2498779296875;-0.65216064453125;-0.67657470703125;-0.23358154296875;12.999681543077648;13.408142752223545;0.036834470560074474;-0.578125;0.765625;0.0224609375;25.9375;3.6875;-24.4375;
1441975607409766;0.25054931640625;-0.65496826171875;-0.672607421875;-0.2364501953125;13.029577535269572;13.437832975153562;0.038037373632450286;-0.59326171875;0.751953125;0.0458984375;27.6875;3.3125;-21.875;
1441975607424766;0.25079345703125;-0.65789794921875;-0.66888427734375;-0.23858642578125;13.04962140614801;13.467593178823176;0.04075896970879031;-0.58251953125;0.7646484375;0.0625;31.375;3.5625;-18.3125;
1441975607454768;0.25146484375;-0.65997314453125;-0.66619873046875;-0.23974609375;13.065020006721063;13.490561808031654;0.04713223992805699;-0.57080078125;0.79150390625;0.07373046875;31.3125;5.3125;-15.625;
1441975607469769;0.25262451171875;-0.6612548828125;-0.664306640625;-0.24029541015625;13.07949108373149;13.507688300392457;0.056148366665716376;-0.55712890625;0.77783203125;0.0830078125;23.1875;8.25;-13.6875;
1441975607484770;0.254150390625;-0.66217041015625;-0.66265869140625;-0.24066162109375;13.095640507956123;13.52286266013295;0.06687190265140401;-0.56201171875;0.755859375;0.09228515625;16.25;11.375;-12.375;
1441975607505771;0.25567626953125;-0.66265869140625;-0.66162109375;-0.24041748046875;13.106626384256758;13.53398380912362;0.07874372546882284;-0.59326171875;0.748046875;0.08251953125;12.8125;12.125;-10.8125;
1441975607538773;0.2572021484375;-0.66265869140625;-0.661376953125;-0.2396240234375;13.11263381347222;13.53966543631595;0.09094276242247513;-0.5908203125;0.75341796875;0.0771484375;7.875;12.625;-9.125;
1441975607551774;0.2591552734375;-0.66259765625;-0.6611328125;-0.23822021484375;13.117281522044465;13.547008964223135;0.1082639741284436;-0.599609375;0.77099609375;0.0859375;2.875;13.5;-7.1875;
1441975607566775;0.26153564453125;-0.66192626953125;-0.66162109375;-0.2362060546875;13.1202498924729;13.54954102966165;0.12826017005214194;-0.60302734375;0.73388671875;0.04736328125;-1.125;15.75;-4.6875;
1441975607589776;0.26348876953125;-0.6614990234375;-0.66204833984375;-0.234130859375;13.118953193853956;13.552842786990933;0.14692552912255083;-0.6279296875;0.7158203125;0.0478515625;-7.4375;17.6875;-1.75;
1441975607604777;0.2650146484375;-0.6612548828125;-0.662353515625;-0.23199462890625;13.113731136878114;13.556896419749812;0.1642570156734436;-0.64501953125;0.72412109375;0.0322265625;-6.625;16.5625;0.9375;
1441975607625778;0.26641845703125;-0.66119384765625;-0.66265869140625;-0.22991943359375;13.107470946558658;13.56147063260767;0.18095560506171174;-0.63623046875;0.73388671875;0.0185546875;-5.5625;14.5;1.9375;
1441975607649779;0.26837158203125;-0.66015625;-0.66363525390625;-0.227783203125;13.106110880395164;13.559011544115231;0.19771793320703224;-0.62890625;0.72607421875;-0.0166015625;-6.5;12.4375;2.625;
1441975607663780;0.27008056640625;-0.65899658203125;-0.6646728515625;-0.22601318359375;13.106036959260345;13.554511745584861;0.21109210731201242;-0.63427734375;0.6923828125;-0.00341796875;-13.0;13.3125;2.0;
1441975607685781;0.2708740234375;-0.65911865234375;-0.664794921875;-0.224365234375;13.098420554212405;13.558888860482098;0.2232051178952364;-0.6494140625;0.6845703125;0.00390625;-12.125;10.9375;2.8125;
1441975607709783;0.27130126953125;-0.6595458984375;-0.66473388671875;-0.22283935546875;13.08851095515383;13.564705156626587;0.23369916466335644;-0.6484375;0.6943359375;-0.01416015625;-3.9375;9.125;5.6875;
1441975607731784;0.271484375;-0.66046142578125;-0.66412353515625;-0.22149658203125;13.07799832951301;13.574885667581281;0.24395907866120695;-0.63330078125;0.70849609375;-0.021484375;-1.375;7.75;5.9375;
1441975607746785;0.2724609375;-0.66064453125;-0.66387939453125;-0.220703125;13.079003034665593;13.580370666655346;0.2536615413145396;-0.623046875;0.71435546875;-0.04296875;2.125;6.6875;5.25;
1441975607771786;0.27398681640625;-0.659912109375;-0.6639404296875;-0.22064208984375;13.091935988130922;13.579823051930363;0.2605311585758022;-0.62451171875;0.71435546875;-0.04736328125;-2.0625;6.0;-0.1875;
1441975607783787;0.27490234375;-0.65899658203125;-0.6644287109375;-0.220947265625;13.102794245670669;13.574294980336784;0.26126114391064725;-0.6484375;0.68310546875;-0.029296875;-5.8125;4.875;-3.75;
1441975607806788;0.27471923828125;-0.6590576171875;-0.66436767578125;-0.22100830078125;13.101878039208636;13.574419059701615;0.260245567926837;-0.66943359375;0.6826171875;-0.01904296875;-6.0625;0.25;-1.625;
1441975607829790;0.27484130859375;-0.65966796875;-0.66363525390625;-0.22113037109375;13.103557226118632;13.581244765176635;0.26283426298739176;-0.62939453125;0.70751953125;-0.02685546875;0.125;-1.25;1.1875;
1441975607843790;0.27581787109375;-0.65985107421875;-0.66326904296875;-0.2205810546875;13.106724083556655;13.58701166338656;0.27164882087860387;-0.587890625;0.70263671875;-0.03662109375;4.375;1.25;-2.1875;
1441975607866792;0.27691650390625;-0.65985107421875;-0.66314697265625;-0.2197265625;13.10837092194486;13.591382368842284;0.2817664919052867;-0.59375;0.7080078125;-0.03076171875;-0.375;6.25;-3.0625;
1441975607889793;0.27569580078125;-0.6602783203125;-0.663818359375;-0.2177734375;13.081127906819093;13.590456215656049;0.28413254058664983;-0.583984375;0.72216796875;0.00830078125;-0.6875;8.625;-3.5625;
1441975607903794;0.2708740234375;-0.662353515625;-0.66510009765625;-0.21343994140625;13.002054729353471;13.590431834760228;0.2806786853578161;-0.509765625;0.78271484375;0.025390625;-0.0625;4.25;4.875;
1441975607926795;0.2657470703125;-0.66497802734375;-0.66693115234375;-0.20611572265625;12.89419853238497;13.594065399619522;0.28960897902310273;-0.32861328125;0.8125;-0.021484375;2.5;-1.75;20.4375;
1441975607957797;0.25970458984375;-0.6693115234375;-0.66815185546875;-0.19549560546875;12.749532031371945;13.611155587895524;0.31258609457454534;-0.19384765625;0.78857421875;-0.00244140625;-1.0;9.0625;29.4375;
1441975607963797;0.250732421875;-0.673583984375;-0.67083740234375;-0.18304443359375;12.565679814007467;13.61656104095351;0.3257174476624105;-0.345703125;0.9599609375;-0.06103515625;1.375;18.6875;49.75;
1441975607985799;0.2388916015625;-0.6776123046875;-0.674560546875;-0.1697998046875;12.352907071131586;13.611239723909875;0.32602305673590554;-0.51708984375;1.0390625;-0.09228515625;-4.9375;11.3125;78.25;
1441975608009800;0.22357177734375;-0.684326171875;-0.677001953125;-0.1529541015625;12.080056027588894;13.621970412012239;0.33055213354074137;-0.44921875;1.03271484375;-0.03271484375;-5.5625;4.4375;103.0;
1441975608023801;0.20654296875;-0.6923828125;-0.6785888671875;-0.13238525390625;11.76202370467775;13.642459115337113;0.34464367142305175;-0.31982421875;1.041015625;0.00244140625;8.9375;9.625;131.75;
1441975608046802;0.18707275390625;-0.69970703125;-0.6807861328125;-0.10955810546875;11.407964895965291;13.65417570207769;0.3542688147256541;-0.3134765625;1.08544921875;-0.02197265625;14.125;19.6875;154.375;
1441975608068803;0.165283203125;-0.70513916015625;-0.68414306640625;-0.0863037109375;11.035605779675878;13.649908900846658;0.35229080619912956;-0.32958984375;1.08154296875;0.00390625;8.3125;18.0;173.75;
1441975608083804;0.142578125;-0.7105712890625;-0.68621826171875;-0.06317138671875;10.65838929920593;13.650564729771098;0.34732157112483;-0.22021484375;0.9833984375;0.0380859375;-1.875;8.5;183.75;
1441975608106805;0.120849609375;-0.71441650390625;-0.6881103515625;-0.0391845703125;10.284403988657978;13.646870892246318;0.34977525489975947;-0.10205078125;1.0498046875;0.0390625;3.6875;5.375;185.0625;
1441975608128807;0.1005859375;-0.71514892578125;-0.69158935546875;-0.01629638671875;9.934727490964741;13.624851412763942;0.3531057828006131;-0.099609375;1.09033203125;0.00732421875;-3.3125;12.5625;184.25;
1441975608143808;0.08123779296875;-0.71319580078125;-0.6962890625;0.00347900390625;9.62092050318116;13.58766006901885;0.3487162340616986;-0.18115234375;1.04052734375;-0.0263671875;-22.4375;11.375;174.625;
1441975608166809;0.0633544921875;-0.71124267578125;-0.69989013671875;0.019287109375;9.351103224091931;13.556430769114526;0.33689386616684164;-0.1826171875;0.9580078125;-0.00341796875;-36.0;1.5625;158.4375;
1441975608188810;0.04815673828125;-0.70947265625;-0.7025146484375;0.0306396484375;9.138568169340456;13.532105371081803;0.3197978189855399;-0.17041015625;0.8056640625;-0.01025390625;-30.3125;-8.125;137.1875;
1441975608203811;0.03607177734375;-0.71051025390625;-0.70196533203125;0.0350341796875;9.004915366817247;13.534785000333645;0.2882064426847746;-0.13818359375;0.72705078125;0.02197265625;-23.125;-15.6875;108.5625;
1441975608225812;0.0274658203125;-0.71441650390625;-0.698486328125;0.03314208984375;8.948522646634535;13.563494212446145;0.245340271228263;-0.13916015625;0.7001953125;-0.015625;2.5;-30.4375;76.875;
1441975608248814;0.0218505859375;-0.716552734375;-0.69677734375;0.02423095703125;8.975503210952786;13.579764338522077;0.18657586346759522;-0.18115234375;0.67529296875;-0.11474609375;21.5;-42.5;41.8125;
1441975608263814;0.02001953125;-0.716796875;-0.697021484375;0.00958251953125;9.081184043166203;13.580989633974315;0.12052027092297878;-0.1904296875;0.66162109375;-0.138671875;7.375;-58.5;1.5625;
1441975608286816;0.0225830078125;-0.71612548828125;-0.6976318359375;-0.0103759765625;9.265739109490362;13.576133947343546;0.051236558216642025;-0.20556640625;0.5556640625;-0.115234375;-5.5625;-67.125;-37.375;
1441975608318818;0.02880859375;-0.71588134765625;-0.6968994140625;-0.0340576171875;9.510049723925295;13.57618020606992;17.982105753544797;-0.21728515625;0.474609375;-0.08447265625;-7.9375;-71.6875;-77.1875;
1441975608323818;0.03955078125;-0.71636962890625;-0.69390869140625;-0.06182861328125;9.824821637462641;13.585161837771391;17.915639688632986;-0.23681640625;0.46044921875;-0.08251953125;3.4375;-72.25;-116.6875;
1441975608354820;0.05426025390625;-0.71697998046875;-0.68865966796875;-0.09375;10.207300709968603;13.599513775546477;17.849601235463926;-0.26611328125;0.392578125;-0.05810546875;15.9375;-70.6875;-152.0625;
1441975608368820;0.0726318359375;-0.7164306640625;-0.68182373046875;-0.1290283203125;10.64931758732908;13.61061329011733;17.785064685486685;-0.30224609375;0.36181640625;-0.01513671875;25.9375;-71.0;-185.4375;
1441975608383821;0.09381103515625;-0.7138671875;-0.673828125;-0.16644287109375;11.134636265722303;13.612768310309784;17.721643624312755;-0.3271484375;0.3828125;-0.00244140625;26.9375;-70.375;-214.9375;
1441975608405823;0.11767578125;-0.710205078125;-0.6629638671875;-0.2056884765625;11.662577279632417;13.616705021227684;17.660885937711008;-0.36865234375;0.36181640625;0.0302734375;23.625;-69.1875;-236.875;
1441975608428824;0.142822265625;-0.70703125;-0.64715576171875;-0.246826171875;12.226735901585116;13.637459128375223;17.600590721567052;-0.4658203125;0.31982421875;0.05859375;29.75;-65.3125;-257.0625;
1441975608443825;0.16766357421875;-0.7049560546875;-0.62554931640625;-0.28936767578125;12.814638230745771;13.682342774290055;17.54042304832452;-0.634765625;0.23828125;0.07861328125;51.6875;-64.1875;-272.75;
1441975608465826;0.1917724609375;-0.70220947265625;-0.6004638671875;-0.3311767578125;13.405427608122785;13.737982614667759;17.485508212113107;-0.8203125;0.2021484375;0.0830078125;80.8125;-64.25;-281.875;
1441975608489827;0.21624755859375;-0.69598388671875;-0.57562255859375;-0.37091064453125;13.99242583518013;13.77737187981513;17.43572504775618;-0.97216796875;0.23046875;0.0361328125;92.4375;-61.5625;-282.8125;
1441975608511829;0.2413330078125;-0.68487548828125;-0.5523681640625;-0.4095458984375;14.584011939458657;13.778242199831865;17.37329631380881;-1.0986328125;0.24560546875;0.01123046875;76.1875;-59.25;-280.5625;
1441975608527830;0.26715087890625;-0.669189453125;-0.530029296875;-0.44720458984375;15.183965973782316;13.732484060031245;17.285422075486117;-1.177734375;0.224609375;-0.02294921875;50.625;-65.375;-282.75;
1441975608548831;0.29150390625;-0.651611328125;-0.50653076171875;-0.48370361328125;15.775582097101335;13.644051961908112;17.15446394395902;-1.2890625;0.05517578125;-0.00927734375;29.3125;-71.5;-285.3125;
1441975608563832;0.3133544921875;-0.63409423828125;-0.47998046875;-0.51910400390625;16.35400067991055;13.504208780834803;16.95678529801222;-1.40576171875;0.00244140625;0.00439453125;30.25;-74.5625;-282.6875;
1441975608585833;0.333251953125;-0.6156005859375;-0.4515380859375;-0.55328369140625;16.915066469698544;13.195211858140008;16.582956838280687;-1.46484375;0.0751953125;-0.05908203125;46.3125;-74.25;-281.4375;
1441975608608834;0.35076904296875;-0.59600830078125;-0.422607421875;-0.58587646484375;17.41191893555726;12.241438727258222;15.561346216304106;-1.55517578125;0.02197265625;-0.13671875;54.25;-76.375;-279.875;
1441975608631835;0.36651611328125;-0.57574462890625;-0.39385986328125;-0.61572265625;17.60747499412246;9.09127736739832;12.345816236099008;-1.64794921875;0.01123046875;-0.14306640625;57.5625;-80.4375;-273.25;
1441975608655837;0.382568359375;-0.553466796875;-0.36553955078125;-0.6431884765625;17.25950337725791;6.862055322826676;10.063276571142683;-1.66943359375;0.13525390625;-0.0927734375;55.9375;-77.75;-266.0625;
1441975608668838;0.3994140625;-0.52789306640625;-0.3385009765625;-0.66876220703125;16.75398086772016;6.247796733216096;9.413794210625497;-1.6171875;0.21337890625;-0.15576171875;44.0625;-78.75;-268.0625;
1441975608691839;0.41357421875;-0.502197265625;-0.31103515625;-0.69293212890625;16.238522862671136;6.0254503527910765;9.148302174043547;-1.5595703125;0.14208984375;-0.13525390625;26.1875;-86.5625;-270.1875;
1441975608705840;0.4232177734375;-0.4783935546875;-0.2818603515625;-0.71600341796875;15.745306412914012;5.934836597814752;8.990262990750367;-1.56787109375;0.19384765625;-0.09716796875;34.0625;-87.0;-264.6875;
1441975608728841;0.4302978515625;-0.45526123046875;-0.25335693359375;-0.7371826171875;15.277507581251228;5.9029987816182485;8.885660160723505;-1.4736328125;0.21435546875;-0.15771484375;58.0625;-82.0;-253.375;
1441975608751842;0.43572998046875;-0.43243408203125;-0.22625732421875;-0.75634765625;14.834441189298413;5.89988813445216;8.811065064776054;-1.19921875;0.24267578125;-0.162109375;63.25;-79.0625;-238.9375;
1441975608765843;0.43743896484375;-0.4112548828125;-0.2008056640625;-0.77410888671875;14.432629082655291;5.929506691031818;8.759476709071377;-1.01513671875;0.2861328125;-0.1474609375;61.75;-78.3125;-225.625;
1441975608788844;0.43560791015625;-0.392578125;-0.17694091796875;-0.79052734375;14.078267584023292;5.980171220431697;8.717442023988639;-0.9111328125;0.39111328125;-0.1396484375;71.6875;-76.1875;-204.375;
1441975608812846;0.43145751953125;-0.37744140625;-0.15655517578125;-0.8043212890625;13.792067374457117;6.038278727205732;8.683646501576685;-0.8349609375;0.4453125;-0.1240234375;82.875;-69.75;-180.9375;
1441975608825847;0.4273681640625;-0.36383056640625;-0.14031982421875;-0.815673828125;13.551626729085688;6.0935841023592365;8.663705808246585;-0.78564453125;0.51611328125;-0.1962890625;82.625;-60.0;-149.5625;
1441975608848848;0.42364501953125;-0.35693359375;-0.1312255859375;-0.8221435546875;13.427281719382927;6.132299937998609;8.652455152899996;-0.5634765625;0.6083984375;-0.2158203125;68.0625;-56.75;-123.1875;
1441975608871849;0.4195556640625;-0.35736083984375;-0.128173828125;-0.8245849609375;13.417317305619825;6.15934274715753;8.645706463689656;-0.3671875;0.50927734375;-0.0869140625;36.75;-39.75;-96.625;
1441975608885850;0.41650390625;-0.3658447265625;-0.13287353515625;-0.8216552734375;13.538291802500126;6.164050385935919;8.646735237392662;-0.43115234375;0.46875;-0.08984375;22.8125;-14.4375;-47.125;
1441975608908851;0.41571044921875;-0.3804931640625;-0.14453125;-0.8133544921875;13.765475849406975;6.1397105556374925;8.65365513532973;-0.6181640625;0.4677734375;-0.19287109375;-0.6875;6.625;3.0625;
1441975608931853;0.40924072265625;-0.40264892578125;-0.16162109375;-0.802734375;14.113622825485468;6.14520005337146;8.679393611306446;-0.748046875;0.3681640625;-0.2197265625;-30.125;27.25;49.75;
1441975608945853;0.40472412109375;-0.42523193359375;-0.181884765625;-0.78887939453125;14.489602257804272;6.135626870905382;8.714420037516012;-0.8193359375;0.49072265625;-0.14453125;-20.5;53.1875;99.0;
1441975608969855;0.40185546875;-0.45074462890625;-0.21014404296875;-0.7689208984375;14.954399793473689;6.114163165952914;8.778805418080387;-1.025390625;0.7119140625;-0.1328125;-40.4375;76.3125;151.0;
1441975608990856;0.3946533203125;-0.48077392578125;-0.244384765625;-0.74395751953125;15.525259876416158;6.13602940753555;8.89148621197207;-1.31396484375;0.61328125;-0.22265625;-76.75;85.8125;196.1875;
1441975609008857;0.380859375;-0.516845703125;-0.284423828125;-0.7120361328125;16.228925922547116;6.263900567910715;9.106891495278845;-1.63671875;0.466796875;-0.265625;-78.375;98.625;251.75;
1441975609028858;0.36663818359375;-0.5523681640625;-0.32989501953125;-0.672119140625;16.983751781614558;6.665481210193182;9.628761572805207;-1.93310546875;0.5966796875;-0.19775390625;-74.0;122.5;317.3125;
1441975609059860;0.35162353515625;-0.583984375;-0.38287353515625;-0.62359619140625;17.591116863165528;9.34802703918061;12.478985030179949;-2.3359375;0.751953125;-0.326171875;-106.375;141.0625;371.0625;
1441975609065860;0.3211669921875;-0.61724853515625;-0.4326171875;-0.57342529296875;17.028525374884254;12.956419365081766;16.190101504438424;-2.86572265625;0.26220703125;-0.26611328125;-152.375;135.875;411.0;
1441975609088862;0.272705078125;-0.6571044921875;-0.47021484375;-0.5223388671875;16.05329851984251;13.6050111569381;16.82565392399909;-3.13037109375;-0.01904296875;0.07568359375;-86.375;120.125;458.25;
1441975609110863;0.22808837890625;-0.688720703125;-0.50799560546875;-0.46441650390625;15.061622473926008;13.807781514094438;17.062919398381005;-3.11376953125;0.4248046875;-0.10302734375;31.4375;122.6875;496.8125;
1441975609134864;0.20428466796875;-0.6986083984375;-0.5560302734375;-0.40142822265625;14.199715825180917;13.777119431549588;17.24223520430191;-3.19873046875;1.17041015625;-0.20703125;-14.25;134.0625;488.4375;
1441975609148865;0.19354248046875;-0.686767578125;-0.615966796875;-0.33392333984375;13.419217691123212;13.572677722661778;17.414468752177115;-3.10205078125;0.97998046875;-0.0732421875;-180.5;143.3125;419.375;
1441975609170866;0.1864013671875;-0.656494140625;-0.676025390625;-0.2781982421875;12.811282883618166;13.249665722502632;17.51939241179097;-3.40966796875;0.58544921875;-0.2333984375;-333.5;139.0625;383.5625;
1441975609185867;0.16363525390625;-0.6417236328125;-0.7103271484375;-0.23858642578125;12.259127155878016;13.080641483749178;17.55990967989443;-3.51025390625;-1.1630859375;-0.142578125;-392.8125;69.8125;307.25;
1441975609208868;0.12286376953125;-0.657958984375;-0.71197509765625;-0.212646484375;11.70467220922266;13.164363361525396;17.54422018756984;-2.93408203125;-1.85107421875;-0.2451171875;-192.4375;0.5;278.3125;
1441975609231870;0.08056640625;-0.6890869140625;-0.69580078125;-0.18609619140625;11.162631571870309;13.38460471609753;17.54219955838958;-2.203125;-1.466796875;0.12646484375;91.4375;-49.9375;273.25;
