1441975310073759;-0.8759765625;-0.1402587890625;-0.17059326171875;-0.42901611328125;7.971786076730537;15.283517106760014;10.174020494156514;0.81591796875;0.470703125;-0.33349609375;62.4375;0.125;-112.0;
1441975310089760;-0.8763427734375;-0.14642333984375;-0.17474365234375;-0.42449951171875;7.951781369550009;15.302224459947707;10.215904877623032;0.755859375;0.458984375;-0.24853515625;30.5625;5.375;-74.5;
1441975310112761;-0.8758544921875;-0.14971923828125;-0.18212890625;-0.421142578125;7.88769193980395;15.30802450603674;10.253096473848291;0.63330078125;0.3955078125;-0.33056640625;23.6875;18.0;-46.375;
1441975310133762;-0.8758544921875;-0.15093994140625;-0.19287109375;-0.41595458984375;7.774517719425076;15.318977752836265;10.288336018204603;0.5771484375;0.4345703125;-0.33251953125;11.6875;29.5625;-21.875;
1441975310149763;-0.87652587890625;-0.1507568359375;-0.20733642578125;-0.4075927734375;7.608148631063664;15.341418502009383;10.325469130589639;0.6220703125;0.4111328125;-0.29150390625;18.375;40.5625;-2.6875;
1441975310171765;-0.87799072265625;-0.14910888671875;-0.22491455078125;-0.3955078125;7.392074889726525;15.379041664651181;10.361599637300014;0.6767578125;0.36962890625;-0.2880859375;30.1875;56.125;14.5;
1441975310193766;-0.87847900390625;-0.14447021484375;-0.246826171875;-0.38287353515625;7.115559280248446;15.409055585490178;10.394782122772233;0.6904296875;0.43701171875;-0.31201171875;47.875;70.9375;36.5;
1441975310209767;-0.87744140625;-0.138427734375;-0.2694091796875;-0.37213134765625;6.830242962807779;15.423108831810712;10.425095997718783;0.748046875;0.57373046875;-0.38916015625;43.0;88.25;63.125;
1441975310231768;-0.87432861328125;-0.1292724609375;-0.29571533203125;-0.36260986328125;6.49560434230355;15.417681921212601;10.454486437390392;0.79150390625;0.59033203125;-0.43359375;25.0625;105.6875;88.125;
1441975310260770;-0.86944580078125;-0.11749267578125;-0.32550048828125;-0.352783203125;6.111585319403883;15.40075810102095;10.485311475176019;0.8232421875;0.5458984375;-0.369140625;7.0;119.875;108.3125;
1441975310269770;-0.86322021484375;-0.1044921875;-0.3577880859375;-0.3406982421875;5.687863395406385;15.383865529260914;10.52126253657385;0.892578125;0.466796875;-0.34033203125;-2.75;134.9375;127.25;
1441975310291771;-0.85552978515625;-0.0908203125;-0.39141845703125;-0.32672119140625;5.2387915624446055;15.3655427950197;10.563181491679961;0.97265625;0.44287109375;-0.369140625;1.1875;149.125;141.3125;
1441975310314773;-0.845703125;-0.073974609375;-0.4261474609375;-0.312744140625;4.7588305901596275;15.334978836416298;10.60176079360502;1.04345703125;0.50048828125;-0.39697265625;5.625;159.3125;151.3125;
1441975310337774;-0.83349609375;-0.0535888671875;-0.46124267578125;-0.29949951171875;4.254347629663209;15.287969329333032;10.636617176139392;1.08935546875;0.5517578125;-0.443359375;-6.0625;164.9375;169.3125;
1441975310351775;-0.81927490234375;-0.0306396484375;-0.4962158203125;-0.28582763671875;3.729775888935857;15.230613260906397;10.671558812879026;1.0947265625;0.49072265625;-0.3896484375;-22.8125;166.5;184.9375;
1441975310382777;-0.8031005859375;-0.00537109375;-0.5299072265625;-0.27252197265625;3.1988833815895212;15.158937780546824;10.707798873401627;1.126953125;0.44140625;-0.27001953125;-30.25;166.5;197.875;
1441975310389777;-0.7850341796875;0.0238037109375;-0.560546875;-0.2626953125;2.680538450371143;15.059983863724145;10.738032482259147;1.1982421875;0.4248046875;-0.27978515625;-41.8125;163.4375;206.25;
1441975310411778;-0.765625;0.05609130859375;-0.58709716796875;-0.25701904296875;2.1911572843360707;14.929454645132752;10.767289241244162;1.23095703125;0.38623046875;-0.310546875;-73.0;150.3125;209.1875;
1441975310434780;-0.74609375;0.08953857421875;-0.60870361328125;-0.25482177734375;1.748201560073749;14.773669619804544;10.800195576102025;1.22705078125;0.23486328125;-0.31494140625;-105.0625;133.6875;203.0;
1441975310449780;-0.7269287109375;0.12322998046875;-0.6259765625;-0.25408935546875;1.3422447756798925;14.603251259399714;10.8383934614928;1.23291015625;0.03076171875;-0.302734375;-126.375;112.9375;187.125;
1441975310471782;-0.709228515625;0.15533447265625;-0.6400146484375;-0.2515869140625;0.9617315888015657;14.446825401211873;10.874883786775774;1.240234375;-0.0380859375;-0.19921875;-134.6875;92.375;176.375;
1441975310494783;-0.6939697265625;0.185791015625;-0.64959716796875;-0.2490234375;0.6262091028678658;14.356289917865979;10.850412232500647;1.23974609375;-0.16748046875;-0.22900390625;-121.6875;76.0625;169.6875;
1441975310515784;-0.68170166015625;0.212158203125;-0.6558837890625;-0.24530029296875;0.34044799452420277;14.451896797128699;10.66001802159456;1.1962890625;-0.16796875;-0.2822265625;-115.625;52.875;155.5;
1441975310531785;-0.671875;0.23516845703125;-0.65997314453125;-0.2403564453125;0.10520125610120251;15.839953441049705;9.195179808339198;1.19091796875;-0.11767578125;-0.25341796875;-94.6875;32.875;137.5;
1441975310554786;-0.6644287109375;0.25567626953125;-0.66217041015625;-0.23406982421875;0.17602603805327346;3.1885140526793765;3.7852017242239038;1.1787109375;-0.05126953125;-0.28076171875;-76.0625;19.1875;124.6875;
1441975310575788;-0.6593017578125;0.2734375;-0.66302490234375;-0.22576904296875;0.38749641699004334;3.6891713742746726;3.2425694011618633;1.150390625;0.02294921875;-0.302734375;-60.6875;4.5625;117.0;
1441975310591789;-0.655517578125;0.28790283203125;-0.664306640625;-0.21484375;0.5965085739113267;3.8003477364408766;3.1143717358882976;1.15771484375;0.0283203125;-0.31884765625;-41.1875;-7.9375;109.5;
1441975310620790;-0.6527099609375;0.29766845703125;-0.66729736328125;-0.20025634765625;0.7987530971765524;3.8924780116648012;3.040805888047572;1.19287109375;0.03515625;-0.2919921875;-16.0;-12.3125;106.375;
1441975310635791;-0.65289306640625;0.30120849609375;-0.67059326171875;-0.1826171875;0.9727195765460185;3.9204047100931674;3.071510322042695;1.212890625;0.01708984375;-0.2861328125;19.5625;-9.875;103.625;
1441975310651792;-0.65380859375;0.29913330078125;-0.67559814453125;-0.16339111328125;1.1156982685211123;3.9967855962654073;3.0848442872534965;1.20068359375;-0.01025390625;-0.28515625;61.0;-5.6875;97.6875;
1441975310674793;-0.65289306640625;0.295166015625;-0.68304443359375;-0.1419677734375;1.2676781219021387;4.150777702047306;3.0373544024885257;1.13623046875;0.05078125;-0.255859375;93.0;-0.8125;88.6875;
1441975310695795;-0.65167236328125;0.29132080078125;-0.689697265625;-0.12200927734375;1.4095504895229882;4.276579881724922;3.010802554719707;1.08837890625;0.17138671875;-0.2421875;108.1875;1.8125;83.8125;
1441975310711795;-0.65240478515625;0.2861328125;-0.6937255859375;-0.10614013671875;1.5006584188005831;4.334139519787503;3.0412067860893757;1.02685546875;0.19091796875;-0.25341796875;101.1875;2.75;78.9375;
1441975310734797;-0.65289306640625;0.27947998046875;-0.6982421875;-0.09039306640625;1.5805247053115816;4.408850146246859;3.0601861861501565;0.96728515625;0.1142578125;-0.21630859375;90.875;2.4375;70.375;
1441975310755798;-0.65216064453125;0.27032470703125;-0.70452880859375;-0.07281494140625;1.6614622798730907;4.532800572392945;3.047816872009256;0.90234375;0.0107421875;-0.16943359375;96.3125;3.6875;57.75;
1441975310771799;-0.65252685546875;0.25799560546875;-0.71038818359375;-0.05499267578125;1.716804198402086;4.648773736635751;3.0578751519799887;0.8251953125;-0.02490234375;-0.15869140625;112.9375;5.75;44.3125;
1441975310802801;-0.654296875;0.24371337890625;-0.71490478515625;-0.03790283203125;1.7451739006927365;4.739319676159545;3.0984339833552292;0.76953125;-0.00341796875;-0.09912109375;125.875;-0.375;31.375;
1441975310815801;-0.657958984375;0.23004150390625;-0.71673583984375;-0.02313232421875;1.7496118740443791;4.771161013036;3.185331017891754;0.7138671875;0.03125;-0.1142578125;129.75;-9.0;19.375;
1441975310831802;-0.66473388671875;0.21630859375;-0.71502685546875;-0.01361083984375;1.69834829026917;4.7237017371784615;3.330230445308716;0.681640625;0.0869140625;-0.0927734375;115.375;-24.1875;9.5;
1441975310854804;-0.67315673828125;0.2044677734375;-0.71063232421875;-0.00750732421875;1.6300624812920594;4.603187372485237;3.52589986233715;0.70068359375;0.10205078125;-0.03173828125;90.9375;-41.9375;-0.6875;
1441975310877805;-0.68316650390625;0.19439697265625;-0.70391845703125;-0.00482177734375;1.5499725660199168;4.40369410354034;3.7789899905718736;0.7490234375;0.1044921875;0.00244140625;66.9375;-57.875;-9.375;
1441975310907807;-0.6942138671875;0.1846923828125;-0.69573974609375;-0.0040283203125;1.4678728614020748;4.137593144480495;4.089202589419438;0.7783203125;0.0859375;0.001953125;43.5;-70.125;-19.5625;
1441975310914807;-0.70587158203125;0.17376708984375;-0.686767578125;-0.0042724609375;1.385376211334102;3.8141941201999483;4.45726976073514;0.82861328125;0.03955078125;0.013671875;33.125;-80.1875;-29.9375;
1441975310937808;-0.7181396484375;0.1619873046875;-0.67681884765625;-0.00555419921875;1.3138526375436488;3.417746374293786;4.897383170666874;0.90576171875;0.056640625;-0.0185546875;33.375;-84.1875;-38.5625;
1441975310951809;-0.73095703125;0.15081787109375;-0.66552734375;-0.0086669921875;1.2705558968087494;2.9384479578710008;5.410030938332041;0.93896484375;0.13671875;-0.08740234375;33.375;-86.625;-41.5625;
1441975310974810;-0.7440185546875;0.14178466796875;-0.65289306640625;-0.0140380859375;1.2740154809566704;2.406683622374636;5.956824431025695;0.96533203125;0.22265625;-0.1455078125;23.8125;-91.0;-42.1875;
1441975311003812;-0.75640869140625;0.13519287109375;-0.6396484375;-0.02197265625;1.3207269502332921;1.8847459953825183;6.472933171305958;0.97705078125;0.244140625;-0.1787109375;5.75;-95.5625;-42.0625;
1441975311011813;-0.7674560546875;0.13018798828125;-0.62701416015625;-0.03125;1.395411670307351;1.428002358462407;6.911623496594927;0.97705078125;0.20751953125;-0.185546875;-15.0625;-95.5;-45.0;
1441975311034814;-0.77703857421875;0.12554931640625;-0.61553955078125;-0.04046630859375;1.4831781255500458;1.0491666109276359;7.270992667017585;0.966796875;0.14697265625;-0.15966796875;-27.1875;-90.875;-48.0;
1441975311055815;-0.78546142578125;0.1204833984375;-0.605224609375;-0.0484619140625;1.577603664035948;0.7427394274507042;7.5646059221031825;0.93798828125;0.08837890625;-0.12890625;-28.5625;-84.0625;-50.4375;
1441975311071816;-0.79302978515625;0.114501953125;-0.59588623046875;-0.05474853515625;1.6750758879324565;0.49570759981457746;7.809523101579925;0.93017578125;0.0556640625;-0.13134765625;-21.6875;-77.25;-50.8125;
1441975311094817;-0.79962158203125;0.10797119140625;-0.5877685546875;-0.059814453125;1.7673114338036382;0.29553809707763634;8.014897452745956;0.94775390625;0.06494140625;-0.16552734375;-10.375;-70.125;-49.125;
1441975311115819;-0.80499267578125;0.1011962890625;-0.5811767578125;-0.06402587890625;1.8462531583601396;0.13160867017164551;8.188670620576012;0.97021484375;0.0634765625;-0.1650390625;-2.25;-63.375;-47.375;
1441975311138820;-0.80938720703125;0.094482421875;-0.57568359375;-0.0679931640625;1.9146197293852074;17.988806118244796;8.342143963679696;0.9833984375;0.05615234375;-0.15771484375;2.375;-54.9375;-46.125;
1441975311154821;-0.8128662109375;0.08843994140625;-0.57122802734375;-0.07208251953125;1.9720893831751092;17.862862638884913;8.475596202289937;0.94775390625;0.06201171875;-0.16552734375;3.875;-46.375;-44.625;
1441975311175822;-0.8153076171875;0.08349609375;-0.56787109375;-0.0767822265625;2.0159901054386578;17.747224613654648;8.591798128492682;0.92138671875;0.07958984375;-0.18017578125;1.375;-37.25;-41.0625;
1441975311191823;-0.8167724609375;0.07952880859375;-0.565673828125;-0.08172607421875;2.045426015112449;17.642273134437;8.692409143602783;0.896484375;0.0673828125;-0.1865234375;-5.25;-28.8125;-38.4375;
1441975311214824;-0.81744384765625;0.07623291015625;-0.564453125;-0.0860595703125;2.0625693737711233;17.55386998119037;8.77630630536469;0.88623046875;0.05078125;-0.1787109375;-10.0;-20.8125;-35.6875;
1441975311237826;-0.8173828125;0.07342529296875;-0.564453125;-0.08929443359375;2.0645421843625384;17.484694482942505;8.843705140042255;0.88623046875;0.029296875;-0.1953125;-9.8125;-13.1875;-31.375;
1441975311258827;-0.8167724609375;0.0706787109375;-0.5653076171875;-0.09149169921875;2.0554960042046297;17.428810955449993;8.901952445875763;0.91064453125;0.0;-0.19921875;-7.0;-6.3125;-27.8125;
1441975311274828;-0.815673828125;0.0679931640625;-0.5670166015625;-0.09295654296875;2.0355508033346608;17.381379598211886;8.954666748424483;0.93212890625;9.765625E-4;-0.20166015625;-2.5;-0.75;-23.6875;
1441975311297829;-0.8140869140625;0.06549072265625;-0.5694580078125;-0.09375;2.0054969406987917;17.34224122478835;9.001195315019432;0.93994140625;0.009765625;-0.19287109375;1.1875;4.0;-20.5;
1441975311311830;-0.81207275390625;0.06341552734375;-0.57244873046875;-0.09429931640625;1.9672740950455123;17.307862044798494;9.042266452925482;0.95703125;0.0185546875;-0.20361328125;3.6875;8.875;-16.375;
1441975311334831;-0.80963134765625;0.0618896484375;-0.575927734375;-0.09503173828125;1.9215494455129776;17.27335336209512;9.080496994476556;0.9775390625;0.02099609375;-0.2158203125;3.5625;13.6875;-13.125;
1441975311357832;-0.80694580078125;0.06103515625;-0.57965087890625;-0.095703125;1.8713033644178503;17.243930688835444;9.111146156534613;0.9931640625;0.03173828125;-0.2275390625;0.875;18.0625;-10.5;
1441975311372833;-0.80401611328125;0.06060791015625;-0.58367919921875;-0.09625244140625;1.8161050033075599;17.218078189128086;9.137007287034434;0.9833984375;0.02197265625;-0.23828125;-1.375;21.25;-7.5625;
1441975311394835;-0.80096435546875;0.060546875;-0.58782958984375;-0.0966796875;1.7584452272123507;17.19595527746566;9.158144320969942;0.9765625;0.01513671875;-0.2314453125;-2.625;23.5625;-5.125;
1441975311417836;-0.79779052734375;0.06060791015625;-0.59210205078125;-0.09661865234375;1.6981673184726118;17.18078443959067;9.173821397794994;0.96484375;0.0126953125;-0.24462890625;-3.125;26.0625;-3.25;
1441975311431837;-0.79449462890625;0.06072998046875;-0.59661865234375;-0.0960693359375;1.6341859585146516;17.17215773126824;9.18474723089115;0.962890625;0.00244140625;-0.25927734375;-1.625;28.75;-1.25;
1441975311462838;-0.79119873046875;0.060791015625;-0.60113525390625;-0.0948486328125;1.5694472238466224;17.17313563742624;9.189041237010919;0.94580078125;-0.0048828125;-0.265625;0.1875;31.25;0.25;
1441975311477839;-0.7880859375;0.06072998046875;-0.60552978515625;-0.0931396484375;1.5066096938259432;17.181624555653844;9.188322556774542;0.92919921875;-0.009765625;-0.275390625;3.25;33.1875;2.375;
1441975311505841;-0.78521728515625;0.06060791015625;-0.60955810546875;-0.0911865234375;1.4485156189953305;17.195692716540897;9.183197563418588;0.91845703125;-0.005859375;-0.28369140625;6.25;33.375;4.0;
1441975311513841;-0.78265380859375;0.06048583984375;-0.6131591796875;-0.0888671875;1.3959128901362616;17.219336746783128;9.169917919478179;0.89990234375;-0.0029296875;-0.2841796875;7.8125;31.625;4.6875;
1441975311537843;-0.78033447265625;0.06048583984375;-0.61651611328125;-0.0860595703125;1.3465159269633122;17.256904463120485;9.14418892112979;0.89453125;-0.0029296875;-0.27490234375;9.375;28.5;6.3125;
1441975311558844;-0.77838134765625;0.06060791015625;-0.61944580078125;-0.08251953125;1.3027683363304052;17.315205430765573;9.100164478375333;0.89892578125;0.001953125;-0.25830078125;11.3125;25.625;8.625;
1441975311574845;-0.777099609375;0.060791015625;-0.62152099609375;-0.078857421875;1.2716546350221796;17.383716257681595;9.046090903506727;0.91259765625;0.00390625;-0.26708984375;14.75;23.0;11.875;
1441975311597846;-0.776611328125;0.0609130859375;-0.62261962890625;-0.0745849609375;1.2551539003541115;17.469763305843685;8.977123249982675;0.9013671875;-0.00244140625;-0.275390625;14.75;17.5;12.25;
1441975311634848;-0.77667236328125;0.06109619140625;-0.62310791015625;-0.06982421875;1.2487303028935932;17.570186761472467;8.895484499981155;0.888671875;-0.01708984375;-0.2841796875;17.5625;11.375;12.8125;
1441975311637848;-0.77703857421875;0.0611572265625;-0.6231689453125;-0.0654296875;1.2496446051394714;17.662183084210763;8.821234028314885;0.92236328125;-0.01904296875;-0.2861328125;19.5625;5.9375;14.5625;
1441975311657850;-0.77789306640625;0.061279296875;-0.6224365234375;-0.06146240234375;1.2621429285296804;17.746161307962822;8.752909924336999;0.9609375;0.00634765625;-0.2998046875;19.25;3.3125;14.625;
1441975311678851;-0.7789306640625;0.0614013671875;-0.6214599609375;-0.0582275390625;1.2788051582076743;17.813599121211023;8.698134888674327;0.9970703125;0.02197265625;-0.3447265625;17.0625;0.5;14.0625;
1441975311693852;-0.7803955078125;0.06219482421875;-0.61981201171875;-0.055419921875;1.3050799736164056;17.880718544316114;8.63913503282352;1.01611328125;0.02587890625;-0.34326171875;14.125;-1.1875;12.3125;
1441975311707852;-0.7823486328125;0.06280517578125;-0.61749267578125;-0.0528564453125;1.3412227995990897;17.93650872970876;8.591158884110547;0.9931640625;-0.03564453125;-0.32568359375;8.625;-7.5625;9.5625;
1441975311730854;-0.78466796875;0.0633544921875;-0.61474609375;-0.05023193359375;1.3842083507908727;17.988782757197253;8.547181088796155;0.97607421875;-0.06005859375;-0.298828125;8.0625;-13.625;5.875;
1441975311753855;-0.78717041015625;0.06414794921875;-0.61163330078125;-0.0477294921875;1.4321943888333106;0.038532688168969834;8.504184487971749;1.02685546875;-0.0439453125;-0.30126953125;8.625;-18.5;6.8125;
1441975311768856;-0.78985595703125;0.06536865234375;-0.60809326171875;-0.046142578125;1.4851270371095977;0.07386755424256826;8.470062712070034;1.0986328125;-0.02734375;-0.337890625;7.8125;-20.125;9.1875;
1441975311790857;-0.79290771484375;0.0665283203125;-0.60406494140625;-0.044921875;1.5447901325633726;0.09828644484498684;8.445575096444616;1.12353515625;-0.02294921875;-0.36376953125;1.9375;-21.6875;7.875;
1441975311813858;-0.79620361328125;0.06744384765625;-0.59967041015625;-0.04443359375;1.608579383083944;0.10477226777384797;8.436989237483164;1.08203125;-0.060546875;-0.3662109375;0.125;-25.125;3.875;
1441975311827859;-0.79925537109375;0.06854248046875;-0.59539794921875;-0.0455322265625;1.6681344324402776;0.08819508227832978;8.444198993914634;1.02734375;-0.06396484375;-0.396484375;-2.875;-25.0;-0.1875;
1441975311850861;-0.80230712890625;0.070556640625;-0.5909423828125;-0.04754638671875;1.7292024311982614;0.06838890289606979;8.44708434275587;0.95458984375;-0.05224609375;-0.3876953125;-10.625;-22.9375;-4.0625;
1441975311873862;-0.80523681640625;0.072509765625;-0.5865478515625;-0.048828125;1.7895506712656073;0.059894646548400536;8.441851885079975;0.86328125;-0.05859375;-0.3798828125;-17.8125;-23.1875;-3.375;
1441975311887863;-0.80865478515625;0.07318115234375;-0.581787109375;-0.04815673828125;1.8574790365391713;0.06535929710137033;8.435908488334519;0.8251953125;-0.11181640625;-0.36767578125;-16.0;-23.625;-5.0;
1441975311910864;-0.81231689453125;0.07275390625;-0.576904296875;-0.04644775390625;1.9283504649849594;0.07359128081537272;8.435985414371903;0.80517578125;-0.10986328125;-0.38818359375;-2.375;-26.0625;-4.0625;
1441975311933865;-0.81549072265625;0.07244873046875;-0.572509765625;-0.04534912109375;1.9909493153262647;0.07564446057297704;8.43925592959099;0.81982421875;-0.0302734375;-0.41552734375;7.875;-26.8125;-0.9375;
1441975311947866;-0.81817626953125;0.07318115234375;-0.568603515625;-0.0452880859375;2.0455559043425966;0.07471572459464636;8.437005803001346;0.8759765625;0.03662109375;-0.43505859375;6.3125;-23.6875;2.6875;
1441975311978868;-0.82025146484375;0.07513427734375;-0.565185546875;-0.04693603515625;2.0908343906494595;0.0636641821884895;8.432805281933001;0.912109375;0.04150390625;-0.44873046875;-1.8125;-20.1875;4.9375;
1441975311993869;-0.8218994140625;0.07794189453125;-0.56219482421875;-0.049072265625;2.1294753280194363;0.054998571716028156;8.420683814275975;0.92724609375;0.03271484375;-0.42333984375;-14.0625;-17.75;4.75;
1441975312007870;-0.8233642578125;0.0809326171875;-0.5594482421875;-0.05157470703125;2.164377104811705;0.043691816173624325;8.408945482418162;0.91552734375;-0.0048828125;-0.423828125;-19.6875;-15.3125;5.0;
1441975312030871;-0.82440185546875;0.08349609375;-0.5572509765625;-0.05413818359375;2.1909630314011035;0.029121476940584423;8.401999518801864;0.90283203125;-0.03076171875;-0.4326171875;-23.25;-12.375;2.875;
1441975312064873;-0.82537841796875;0.08502197265625;-0.55548095703125;-0.05487060546875;2.214242393971709;0.029475807046323417;8.392043799769723;0.90185546875;-0.0576171875;-0.419921875;-22.1875;-9.8125;-0.75;
1441975312069873;-0.826416015625;0.08575439453125;-0.55389404296875;-0.0543212890625;2.2369500825425783;0.03924478284567059;8.381293849352685;0.8828125;-0.10400390625;-0.412109375;-11.6875;-8.0625;-2.75;
1441975312090874;-0.827880859375;0.086181640625;-0.55169677734375;-0.05377197265625;2.2679256070438356;0.045014401995377665;8.375720493733814;0.8720703125;-0.10546875;-0.41259765625;-2.875;-7.625;-2.25;
1441975312113876;-0.82928466796875;0.0869140625;-0.5494384765625;-0.05377197265625;2.298736719600512;0.04638592303795613;8.370979874006466;0.861328125;-0.05615234375;-0.46142578125;-0.5;-9.125;-1.125;
1441975312135877;-0.83050537109375;0.08782958984375;-0.54742431640625;-0.05462646484375;2.325283803358763;0.0393631154455656;8.370386442652396;0.87548828125;-0.0400390625;-0.47021484375;-4.125;-8.9375;0.0;
1441975312150878;-0.83148193359375;0.08819580078125;-0.54583740234375;-0.05535888671875;2.3459626749545164;0.030373154260458925;8.374595173209075;0.88232421875;-0.037109375;-0.44970703125;-8.4375;-8.6875;-1.875;
1441975312173879;-0.83221435546875;0.08807373046875;-0.544677734375;-0.0555419921875;2.3612916399226545;0.025015115832589644;8.379518650532113;0.88623046875;-0.05078125;-0.42919921875;-6.375;-7.625;-4.4375;
1441975312188880;-0.832763671875;0.087646484375;-0.54388427734375;-0.05548095703125;2.372037388230141;0.020893568071273214;8.385545764909509;0.89599609375;-0.0439453125;-0.42041015625;-2.125;-5.8125;-4.5625;
1441975312218882;-0.83319091796875;0.0869140625;-0.5433349609375;-0.0552978515625;2.379616866460042;0.01632675365900392;8.393830559481529;0.9013671875;-0.03515625;-0.41845703125;0.5;-4.0625;-4.4375;
1441975312233882;-0.8336181640625;0.08599853515625;-0.54290771484375;-0.0550537109375;2.385980589996835;0.011266818591929418;8.403666869088248;0.89453125;-0.03173828125;-0.4033203125;2.1875;-3.1875;-5.25;
1441975312247883;-0.83447265625;0.08477783203125;-0.54180908203125;-0.05474853515625;2.401291540138737;0.003480787487362215;8.417636872475642;0.8798828125;-0.0419921875;-0.39501953125;2.6875;-2.875;-6.375;
1441975312271885;-0.83544921875;0.08355712890625;-0.54052734375;-0.0548095703125;2.418796866228875;17.99125151156356;8.434518755032347;0.86767578125;-0.0458984375;-0.41552734375;3.8125;-5.75;-8.5625;
1441975312293886;-0.8363037109375;0.08221435546875;-0.539306640625;-0.05499267578125;2.434842013085297;17.97704490800036;8.453355684385935;0.859375;-0.05810546875;-0.408203125;1.25;-7.4375;-10.75;
1441975312307887;-0.8370361328125;0.0806884765625;-0.53839111328125;-0.05511474609375;2.447239320069303;17.9627801492693;8.473335880768321;0.8671875;-0.05810546875;-0.4091796875;1.3125;-6.875;-11.625;
1441975312330888;-0.83758544921875;0.07904052734375;-0.53778076171875;-0.05523681640625;2.455598898574859;17.948174153173717;8.49421291177435;0.8876953125;-0.04150390625;-0.4287109375;2.625;-4.625;-11.25;
1441975312353889;-0.83795166015625;0.0771484375;-0.53753662109375;-0.05548095703125;2.459204481611682;17.930884534826273;8.518352198647138;0.91943359375;-0.02294921875;-0.44775390625;3.5;-2.1875;-10.6875;
1441975312367890;-0.83807373046875;0.0748291015625;-0.53759765625;-0.0552978515625;2.4586257467884622;17.91577153992113;8.543866347894829;0.93359375;-0.00732421875;-0.4453125;4.0625;-0.5;-11.25;
1441975312390891;-0.83795166015625;0.07220458984375;-0.53826904296875;-0.054931640625;2.4507985529801926;17.901034540855374;8.571161102991326;0.93115234375;-0.0146484375;-0.43701171875;7.3125;1.3125;-12.4375;
1441975312413893;-0.8372802734375;0.0693359375;-0.5396728515625;-0.05401611328125;2.43288383362245;17.891385490770276;8.5967062835961;0.9482421875;-0.00439453125;-0.41748046875;9.5;3.125;-12.375;
1441975312427894;-0.8363037109375;0.06622314453125;-0.54168701171875;-0.05316162109375;2.407195890250338;17.87934624048461;8.62549761639244;0.99560546875;0.01708984375;-0.42529296875;13.5625;7.8125;-10.5;
1441975312449895;-0.8353271484375;0.06280517578125;-0.543701171875;-0.0523681640625;2.381538697221733;17.8637775441567;8.65880897118596;0.97265625;0.0244140625;-0.416015625;14.5;12.0;-10.625;
1441975312473896;-0.83441162109375;0.05902099609375;-0.545654296875;-0.05133056640625;2.357055101008742;17.847694178528158;8.69513526818174;0.87646484375;0.01025390625;-0.3662109375;14.5625;12.1875;-13.5;
1441975312495897;-0.833251953125;0.0548095703125;-0.5479736328125;-0.0496826171875;2.327852323101426;17.835165382910034;8.732205874524222;0.80859375;-0.01318359375;-0.31787109375;16.3125;10.75;-15.8125;
1441975312510898;-0.83172607421875;0.04998779296875;-0.55096435546875;-0.04730224609375;2.290214034662049;17.826158453291114;8.771355465955901;0.80029296875;-0.005859375;-0.30810546875;20.9375;13.0625;-15.8125;
1441975312534900;-0.829833984375;0.044677734375;-0.5545654296875;-0.04437255859375;2.2446396325901468;17.81915449340292;8.812802414019432;0.8388671875;0.0419921875;-0.3330078125;27.375;18.125;-12.875;
1441975312547900;-0.82757568359375;0.0394287109375;-0.5584716796875;-0.0416259765625;2.1938944817655326;17.809269721541632;8.856051355154367;0.8818359375;0.109375;-0.3603515625;33.4375;23.375;-9.0625;
1441975312571902;-0.82525634765625;0.0347900390625;-0.5623779296875;-0.03985595703125;2.142801767065826;17.79084038025974;8.901241149745156;0.9384765625;0.15478515625;-0.37109375;33.5625;25.8125;-6.0;
1441975312593903;-0.82293701171875;0.0313720703125;-0.56597900390625;-0.0391845703125;2.0946179064571595;17.767520668231455;8.94166796622055;0.97607421875;0.189453125;-0.37744140625;28.0625;26.3125;-4.4375;
1441975312615904;-0.82049560546875;0.02935791015625;-0.569580078125;-0.039306640625;2.045531494578336;17.745076428922992;8.972133656177013;0.990234375;0.1748046875;-0.36865234375;17.875;24.75;-3.125;
1441975312631905;-0.8179931640625;0.0281982421875;-0.57330322265625;-0.0391845703125;1.9946204878079123;17.73282203911533;8.989901571831687;0.9853515625;0.1171875;-0.3251953125;8.1875;22.5625;-2.9375;
1441975312653907;-0.81561279296875;0.02703857421875;-0.57672119140625;-0.0384521484375;1.9472277937073283;17.728581552120964;9.002116798253542;0.97265625;0.06396484375;-0.28369140625;5.375;21.125;-1.8125;
1441975312667907;-0.8135986328125;0.02532958984375;-0.57977294921875;-0.0372314453125;1.905778094035492;17.725766485592537;9.017153669302584;0.98388671875;0.04248046875;-0.2724609375;7.6875;19.125;-1.3125;
1441975312690909;-0.8121337890625;0.0233154296875;-0.58197021484375;-0.0357666015625;1.8760073414577771;17.723837312730033;9.033488786022227;1.005859375;0.046875;-0.26220703125;11.8125;15.375;-1.9375;
1441975312713910;-0.81121826171875;0.021240234375;-0.5833740234375;-0.03472900390625;1.8574898715430848;17.715686262494017;9.05449164959202;1.02734375;0.05078125;-0.265625;14.125;9.75;-2.9375;
1441975312727911;-0.8106689453125;0.0194091796875;-0.58428955078125;-0.03466796875;1.846313451130435;17.69619329596629;9.081804280403773;1.0400390625;0.05859375;-0.25732421875;12.375;4.125;-4.3125;
1441975312750912;-0.810546875;0.01800537109375;-0.58441162109375;-0.035400390625;1.845629238238503;17.67044028595325;9.110310821452803;1.044921875;0.056640625;-0.248046875;7.0625;-0.375;-6.5;
1441975312773913;-0.81085205078125;0.016845703125;-0.58392333984375;-0.03668212890625;1.8537844531940855;17.640327106672213;9.13989453082303;1.05859375;0.05859375;-0.26416015625;1.75;-4.4375;-7.9375;
1441975312803915;-0.8116455078125;0.01605224609375;-0.58270263671875;-0.03863525390625;1.8723552150515583;17.60602551053316;9.169370772040331;1.05810546875;0.05517578125;-0.28271484375;-1.75;-7.5625;-8.9375;
1441975312810916;-0.81280517578125;0.015380859375;-0.58099365234375;-0.04071044921875;1.8980864499276957;17.572980207282278;9.196566020253538;1.0361328125;0.05615234375;-0.30615234375;-5.75;-10.75;-10.0625;
1441975312833917;-0.814208984375;0.01495361328125;-0.578857421875;-0.0428466796875;1.9293985375632785;17.543255368767515;9.219152627359875;1.0009765625;0.05322265625;-0.31201171875;-7.4375;-13.3125;-10.25;
1441975312848918;-0.8157958984375;0.0145263671875;-0.57647705078125;-0.04486083984375;1.9642134288630138;17.516681328865207;9.239072387084498;0.98046875;0.05078125;-0.33544921875;-8.3125;-14.875;-10.25;
1441975312878919;-0.81744384765625;0.013916015625;-0.5740966796875;-0.04638671875;1.999262160207862;17.495916767740106;9.255945882525559;0.94384765625;0.044921875;-0.3310546875;-8.0625;-16.0;-10.125;
1441975312893920;-0.8189697265625;0.01324462890625;-0.57177734375;-0.0472412109375;2.0324064024974704;17.48394355783968;9.267024765626806;0.9130859375;0.04833984375;-0.32666015625;-5.375;-16.4375;-9.1875;
1441975312907921;-0.8204345703125;0.01263427734375;-0.5697021484375;-0.047607421875;2.062327866563721;17.478901321824154;9.272962154433491;0.90087890625;0.06298828125;-0.328125;-1.5625;-15.625;-6.5;
1441975312929922;-0.82171630859375;0.0123291015625;-0.56781005859375;-0.04766845703125;2.0886894532877007;17.480195855859307;9.272563571721143;0.8955078125;0.1015625;-0.34326171875;1.5625;-13.625;-2.125;
1441975312953924;-0.8228759765625;0.0126953125;-0.56610107421875;-0.048095703125;2.112153810517828;17.48221613410956;9.267178774494983;0.8857421875;0.1337890625;-0.35205078125;2.5;-11.6875;2.5;
1441975312967924;-0.82379150390625;0.01434326171875;-0.56463623046875;-0.0489501953125;2.130741480254533;17.489188181710546;9.24980154535558;0.880859375;0.169921875;-0.35986328125;-0.5;-10.25;7.0;
1441975312989926;-0.82452392578125;0.01727294921875;-0.5633544921875;-0.05035400390625;2.145594894156732;17.49957151010031;9.221464806885331;0.888671875;0.1669921875;-0.35107421875;-6.5625;-9.8125;11.5625;
1441975313013927;-0.8250732421875;0.02117919921875;-0.56231689453125;-0.05169677734375;2.1560120600437642;17.51841430103948;9.180902287095952;0.8818359375;0.1640625;-0.333984375;-13.1875;-9.625;15.6875;
1441975313027928;-0.8253173828125;0.02569580078125;-0.56170654296875;-0.052978515625;2.1600369884910986;17.54223547532441;9.133121147840253;0.87158203125;0.1474609375;-0.3310546875;-16.75;-8.0625;19.375;
1441975313050929;-0.82525634765625;0.03045654296875;-0.5614013671875;-0.05377197265625;2.159016756691622;17.57371020081985;9.078690226054059;0.8662109375;0.13232421875;-0.32080078125;-18.625;-6.0625;22.375;
1441975313073931;-0.8250732421875;0.03497314453125;-0.5614013671875;-0.05413818359375;2.1547277363363095;17.60826535963315;9.023989713181832;0.86767578125;0.11669921875;-0.318359375;-17.25;-4.125;24.0;
1441975313087931;-0.82476806640625;0.039306640625;-0.56158447265625;-0.05419921875;2.1484028245442155;17.645134631756804;8.969004698390052;0.88037109375;0.10791015625;-0.31640625;-14.75;-2.625;24.1875;
1441975313111933;-0.82421875;0.04339599609375;-0.5621337890625;-0.0540771484375;2.137626089084315;17.682221711117975;8.915598881169014;0.8916015625;0.11083984375;-0.326171875;-12.5;-0.5625;24.625;
1441975313132934;-0.82342529296875;0.04718017578125;-0.56298828125;-0.05364990234375;2.1229614171346496;17.72086597799328;8.863169792635453;0.92578125;0.11328125;-0.33544921875;-10.5625;1.25;24.9375;
1441975313155935;-0.82244873046875;0.050537109375;-0.564208984375;-0.05291748046875;2.104259233764617;17.76025552610431;8.813067440971183;0.9658203125;0.11328125;-0.32666015625;-8.0625;2.1875;24.75;
1441975313170936;-0.8211669921875;0.05377197265625;-0.5657958984375;-0.05206298828125;2.080649167336369;17.800990738470738;8.762648054968139;1.0283203125;0.12451171875;-0.32666015625;-5.125;3.0625;25.0;
1441975313192937;-0.8197021484375;0.0570068359375;-0.56768798828125;-0.05181884765625;2.053316277907606;17.834714093647474;8.716781096184379;1.14306640625;0.15478515625;-0.36767578125;-2.9375;6.1875;26.875;
1441975313207938;-0.81842041015625;0.06048583984375;-0.569091796875;-0.05267333984375;2.0317804501660723;17.856613159449726;8.677140430144773;1.22216796875;0.158203125;-0.39453125;-6.0625;8.5625;25.875;
1441975313230940;-0.81768798828125;0.06427001953125;-0.56951904296875;-0.05517578125;2.0225684521424263;17.858867813149836;8.64899932328985;1.13330078125;0.08935546875;-0.375;-13.5;7.0625;19.0625;
1441975313253941;-0.817626953125;0.068603515625;-0.568603515625;-0.059326171875;2.029745358454009;17.843044871926832;8.629688678226117;0.9873046875;0.0;-0.30712890625;-24.375;0.1875;8.875;
1441975313275942;-0.818115234375;0.073486328125;-0.5667724609375;-0.06390380859375;2.04894389949036;17.82588873445753;8.607552581591715;0.87158203125;-0.048828125;-0.2744140625;-35.5625;-7.0625;1.875;
1441975313289943;-0.819091796875;0.07733154296875;-0.56451416015625;-0.06719970703125;2.0756825460384345;17.815780499967655;8.587871544567333;0.82958984375;-0.1171875;-0.2783203125;-41.0625;-12.25;-1.75;
1441975313313944;-0.82049560546875;0.07867431640625;-0.5621337890625;-0.06842041015625;2.1068825087199765;17.810002451578377;8.582725301590601;0.837890625;-0.171875;-0.27880859375;-33.5;-16.375;-6.4375;
1441975313345946;-0.822509765625;0.077392578125;-0.55938720703125;-0.0679931640625;2.1458690325577034;17.802001907581037;8.597413652742128;0.8603515625;-0.15185546875;-0.27490234375;-14.5;-19.3125;-10.6875;
1441975313358947;-0.82513427734375;0.074951171875;-0.55584716796875;-0.0679931640625;2.196080281151901;17.77852588589689;8.630514420655167;0.8955078125;-0.078125;-0.29833984375;2.8125;-22.75;-13.25;
1441975313373948;-0.828125;0.0731201171875;-0.55145263671875;-0.06976318359375;2.2564352739415394;17.739104493982026;8.669589531523568;0.93701171875;0.01904296875;-0.34716796875;7.3125;-26.1875;-14.6875;
1441975313405950;-0.8310546875;0.0732421875;-0.5465087890625;-0.07354736328125;2.321365565964682;17.69281067726507;8.698955653406724;0.97607421875;0.09912109375;-0.396484375;-1.5;-29.25;-13.25;
1441975313418950;-0.83349609375;0.07537841796875;-0.54168701171875;-0.07891845703125;2.38170933026631;17.645154587391854;8.714658712125832;0.9990234375;0.10009765625;-0.43310546875;-18.125;-30.5625;-10.9375;
1441975313441952;-0.83563232421875;0.07855224609375;-0.537109375;-0.0845947265625;2.4376090619524695;17.603137442093182;8.719095481374943;1.01220703125;0.0498046875;-0.4580078125;-33.1875;-28.5;-10.25;
1441975313455952;-0.83758544921875;0.08203125;-0.53271484375;-0.08978271484375;2.4905252686613992;17.56984281071661;8.715488388740921;0.99658203125;-0.01220703125;-0.46923828125;-40.3125;-26.1875;-10.1875;
1441975313469953;-0.8394775390625;0.0855712890625;-0.5284423828125;-0.09405517578125;2.5418203491201266;17.54783296234732;8.704075881171892;0.93701171875;-0.06591796875;-0.45068359375;-40.4375;-25.0;-10.625;
1441975313493955;-0.8411865234375;0.0892333984375;-0.52447509765625;-0.09735107421875;2.5889358798841267;17.53759293608672;8.684416420218867;0.87353515625;-0.08935546875;-0.43017578125;-37.1875;-25.0625;-9.3125;
1441975313516956;-0.842529296875;0.09246826171875;-0.52130126953125;-0.0992431640625;2.6263602961536234;17.539511418098833;8.660333929882455;0.8525390625;-0.10205078125;-0.41650390625;-33.0;-23.875;-6.0;
1441975313529957;-0.84381103515625;0.0950927734375;-0.51873779296875;-0.0997314453125;2.657930523056673;17.55225889316075;8.634012248832247;0.8466796875;-0.11279296875;-0.4033203125;-25.25;-21.0625;-3.875;
1441975313552958;-0.84503173828125;0.09698486328125;-0.51654052734375;-0.09857177734375;2.6862602538286784;17.577498209476847;8.605177114694627;0.84326171875;-0.10986328125;-0.3994140625;-16.1875;-18.5625;-2.0625;
1441975313575959;-0.84625244140625;0.09881591796875;-0.5146484375;-0.0965576171875;2.7121218677090893;17.611026018159567;8.572006856203549;0.8681640625;-0.08642578125;-0.41943359375;-5.125;-17.0;1.375;
1441975313598961;-0.84710693359375;0.1011962890625;-0.5130615234375;-0.0950927734375;2.7328597798220033;17.641748533791688;8.537072113623491;0.90478515625;-0.05224609375;-0.4580078125;0.4375;-14.875;5.6875;
1441975313621962;-0.8475341796875;0.10491943359375;-0.51171875;-0.09466552734375;2.748413626826278;17.669782595547783;8.494887991092359;0.93115234375;-0.01904296875;-0.48046875;-3.0;-12.25;9.6875;
1441975313635963;-0.847412109375;0.11016845703125;-0.5107421875;-0.0950927734375;2.757043726985178;17.698485562218856;8.442093068815238;0.94091796875;-0.0126953125;-0.50390625;-11.75;-9.125;14.0;
1441975313649963;-0.8466796875;0.11651611328125;-0.51031494140625;-0.09600830078125;2.756982731361816;17.72939634723151;8.380501752189732;0.94189453125;-0.04443359375;-0.51123046875;-21.3125;-5.75;17.8125;
1441975313672965;-0.84552001953125;0.1231689453125;-0.5106201171875;-0.09625244140625;2.7485743572631525;17.770218314089515;8.310709609713514;0.91455078125;-0.0751953125;-0.494140625;-27.625;-1.75;20.8125;
1441975313695966;-0.843994140625;0.12969970703125;-0.51165771484375;-0.09564208984375;2.7326809387572335;17.820678383969348;8.235557634237244;0.88037109375;-0.09765625;-0.49072265625;-25.4375;3.5;24.0;
1441975313717967;-0.8421630859375;0.13629150390625;-0.51312255859375;-0.09454345703125;2.712742776232647;17.878248489218553;8.155153973718425;0.86474609375;-0.095703125;-0.49609375;-20.6875;8.375;27.4375;
1441975313732968;-0.8399658203125;0.1429443359375;-0.51519775390625;-0.09326171875;2.6865681560334216;17.940511938373714;8.070751216910255;0.8642578125;-0.07861328125;-0.5068359375;-16.875;12.25;31.25;
1441975313755970;-0.83746337890625;0.14947509765625;-0.51763916015625;-0.0921630859375;2.656318695646244;0.0024462951564363012;7.986497829173153;0.8623046875;-0.0703125;-0.4951171875;-15.5625;15.5625;33.625;
1441975313771970;-0.83465576171875;0.1561279296875;-0.520263671875;-0.09130859375;2.623869989444675;0.06501410367943568;7.900050157863239;0.85205078125;-0.0478515625;-0.4931640625;-15.125;18.75;35.0625;
1441975313792972;-0.83160400390625;0.16314697265625;-0.52313232421875;-0.09063720703125;2.5895241673200085;0.1308788971382186;7.8080907366238845;0.84130859375;-0.0390625;-0.48779296875;-15.625;21.3125;36.4375;
1441975313815973;-0.828369140625;0.17041015625;-0.52606201171875;-0.0899658203125;2.555840466023192;0.20096904895452367;7.710851728838366;0.8388671875;-0.0380859375;-0.4775390625;-17.1875;22.6875;38.375;
1441975313829974;-0.8250732421875;0.17767333984375;-0.52886962890625;-0.089599609375;2.5242534357453916;0.26963033223556393;7.613688657060301;0.85693359375;-0.04052734375;-0.47265625;-17.8125;23.5625;40.5625;
1441975313852975;-0.82177734375;0.1849365234375;-0.531494140625;-0.08990478515625;2.4945023826268415;0.33234584005460605;7.519625646068262;0.86865234375;-0.029296875;-0.4912109375;-18.6875;24.4375;40.75;
1441975313875976;-0.818603515625;0.1923828125;-0.53350830078125;-0.09130859375;2.4699329571381683;0.38356452626129134;7.4314806527779895;0.85546875;-0.0302734375;-0.490234375;-21.625;24.75;39.0625;
1441975313898978;-0.8155517578125;0.19989013671875;-0.53497314453125;-0.09356689453125;2.449825923923655;0.42472754406892005;7.3493433567953055;0.83056640625;-0.02587890625;-0.478515625;-27.6875;23.5;36.75;
1441975313921979;-0.81256103515625;0.20745849609375;-0.5362548828125;-0.0955810546875;2.4336866294163815;0.4690394123258472;7.264717657763536;0.8037109375;-0.01416015625;-0.466796875;-32.3125;21.1875;35.0;
1441975313935980;-0.8096923828125;0.21453857421875;-0.53753662109375;-0.0972900390625;2.419058085451754;0.5137455446242901;7.18303972839956;0.81298828125;-0.03955078125;-0.46826171875;-31.625;20.1875;34.625;
1441975313949981;-0.80712890625;0.22027587890625;-0.538818359375;-0.0987548828125;2.4042010944213446;0.5515785066951668;7.114945481384837;0.8408203125;-0.05615234375;-0.45703125;-28.875;18.5;32.3125;
1441975313972982;-0.80499267578125;0.22479248046875;-0.53985595703125;-0.10003662109375;2.391636388153878;0.5809837864306446;7.061125505162408;0.857421875;-0.044921875;-0.4501953125;-23.25;17.1875;28.0625;
1441975313995983;-0.80340576171875;0.228515625;-0.5404052734375;-0.101806640625;2.3825124869791643;0.5956933873138373;7.02329890349627;0.86669921875;-0.03173828125;-0.44287109375;-18.125;14.6875;23.0;
1441975314035986;-0.80218505859375;0.23162841796875;-0.5404052734375;-0.104736328125;2.3739781501248025;0.5897869860710944;7.003708527872422;0.861328125;-0.037109375;-0.4365234375;-18.25;11.875;16.5625;
1441975314057987;-0.80126953125;0.23443603515625;-0.53973388671875;-0.1083984375;2.3692050764344024;0.5694629201326081;6.99645772806372;0.85595703125;-0.0205078125;-0.423828125;-22.0;9.125;10.5625;
1441975314060987;-0.8006591796875;0.2369384765625;-0.53875732421875;-0.11260986328125;2.3657399955760883;0.5384038286870316;6.998966739244933;0.85107421875;-0.0322265625;-0.4150390625;-25.8125;6.1875;5.125;
1441975314069988;-0.80029296875;0.23858642578125;-0.53759765625;-0.11676025390625;2.3630051937929624;0.5002635267446196;7.012290353196766;0.861328125;-0.0537109375;-0.40576171875;-28.0;3.625;-0.1875;
1441975314092989;-0.80047607421875;0.23870849609375;-0.5364990234375;-0.1207275390625;2.3593355423886204;0.451692553691066;7.043531868922561;0.869140625;-0.0732421875;-0.40185546875;-25.875;2.0625;-5.9375;
1441975314123991;-0.80108642578125;0.237060546875;-0.535400390625;-0.12445068359375;2.354645021276989;0.39167556888733523;7.094730888076899;0.86669921875;-0.06640625;-0.4072265625;-19.9375;2.0;-13.25;
1441975314138991;-0.80206298828125;0.234130859375;-0.5343017578125;-0.12835693359375;2.349108419771879;0.31896416437041775;7.1634096557721705;0.8603515625;-0.03515625;-0.41162109375;-12.5;2.0;-19.5625;
1441975314152992;-0.80316162109375;0.23052978515625;-0.533203125;-0.13238525390625;2.3437615938108323;0.2392811528647779;7.24138655426042;0.85888671875;0.0068359375;-0.416015625;-8.25;2.25;-24.3125;
1441975314174994;-0.80419921875;0.22650146484375;-0.53240966796875;-0.13629150390625;2.336475839078858;0.15878872250255988;7.322631032470766;0.8857421875;0.04296875;-0.4462890625;-5.9375;3.5625;-26.25;
1441975314198995;-0.80517578125;0.22161865234375;-0.5321044921875;-0.13970947265625;2.325899915581858;0.07884195622111015;7.409152515307418;0.92333984375;0.02783203125;-0.44921875;-4.375;4.8125;-29.3125;
1441975314212996;-0.80615234375;0.2159423828125;-0.5322265625;-0.14251708984375;2.3135162551687327;5.801384509760396E-4;7.500051263006501;0.97998046875;0.029296875;-0.45263671875;0.375;5.6875;-31.875;
1441975314234997;-0.8072509765625;0.20977783203125;-0.53216552734375;-0.14544677734375;2.3046012649482686;17.915458228812245;7.599203023161236;1.04345703125;0.0341796875;-0.4609375;6.4375;6.5625;-33.75;
1441975314249998;-0.80853271484375;0.20391845703125;-0.53173828125;-0.14837646484375;2.3029224989498616;17.830956090279543;7.696318846367802;1.00732421875;0.0400390625;-0.42822265625;6.8125;5.0625;-36.6875;
1441975314272999;-0.8099365234375;0.19830322265625;-0.53094482421875;-0.15118408203125;2.308124822464375;17.74888553100347;7.790258682573653;0.943359375;0.02734375;-0.380859375;5.0;1.0;-37.9375;
1441975314295000;-0.8115234375;0.192138671875;-0.53021240234375;-0.1531982421875;2.31681195265075;17.672376017669304;7.884268505204056;0.8984375;-0.01953125;-0.3525390625;2.8125;-1.75;-40.125;
1441975314313001;-0.81329345703125;0.1849365234375;-0.52984619140625;-0.1539306640625;2.3262837897414212;17.60413750964227;7.979869876611686;0.8857421875;-0.0283203125;-0.34375;8.0625;-2.4375;-41.75;
1441975314349003;-0.8154296875;0.17681884765625;-0.52947998046875;-0.1536865234375;2.340632891326282;17.540918574766124;8.078423036699753;0.91162109375;-0.0068359375;-0.35498046875;18.0625;-2.125;-42.0625;
1441975314355004;-0.81781005859375;0.1683349609375;-0.5286865234375;-0.15325927734375;2.362432308395675;17.477605069099617;8.179119686103817;0.935546875;0.029296875;-0.3759765625;26.4375;-3.0;-42.0;
1441975314373005;-0.8201904296875;0.16021728515625;-0.52740478515625;-0.15350341796875;2.3901951671137946;17.410427931135125;8.279066008977097;0.9541015625;0.06396484375;-0.390625;28.75;-5.3125;-42.125;
1441975314393006;-0.82232666015625;0.153076171875;-0.52587890625;-0.1544189453125;2.4199865069941513;17.344619189958742;8.370571393559294;0.9677734375;0.08740234375;-0.38671875;24.4375;-8.0625;-42.125;
1441975314415007;-0.8240966796875;0.14691162109375;-0.524658203125;-0.15521240234375;2.4456691375184336;17.289307296660937;8.44809716462264;0.9873046875;0.08935546875;-0.3779296875;17.75;-9.9375;-40.4375;
1441975314438009;-0.82574462890625;0.1407470703125;-0.52362060546875;-0.155517578125;2.47003691301793;17.240890589249148;8.52078044060678;1.02685546875;0.052734375;-0.36767578125;14.125;-10.5;-38.375;
1441975314453009;-0.8275146484375;0.13427734375;-0.522705078125;-0.1549072265625;2.495110324194426;17.2019656852204;8.589160003864123;1.04638671875;0.03125;-0.3583984375;15.9375;-10.8125;-38.0625;
1441975314484011;-0.829345703125;0.1275634765625;-0.521728515625;-0.15399169921875;2.5220682929666776;17.16590129838756;8.656939054482224;1.0361328125;0.029296875;-0.35498046875;20.9375;-11.25;-37.9375;
1441975314499012;-0.8311767578125;0.1209716796875;-0.52069091796875;-0.1533203125;2.550292247178266;17.129122298097084;8.72392466861623;1.0009765625;0.0341796875;-0.3466796875;23.1875;-11.625;-37.6875;
1441975314523013;-0.8328857421875;0.11468505859375;-0.51947021484375;-0.1529541015625;2.580040225783492;17.092197323339807;8.788351152681987;0.9638671875;0.05224609375;-0.3271484375;22.25;-12.125;-37.0;
1441975314544015;-0.83447265625;0.10882568359375;-0.5181884765625;-0.15289306640625;2.609957091885059;17.0558802546598;8.84906718346201;0.92333984375;0.07275390625;-0.32275390625;20.125;-12.0625;-35.4375;
1441975314550015;-0.83587646484375;0.103271484375;-0.51708984375;-0.15289306640625;2.63725712833524;17.021562854726852;8.906315540569038;0.89111328125;0.08740234375;-0.3203125;17.5;-11.6875;-33.3125;
1441975314574016;-0.8370361328125;0.09814453125;-0.51629638671875;-0.15252685546875;2.659696988619108;16.994158068004438;8.956472156249617;0.8759765625;0.11279296875;-0.314453125;17.0;-10.625;-30.4375;
1441975314595018;-0.83782958984375;0.093505859375;-0.51605224609375;-0.15185546875;2.6739382088070274;16.972491146320372;9.00029770540729;0.873046875;0.13427734375;-0.32470703125;18.0625;-8.5;-26.0625;
1441975314610018;-0.83837890625;0.089599609375;-0.51611328125;-0.15106201171875;2.6826397390359578;16.95636293214066;9.036139001156107;0.90673828125;0.16259765625;-0.3330078125;18.625;-5.8125;-20.8125;
1441975314633020;-0.83843994140625;0.086669921875;-0.5166015625;-0.1505126953125;2.6830358770334546;16.942581836880898;9.064587026575762;0.9443359375;0.19287109375;-0.35400390625;17.625;-4.0;-15.125;
1441975314655021;-0.83831787109375;0.0850830078125;-0.51715087890625;-0.150634765625;2.680187771255949;16.929947284919113;9.083537348361245;0.9765625;0.2041015625;-0.34619140625;13.5;-2.9375;-10.3125;
1441975314670022;-0.83782958984375;0.08465576171875;-0.51776123046875;-0.15130615234375;2.673150958154529;16.918132418862907;9.094437728227325;0.982421875;0.20947265625;-0.337890625;6.625;-3.3125;-5.8125;
1441975314693023;-0.83709716796875;0.08514404296875;-0.5185546875;-0.15234375;2.6616622851006224;16.907555405436856;9.098800119627517;0.962890625;0.1943359375;-0.32177734375;-0.25;-3.0625;-2.5;
1441975314717025;-0.83624267578125;0.0863037109375;-0.519287109375;-0.15374755859375;2.649214948417041;16.897249211012948;9.098509341031829;0.94873046875;0.16552734375;-0.3056640625;-5.4375;-2.5625;-0.1875;
1441975314730025;-0.8353271484375;0.087890625;-0.52008056640625;-0.15521240234375;2.63506066551903;16.88885340105181;9.094313351050653;0.92236328125;0.15576171875;-0.30517578125;-9.375;-1.9375;1.3125;
1441975314753027;-0.8343505859375;0.08984375;-0.5208740234375;-0.15673828125;2.619891183985978;16.882094884196235;9.086693837717057;0.9140625;0.15087890625;-0.30859375;-11.6875;-1.125;3.3125;
1441975314777028;-0.833251953125;0.0919189453125;-0.52178955078125;-0.158203125;2.6024998416963356;16.876374131833547;9.077796221212461;0.91357421875;0.15478515625;-0.3193359375;-12.875;-0.25;4.8125;
1441975314790029;-0.83209228515625;0.093994140625;-0.52294921875;-0.15936279296875;2.582010748557668;16.87350489629037;9.06744369445739;0.91943359375;0.16552734375;-0.32763671875;-12.8125;0.9375;6.5625;
1441975314813030;-0.830810546875;0.09619140625;-0.5242919921875;-0.16021728515625;2.558414945068925;16.874348652742697;9.054184169863058;0.927734375;0.173828125;-0.32666015625;-11.25;2.25;8.1875;
1441975314837031;-0.8294677734375;0.0985107421875;-0.52581787109375;-0.16094970703125;2.5323295221961426;16.877128813804315;9.039094842876223;0.93212890625;0.17236328125;-0.33251953125;-10.0625;3.375;9.8125;
1441975314854032;-0.827880859375;0.1011962890625;-0.52764892578125;-0.16131591796875;2.5007510589258515;16.885819459697366;9.018156626844396;0.92822265625;0.18115234375;-0.3330078125;-9.5;4.75;12.0;
1441975314873033;-0.82611083984375;0.1041259765625;-0.5299072265625;-0.161376953125;2.463261637890562;16.899124103074566;8.993061913229864;0.9404296875;0.17822265625;-0.333984375;-9.5;6.75;15.0625;
1441975314895035;-0.8240966796875;0.10699462890625;-0.532470703125;-0.16107177734375;2.4211955968053562;16.915838933047258;8.966360674951053;0.96533203125;0.17578125;-0.34814453125;-8.3125;9.375;17.5625;
1441975314912036;-0.822021484375;0.1099853515625;-0.53521728515625;-0.16070556640625;2.376879907028125;16.934597289289812;8.937481888484882;0.98095703125;0.1845703125;-0.35986328125;-6.3125;12.25;19.25;
1441975314933037;-0.8197021484375;0.11334228515625;-0.53802490234375;-0.16070556640625;2.330394440975021;16.95218583324275;8.906670444039031;0.9609375;0.1728515625;-0.3583984375;-6.9375;14.0625;20.375;
1441975314955038;-0.8172607421875;0.11724853515625;-0.5408935546875;-0.16082763671875;2.2819771453398747;16.973396513536635;8.869489528626078;0.93994140625;0.17626953125;-0.35205078125;-9.4375;15.375;21.8125;
1441975314972039;-0.81463623046875;0.12139892578125;-0.5438232421875;-0.1611328125;2.2318471040481143;16.99521080818559;8.829903354294313;0.91455078125;0.14892578125;-0.34912109375;-12.625;16.625;23.125;
1441975314993040;-0.8121337890625;0.12542724609375;-0.5467529296875;-0.160888671875;2.1824970771992436;17.024541584003014;8.785645853044105;0.8974609375;0.13671875;-0.3369140625;-14.3125;17.5625;23.6875;
1441975315015042;-0.80963134765625;0.12921142578125;-0.5498046875;-0.1600341796875;2.1322809477135882;17.061154476379382;8.737681976334855;0.90283203125;0.1279296875;-0.34375;-11.8125;18.0;24.5;
1441975315032043;-0.80731201171875;0.13238525390625;-0.55291748046875;-0.15850830078125;2.0834943253234104;17.103289125238057;8.689588089820374;0.9189453125;0.1142578125;-0.3447265625;-8.1875;18.125;24.75;
1441975315056044;-0.80523681640625;0.1348876953125;-0.555908203125;-0.156494140625;2.038449965846373;17.148210283671023;8.643489626989453;0.93798828125;0.10888671875;-0.34716796875;-2.8125;18.125;23.9375;
1441975315084046;-0.8033447265625;0.13702392578125;-0.55859375;-0.154541015625;1.998317525059121;17.191136309673514;8.600510304882677;0.9521484375;0.1123046875;-0.3525390625;2.125;17.4375;22.8125;
1441975315092046;-0.8016357421875;0.13916015625;-0.5609130859375;-0.15313720703125;1.9633573399184567;17.22846230115671;8.560765004693028;0.9638671875;0.12255859375;-0.35107421875;2.8125;15.875;21.5;
1441975315123048;-0.80010986328125;0.14141845703125;-0.562744140625;-0.1524658203125;1.9344975781407614;17.25832138917963;8.52479240713541;0.9599609375;0.12109375;-0.349609375;0.625;14.375;19.875;
1441975315144049;-0.79876708984375;0.143798828125;-0.5640869140625;-0.15234375;1.911586950773896;17.282758765086506;8.49128586886404;0.95068359375;0.11279296875;-0.3486328125;-3.625;12.4375;17.3125;
1441975315152049;-0.79766845703125;0.1461181640625;-0.56494140625;-0.1524658203125;1.8950506112231744;17.30389819976191;8.460134341683561;0.9375;0.103515625;-0.341796875;-7.0;10.125;14.9375;
1441975315173051;-0.79693603515625;0.14813232421875;-0.5654296875;-0.15264892578125;1.884643511680816;17.32161790065063;8.433385627265078;0.9326171875;0.083984375;-0.341796875;-8.375;7.6875;12.375;
1441975315195052;-0.79656982421875;0.149658203125;-0.5655517578125;-0.15283203125;1.880388899233878;17.334612125631452;8.413322643687206;0.9267578125;0.0703125;-0.337890625;-7.875;5.0625;9.4375;
1441975315212053;-0.7965087890625;0.1507568359375;-0.56524658203125;-0.15301513671875;1.8823589227491875;17.34326110406363;8.399209281993256;0.919921875;0.0771484375;-0.34033203125;-5.875;2.6875;7.0625;
1441975315241055;-0.79669189453125;0.15142822265625;-0.56475830078125;-0.1533203125;1.8878115418939938;17.34577145588916;8.392511712846746;0.921875;0.07958984375;-0.3466796875;-4.75;0.8125;4.875;
1441975315255055;-0.79718017578125;0.1517333984375;-0.56390380859375;-0.153564453125;1.8988550389043444;17.345390272268023;8.390362488017894;0.921875;0.083984375;-0.34375;-3.8125;-0.875;2.4375;
1441975315273056;-0.79779052734375;0.15191650390625;-0.5628662109375;-0.15386962890625;1.9124465800030492;17.342888706808118;8.390522448120114;0.9189453125;0.09033203125;-0.35791015625;-2.3125;-2.25;0.5625;
1441975315301058;-0.798583984375;0.15185546875;-0.5616455078125;-0.1541748046875;1.9290549715442369;17.337981787967365;8.394065509875327;0.91748046875;0.0908203125;-0.35888671875;-2.0625;-3.375;-0.5625;
1441975315323059;-0.79937744140625;0.15179443359375;-0.560546875;-0.1544189453125;1.9445428879037365;17.334038927490262;8.396998788331288;0.91259765625;0.09814453125;-0.36669921875;-1.4375;-4.0625;-1.125;
1441975315350061;-0.80010986328125;0.1514892578125;-0.55950927734375;-0.154541015625;1.9591804998393352;17.32941345903863;8.402083052131783;0.90966796875;0.09521484375;-0.3544921875;-0.9375;-4.4375;-1.5625;
1441975315362061;-0.8009033203125;0.15093994140625;-0.55853271484375;-0.1544189453125;1.9738075122819716;17.325893781230498;8.408130879230317;0.90380859375;0.0947265625;-0.35009765625;0.3125;-4.625;-2.0;
1441975315394063;-0.80169677734375;0.1502685546875;-0.55767822265625;-0.15423583984375;1.9873629462865228;17.322127331586906;8.415271343164681;0.9052734375;0.09814453125;-0.34765625;2.375;-4.4375;-2.125;
1441975315398063;-0.8023681640625;0.149658203125;-0.556884765625;-0.15399169921875;1.9995294034276323;17.319792964228544;8.420926178067885;0.90966796875;0.107421875;-0.35107421875;3.5625;-3.8125;-1.8125;
1441975315416065;-0.802978515625;0.149169921875;-0.55621337890625;-0.15386962890625;2.0100797346703327;17.317003543466228;8.426111674124815;0.9208984375;0.111328125;-0.353515625;3.5625;-3.75;-1.3125;
1441975315443066;-0.80352783203125;0.14862060546875;-0.55560302734375;-0.15380859375;2.0196795710886324;17.312817146962722;8.43269480808394;0.92138671875;0.10400390625;-0.34619140625;2.75;-3.625;-1.5;
1441975315452067;-0.80401611328125;0.14813232421875;-0.5550537109375;-0.15362548828125;2.0282985412032852;17.31087817503782;8.437276400114051;0.92431640625;0.0986328125;-0.3427734375;2.25;-3.375;-1.9375;
1441975315473068;-0.804443359375;0.14752197265625;-0.55462646484375;-0.15350341796875;2.035427958700151;17.306969345635537;8.444128245467386;0.9228515625;0.08740234375;-0.34423828125;2.5;-2.8125;-2.25;
1441975315495069;-0.8048095703125;0.1468505859375;-0.5543212890625;-0.15350341796875;2.0410379614587284;17.300855731518375;8.452994428264295;0.9189453125;0.08447265625;-0.337890625;2.5625;-2.5625;-2.9375;
1441975315513070;-0.80517578125;0.1461181640625;-0.553955078125;-0.15338134765625;2.0472756685409057;17.295840084077327;8.461445015704893;0.919921875;0.0908203125;-0.322265625;2.5;-2.625;-3.1875;
1441975315533071;-0.80548095703125;0.145263671875;-0.5538330078125;-0.1533203125;2.050899060743214;17.288877675583503;8.47225047354554;0.93603515625;0.0830078125;-0.3388671875;2.5;-2.375;-3.6875;
1441975315555072;-0.80572509765625;0.1441650390625;-0.55377197265625;-0.15301513671875;2.0537186149439535;17.282880443652488;8.4840547097845;0.9423828125;0.0830078125;-0.330078125;3.1875;-1.6875;-4.625;
1441975315572073;-0.80596923828125;0.1429443359375;-0.5538330078125;-0.15264892578125;2.0554856050523425;17.276583536994675;8.49700315174746;0.93798828125;0.08056640625;-0.33642578125;4.9375;-0.6875;-4.625;
1441975315593075;-0.8062744140625;0.14154052734375;-0.55389404296875;-0.15234375;2.0577919876842166;17.26783808335926;8.512944873914195;0.9404296875;0.0869140625;-0.33984375;5.9375;0.0625;-4.875;
1441975315615076;-0.80645751953125;0.14031982421875;-0.553955078125;-0.1522216796875;2.059221724337264;17.25826603479123;8.528133418460483;0.93359375;0.08837890625;-0.33984375;6.0;0.4375;-5.375;
1441975315639077;-0.8065185546875;0.13934326171875;-0.55401611328125;-0.15234375;2.0597400373359696;17.247604443569085;8.542340591070653;0.931640625;0.0908203125;-0.33154296875;4.625;0.125;-5.4375;
1441975315653078;-0.80657958984375;0.138427734375;-0.55419921875;-0.15228271484375;2.0590803114584557;17.23993251332217;8.554155003464682;0.9248046875;0.08544921875;-0.32421875;2.75;0.125;-5.1875;
1441975315700081;-0.806640625;0.137451171875;-0.554443359375;-0.1519775390625;2.057878159996217;17.23492806492697;8.564583077394095;0.931640625;0.076171875;-0.33056640625;2.875;0.6875;-4.9375;
1441975315702081;-0.80670166015625;0.13629150390625;-0.5548095703125;-0.15142822265625;2.055643297294924;17.23143543668155;8.575324137507753;0.9384765625;0.07177734375;-0.33154296875;4.4375;1.25;-4.6875;
1441975315722082;-0.8067626953125;0.13507080078125;-0.55511474609375;-0.1510009765625;2.054063229072242;17.22574560007438;8.587964152351564;0.947265625;0.07763671875;-0.33447265625;6.25;1.5;-4.5;
1441975315737083;-0.8067626953125;0.134033203125;-0.555419921875;-0.15081787109375;2.0520076834439416;17.218416290612637;8.600470192697308;0.9482421875;0.087890625;-0.33935546875;6.0625;1.5625;-4.4375;
1441975315753084;-0.806640625;0.13330078125;-0.5557861328125;-0.1507568359375;2.0483769090593484;17.21211537320608;8.61017425691408;0.9404296875;0.09521484375;-0.333984375;4.4375;1.9375;-3.9375;
1441975315773085;-0.80645751953125;0.13275146484375;-0.5562744140625;-0.150634765625;2.0430434930151486;17.208195937483346;8.617055622274268;0.9423828125;0.0859375;-0.33349609375;2.5625;2.3125;-3.4375;
1441975315795086;-0.80621337890625;0.132080078125;-0.556884765625;-0.1502685546875;2.0362105749423627;17.20625357077069;8.623486152282313;0.94140625;0.07958984375;-0.33544921875;2.1875;2.875;-2.875;
1441975315812087;-0.8060302734375;0.13116455078125;-0.5574951171875;-0.1497802734375;2.0299588744971664;17.20369905971445;8.632054709779847;0.935546875;0.07275390625;-0.32373046875;3.5;3.3125;-2.6875;
1441975315833088;-0.80572509765625;0.13031005859375;-0.55828857421875;-0.149169921875;2.0211062796472548;17.203095825510086;8.638967297611975;0.94091796875;0.09033203125;-0.3359375;5.25;3.875;-2.1875;
1441975315855090;-0.80535888671875;0.1295166015625;-0.55908203125;-0.14862060546875;2.0118192933079375;17.202133118402646;8.645695391762002;0.94677734375;0.0908203125;-0.3310546875;5.875;4.625;-1.4375;
1441975315872091;-0.8050537109375;0.12884521484375;-0.55987548828125;-0.14813232421875;2.0028449197800335;17.20155475703111;8.651349556804249;0.94287109375;0.0966796875;-0.32763671875;5.5;4.6875;-0.9375;
1441975315894092;-0.8046875;0.12835693359375;-0.56060791015625;-0.14788818359375;1.9939599267911605;17.19932515296174;8.656831170080396;0.94580078125;0.0947265625;-0.32373046875;4.6875;4.5;-0.5625;
1441975315917093;-0.80426025390625;0.12811279296875;-0.561279296875;-0.147705078125;1.9850429551763762;17.198540988207856;8.65953672979326;0.94921875;0.0986328125;-0.32421875;2.9375;4.1875;-0.1875;
1441975315932094;-0.80389404296875;0.12799072265625;-0.56182861328125;-0.1475830078125;1.977576356014937;17.198239595273293;8.660971333609158;0.94921875;0.0927734375;-0.32080078125;1.6875;3.875;0.0;
1441975315954095;-0.80364990234375;0.12786865234375;-0.562255859375;-0.14739990234375;1.9720295453265393;17.199008040242347;8.66158191647138;0.94921875;0.08544921875;-0.3212890625;1.0;3.3125;0.125;
1441975315977097;-0.8033447265625;0.127685546875;-0.562744140625;-0.1473388671875;1.965613049321359;17.197371114291588;8.664351613086858;0.94775390625;0.0859375;-0.32763671875;1.125;2.75;-0.0625;
1441975315992097;-0.80316162109375;0.12750244140625;-0.5631103515625;-0.14727783203125;1.9611402868741998;17.195958425283195;8.666896859281344;0.94482421875;0.08740234375;-0.3125;1.0625;2.3125;-0.3125;
1441975316031100;-0.802978515625;0.1273193359375;-0.5633544921875;-0.1473388671875;1.9578525328083678;17.192912418184342;8.670484339758318;0.9423828125;0.08544921875;-0.314453125;0.9375;2.125;-0.5625;
1441975316035100;-0.8028564453125;0.1273193359375;-0.56341552734375;-0.14764404296875;1.9565996541572255;17.188465383036842;8.673651903559342;0.94091796875;0.09765625;-0.3203125;0.125;1.5625;-0.5625;
1441975316052101;-0.802734375;0.12738037109375;-0.56353759765625;-0.14794921875;1.9547237431021922;17.184578229918422;8.67606317553936;0.94287109375;0.10400390625;-0.32470703125;-1.125;1.125;-0.125;
1441975316075102;-0.80267333984375;0.12744140625;-0.5635986328125;-0.14813232421875;1.9537700546337575;17.182509517076205;8.677148052727452;0.943359375;0.0966796875;-0.31982421875;-1.5;1.0;-0.1875;
1441975316095103;-0.80267333984375;0.12744140625;-0.56353759765625;-0.1480712890625;1.9543125155191752;17.183396273555676;8.67645764917802;0.94140625;0.09326171875;-0.3251953125;-1.0625;0.6875;-0.375;
1441975316112104;-0.8026123046875;0.1273193359375;-0.563720703125;-0.14794921875;1.952272047157279;17.18368707346938;8.677249856364288;0.93994140625;0.08447265625;-0.32763671875;0.0625;0.8125;-0.25;
1441975316134106;-0.80267333984375;0.1273193359375;-0.56365966796875;-0.14801025390625;1.9532685871806463;17.182963374737064;8.677727595671954;0.94677734375;0.087890625;-0.3251953125;0.9375;1.0;-0.4375;
1441975316155107;-0.80267333984375;0.12725830078125;-0.56365966796875;-0.14801025390625;1.953327251306378;17.182360251928998;8.678576677904669;0.9296875;0.10302734375;-0.3212890625;0.5625;0.8125;-0.6875;
1441975316172108;-0.80267333984375;0.12725830078125;-0.56365966796875;-0.14801025390625;1.953327251306378;17.182360251928998;8.678576677904669;0.9345703125;0.10302734375;-0.33203125;-0.25;0.6875;-0.1875;
1441975316194109;-0.80267333984375;0.12701416015625;-0.56378173828125;-0.1478271484375;1.9523498261251304;17.18241806458113;8.680339655346014;0.94482421875;0.09765625;-0.32568359375;0.0;0.875;-0.5625;
1441975316215110;-0.80267333984375;0.12652587890625;-0.56396484375;-0.14739990234375;1.9509365749480068;17.183420097255155;8.68317561042778;0.93408203125;0.09423828125;-0.32763671875;1.875;1.25;-0.5;
1441975316232111;-0.80267333984375;0.1260986328125;-0.56414794921875;-0.147216796875;1.9495689528098892;17.181623493006636;8.687580071144964;0.93212890625;0.099609375;-0.328125;3.5625;1.9375;0.0;
1441975316256113;-0.8026123046875;0.125732421875;-0.56427001953125;-0.1473388671875;1.9484440916615298;17.17612458596293;8.694112228263593;0.93310546875;0.11474609375;-0.33251953125;2.8125;2.0;0.1875;
1441975316283114;-0.8026123046875;0.12542724609375;-0.56414794921875;-0.1478271484375;1.9501120640803409;17.16638652645973;8.703013869527561;0.9306640625;0.1142578125;-0.3212890625;1.0625;1.5625;-0.6875;
1441975316292115;-0.80267333984375;0.12518310546875;-0.56402587890625;-0.1485595703125;1.9522629227186545;17.153966445365263;8.713416570126517;0.92431640625;0.11572265625;-0.322265625;-1.0625;0.5625;-1.5;
1441975316314116;-0.80279541015625;0.124755859375;-0.563720703125;-0.149169921875;1.956679591152494;17.141709858780555;8.724787223390406;0.919921875;0.10791015625;-0.3125;-2.1875;-0.125;-2.75;
1441975316337117;-0.80303955078125;0.12396240234375;-0.5633544921875;-0.14971923828125;1.9628749433315273;17.127014639324244;8.740368013536326;0.91650390625;0.109375;-0.3154296875;-1.25;-0.625;-3.625;
1441975316352118;-0.803466796875;0.1229248046875;-0.56280517578125;-0.15045166015625;1.9724303934556642;17.10800080174647;8.760513735984562;0.9208984375;0.11865234375;-0.3212890625;0.3125;-1.0625;-4.5;
1441975316374119;-0.803955078125;0.1219482421875;-0.5621337890625;-0.15142822265625;1.9837020337318292;17.086657163919014;8.78170962688655;0.92138671875;0.13818359375;-0.32421875;0.6875;-1.8125;-5.25;
1441975316395121;-0.80438232421875;0.12091064453125;-0.56134033203125;-0.15277099609375;1.9961697899534956;17.06000449801695;8.806835764791723;0.908203125;0.1435546875;-0.32373046875;-0.5;-2.4375;-6.125;
1441975316412121;-0.8048095703125;0.11993408203125;-0.56048583984375;-0.15447998046875;2.00958306024255;17.029373717708385;8.834166492917127;0.9130859375;0.15625;-0.32470703125;-2.1875;-2.6875;-6.625;
1441975316435123;-0.80517578125;0.11883544921875;-0.55963134765625;-0.15643310546875;2.0232036425117315;16.994573902339653;8.865122879233528;0.91552734375;0.1611328125;-0.3232421875;-3.9375;-2.5625;-7.875;
1441975316455124;-0.805419921875;0.11773681640625;-0.5589599609375;-0.1585693359375;2.034780203663063;16.95722687194988;8.897935944251088;0.90478515625;0.1650390625;-0.3232421875;-4.625;-2.0625;-9.0625;
1441975316472125;-0.8055419921875;0.1165771484375;-0.55841064453125;-0.16064453125;2.0447686965948133;16.920036550310105;8.931083345560575;0.9072265625;0.1640625;-0.322265625;-5.5625;-1.125;-9.6875;
1441975316494126;-0.80572509765625;0.11505126953125;-0.557861328125;-0.1624755859375;2.055805481489662;16.88321319552499;8.966375008838256;0.9111328125;0.16748046875;-0.32421875;-5.25;-0.125;-9.9375;
1441975316517127;-0.80596923828125;0.113037109375;-0.55755615234375;-0.16387939453125;2.0656564251903355;16.847656158209034;9.004344833842264;0.900390625;0.16455078125;-0.32861328125;-3.25;0.5;-11.0;
1441975316538129;-0.80615234375;0.11041259765625;-0.55755615234375;-0.1646728515625;2.0729882536485267;16.814137993285552;9.045403443228583;0.90234375;0.162109375;-0.32275390625;0.75;1.125;-12.375;
1441975316554130;-0.8062744140625;0.107177734375;-0.557861328125;-0.1651611328125;2.07827880577991;16.7785658092239;9.092413055625842;0.91748046875;0.162109375;-0.32080078125;5.1875;2.6875;-13.375;
1441975316575131;-0.8065185546875;0.1031494140625;-0.558349609375;-0.1651611328125;2.084021972033797;16.742440064366285;9.14540126556568;0.919921875;0.1689453125;-0.32373046875;9.0;4.6875;-14.5;
1441975316598132;-0.80657958984375;0.09893798828125;-0.5589599609375;-0.16522216796875;2.0885118217645036;16.703280484819352;9.201870656227555;0.9189453125;0.18017578125;-0.32666015625;14.0;5.9375;-16.4375;
1441975316622133;-0.806396484375;0.0946044921875;-0.55987548828125;-0.16558837890625;2.0901421991802107;16.6577170069819;9.264053155814294;0.9228515625;0.17822265625;-0.3125;14.125;6.625;-17.5625;
1441975316654135;-0.80609130859375;0.0899658203125;-0.56097412109375;-0.16583251953125;2.0906117556392747;16.610186952477083;9.329979076464385;0.91748046875;0.1728515625;-0.29345703125;13.0625;7.5625;-19.125;
1441975316684137;-0.80584716796875;0.08489990234375;-0.56219482421875;-0.1656494140625;2.0913616824814945;16.56428767769992;9.397873532133259;0.908203125;0.16650390625;-0.2822265625;14.3125;8.875;-20.625;
1441975316689137;-0.8055419921875;0.0791015625;-0.563720703125;-0.16473388671875;2.090161974582675;16.52014807589852;9.470125223053167;0.916015625;0.1640625;-0.287109375;17.75;10.0625;-21.8125;
1441975316695138;-0.80511474609375;0.072509765625;-0.5655517578125;-0.16357421875;2.0881177552096744;16.470703956795198;9.55202081729922;0.9287109375;0.171875;-0.29833984375;23.3125;12.25;-22.75;
1441975316718139;-0.8046875;0.0653076171875;-0.5675048828125;-0.1619873046875;2.0868048855997214;16.420903515288792;9.63856837812387;0.93212890625;0.19921875;-0.29345703125;27.625;14.4375;-23.5;
1441975316734140;-0.8040771484375;0.05792236328125;-0.56964111328125;-0.16046142578125;2.08469697651939;16.367160980433155;9.72955096277636;0.93896484375;0.205078125;-0.3056640625;31.5;16.5;-24.625;
1441975316755141;-0.8033447265625;0.05035400390625;-0.57177734375;-0.15887451171875;2.0835682864047578;16.311961453743436;9.822903240747392;0.92822265625;0.20556640625;-0.28857421875;31.6875;17.6875;-25.875;
1441975316778142;-0.80242919921875;0.04278564453125;-0.57415771484375;-0.15728759765625;2.0805878475093107;16.254599576172293;9.91845344310131;0.9033203125;0.2041015625;-0.28271484375;32.375;18.5;-26.8125;
1441975316796143;-0.8013916015625;0.034912109375;-0.57666015625;-0.15533447265625;2.077159938134809;16.197754792442762;10.016218321386548;0.89794921875;0.19384765625;-0.26123046875;32.0625;19.125;-27.3125;
1441975316825145;-0.80035400390625;0.02642822265625;-0.5792236328125;-0.1527099609375;2.074602056168637;16.143599367635982;10.11655447713425;0.900390625;0.197265625;-0.2666015625;34.6875;20.5625;-27.625;
1441975316838146;-0.79937744140625;0.01751708984375;-0.58172607421875;-0.14959716796875;2.074130959031168;16.092478457909202;10.217593632852248;0.9150390625;0.2138671875;-0.26806640625;39.8125;21.625;-27.3125;
1441975316862147;-0.79827880859375;0.0084228515625;-0.58416748046875;-0.146484375;2.0756136704116024;16.039605200032874;10.321045477066626;0.92138671875;0.23046875;-0.2734375;43.5625;22.125;-27.3125;
1441975316885149;-0.79718017578125;-5.4931640625E-4;-0.58642578125;-0.14385986328125;2.08147420023028;15.983376872620594;10.425276052215729;0.921875;0.259765625;-0.2646484375;44.9375;21.8125;-26.625;
1441975316898149;-0.79595947265625;-0.00823974609375;-0.58843994140625;-0.1422119140625;2.088355107775088;15.926521435314175;10.52073262245241;0.908203125;0.30029296875;-0.25537109375;42.8125;20.625;-25.125;
1441975316916150;-0.794677734375;-0.014404296875;-0.59014892578125;-0.1416015625;2.095954233420135;15.870861216148583;10.604345680979984;0.88671875;0.30810546875;-0.2431640625;34.1875;18.875;-22.4375;
1441975316944152;-0.79339599609375;-0.01947021484375;-0.59173583984375;-0.1414794921875;2.1024041172452796;15.818595335793296;10.678014285968272;0.88671875;0.30078125;-0.228515625;23.8125;15.8125;-20.0;
1441975316958153;-0.79229736328125;-0.0240478515625;-0.5931396484375;-0.141357421875;2.109504406759752;15.772483637999622;10.743528355962294;0.88330078125;0.28955078125;-0.2177734375;18.125;13.875;-18.0;
1441975316974154;-0.79150390625;-0.02850341796875;-0.59405517578125;-0.14105224609375;2.120838847085153;15.735115180476575;10.800491376302336;0.888671875;0.29150390625;-0.21923828125;16.5;11.9375;-16.125;
1441975316997155;-0.7908935546875;-0.03228759765625;-0.5947265625;-0.14080810546875;2.1320376853649496;15.704847158274506;10.847331640014733;0.90478515625;0.31396484375;-0.2392578125;16.8125;10.0625;-14.1875;
1441975317018156;-0.79022216796875;-0.03558349609375;-0.5953369140625;-0.14111328125;2.1439839679228965;15.672342541233297;10.892110520391157;0.9296875;0.32177734375;-0.244140625;14.5625;7.5625;-12.0;
1441975317034157;-0.78955078125;-0.03814697265625;-0.595947265625;-0.14190673828125;2.1548364477092683;15.639695443588678;10.932016709886707;0.94873046875;0.3408203125;-0.228515625;11.0625;5.875;-10.9375;
1441975317057158;-0.78900146484375;-0.03973388671875;-0.59613037109375;-0.14361572265625;2.169099511918326;15.608035907425212;10.963061312637024;0.94873046875;0.33544921875;-0.22021484375;6.125;4.5625;-10.0;
1441975317078160;-0.78851318359375;-0.04052734375;-0.59613037109375;-0.14599609375;2.1843481137149996;15.576505974329645;10.987911314944219;0.94482421875;0.33349609375;-0.2216796875;-1.0;1.875;-9.375;
1441975317094160;-0.78826904296875;-0.0408935546875;-0.59576416015625;-0.14874267578125;2.2030051241808897;15.548719925584162;11.005710006154674;0.943359375;0.3212890625;-0.21142578125;-7.375;-0.9375;-9.375;
1441975317117162;-0.7882080078125;-0.041259765625;-0.59515380859375;-0.1514892578125;2.224286355697832;15.52447431912523;11.019942143238262;0.93212890625;0.29541015625;-0.208984375;-10.1875;-3.8125;-10.5625;
1441975317141163;-0.78826904296875;-0.04144287109375;-0.5943603515625;-0.15423583984375;2.246400374884145;15.50379535257433;11.02982646918726;0.91357421875;0.29443359375;-0.1943359375;-9.9375;-5.9375;-11.0;
1441975317154164;-0.78839111328125;-0.04156494140625;-0.59344482421875;-0.156982421875;2.269328908440877;15.485056871674196;11.037489888957428;0.89208984375;0.28466796875;-0.189453125;-10.4375;-7.3125;-10.5625;
1441975317186166;-0.7884521484375;-0.04156494140625;-0.5924072265625;-0.160400390625;2.2959462472503924;15.461454277680078;11.046675574375286;0.86376953125;0.2841796875;-0.18408203125;-10.6875;-8.3125;-10.3125;
1441975317198166;-0.78851318359375;-0.0411376953125;-0.59136962890625;-0.16436767578125;2.3231798254275997;15.435353294022951;11.054322426460704;0.83740234375;0.3271484375;-0.1728515625;-13.1875;-9.0;-9.25;
1441975317216167;-0.78851318359375;-0.039306640625;-0.59014892578125;-0.16888427734375;2.346318819253665;15.412302970966785;11.050763033165524;0.8056640625;0.3720703125;-0.1728515625;-16.4375;-9.125;-5.625;
1441975317237169;-0.78826904296875;-0.035888671875;-0.58929443359375;-0.17388916015625;2.359239500461585;15.3882696439841;11.039665681192334;0.7783203125;0.38037109375;-0.1845703125;-23.75;-9.8125;-0.9375;
1441975317258170;-0.78765869140625;-0.03173828125;-0.58892822265625;-0.178466796875;2.360490899938617;15.365430596345357;11.026158669276468;0.75390625;0.345703125;-0.1640625;-31.9375;-10.0;3.125;
1441975317290172;-0.78680419921875;-0.027099609375;-0.589111328125;-0.1824951171875;2.350860412275927;15.344125046113762;11.011508507391355;0.74658203125;0.32861328125;-0.1484375;-32.875;-8.0;7.1875;
1441975317297172;-0.785888671875;-0.02215576171875;-0.58953857421875;-0.18560791015625;2.3322565135599556;15.330255133630558;10.99203527590197;0.74609375;0.31298828125;-0.142578125;-32.6875;-4.9375;10.9375;
1441975317318173;-0.784912109375;-0.01690673828125;-0.59027099609375;-0.18792724609375;2.3049549226727315;15.322467841048546;10.968630094548645;0.74072265625;0.29248046875;-0.1474609375;-30.3125;-3.25;14.4375;
1441975317336174;-0.78375244140625;-0.01104736328125;-0.59130859375;-0.18988037109375;2.269074639848644;15.317724955723648;10.941276218522658;0.74951171875;0.2939453125;-0.1474609375;-27.625;-2.375;18.8125;
1441975317363176;-0.78253173828125;-0.00482177734375;-0.59246826171875;-0.19146728515625;2.227869177564172;15.31733118176816;10.90964814497349;0.75927734375;0.28662109375;-0.13427734375;-28.4375;-1.3125;22.9375;
1441975317386177;-0.7811279296875;0.001708984375;-0.59393310546875;-0.192626953125;2.179623228018832;15.319578513336452;10.875993841845574;0.787109375;0.28857421875;-0.142578125;-28.3125;-0.625;25.625;
1441975317394178;-0.7796630859375;0.00860595703125;-0.59576416015625;-0.19293212890625;2.1217666293035276;15.329871398823386;10.836519339758407;0.82568359375;0.2861328125;-0.14453125;-27.375;0.75;28.4375;
1441975317418179;-0.77764892578125;0.01593017578125;-0.59814453125;-0.19317626953125;2.054980073004599;15.336023126264532;10.799754254984828;0.853515625;0.2705078125;-0.15771484375;-25.75;2.875;31.9375;
1441975317438180;-0.77496337890625;0.02374267578125;-0.6011962890625;-0.1937255859375;1.9793933318596004;15.332539118124698;10.769467476780745;0.85107421875;0.25244140625;-0.13818359375;-27.0625;6.0625;34.375;
1441975317460181;-0.7720947265625;0.032470703125;-0.60382080078125;-0.19561767578125;1.907883487649337;15.32369143065156;10.735064144919697;0.81689453125;0.22607421875;-0.14306640625;-31.3125;11.8125;36.0;
1441975317477182;-0.76898193359375;0.0421142578125;-0.6060791015625;-0.19921875;1.8416088605137946;15.30418078252205;10.700375642491567;0.79833984375;0.2021484375;-0.150390625;-41.375;11.375;34.25;
1441975317498184;-0.76544189453125;0.052001953125;-0.60821533203125;-0.203857421875;1.7782261676695026;15.27222376005284;10.67266765502202;0.775390625;0.1669921875;-0.16552734375;-53.25;11.4375;30.25;
1441975317522185;-0.76153564453125;0.06219482421875;-0.610595703125;-0.20849609375;1.7095208773327306;15.236709694673912;10.647302594081294;0.77197265625;0.11865234375;-0.1474609375;-59.625;11.625;25.4375;
1441975317538186;-0.75726318359375;0.07281494140625;-0.6131591796875;-0.2130126953125;1.6345483094228719;15.200297660762251;10.621579344647172;0.80029296875;0.08837890625;-0.17138671875;-61.375;15.4375;24.8125;
1441975317558187;-0.75244140625;0.083251953125;-0.61614990234375;-0.21771240234375;1.5559997746323848;15.149253957360417;10.610506275186426;0.87939453125;0.13427734375;-0.22119140625;-63.4375;20.1875;29.5625;
1441975317574188;-0.7481689453125;0.09130859375;-0.619140625;-0.2205810546875;1.4840370151464506;15.10481318428386;10.6102286627764;0.9638671875;0.13916015625;-0.24462890625;-64.0;25.75;28.625;
1441975317597189;-0.744140625;0.0987548828125;-0.6221923828125;-0.2222900390625;1.4100775832878876;15.070339531821618;10.607377560586997;1.013671875;0.12158203125;-0.28466796875;-47.9375;28.6875;23.1875;
1441975317618190;-0.739990234375;0.10675048828125;-0.6253662109375;-0.22369384765625;1.3297640195489735;15.041050386350253;10.59843485713301;1.017578125;0.064453125;-0.30322265625;-41.375;30.5;21.125;
1441975317634191;-0.73602294921875;0.11529541015625;-0.62799072265625;-0.2252197265625;1.2512566887565288;15.024284374843026;10.574021830717184;1.005859375;0.05126953125;-0.28271484375;-41.4375;29.9375;25.0;
1441975317657193;-0.732421875;0.123046875;-0.63037109375;-0.2261962890625;1.1777321818154778;15.015969079024988;10.546644694050485;0.9990234375;0.0400390625;-0.24609375;-43.75;24.3125;26.0;
1441975317681194;-0.72918701171875;0.12896728515625;-0.63275146484375;-0.22662353515625;1.113795091955125;15.000343231172547;10.536377837511269;0.9912109375;-0.01416015625;-0.208984375;-37.875;20.75;21.3125;
1441975317708196;-0.72698974609375;0.13287353515625;-0.6346435546875;-0.2261962890625;1.0652964706189105;14.996287822662914;10.526423391983291;0.9462890625;-0.0869140625;-0.173828125;-28.625;19.9375;11.625;
1441975317717196;-0.72540283203125;0.13665771484375;-0.63525390625;-0.22723388671875;1.0368608056942827;14.994593435123967;10.508138511430127;0.9072265625;-0.0908203125;-0.19287109375;-16.625;17.625;5.5625;
1441975317739197;-0.7242431640625;0.1412353515625;-0.6346435546875;-0.22998046875;1.0231395694942516;14.999772330486529;10.472320763912487;0.923828125;-4.8828125E-4;-0.21533203125;-22.0;13.0625;3.8125;
1441975317754198;-0.7230224609375;0.14776611328125;-0.63323974609375;-0.2335205078125;1.0072541993091388;15.030616652552679;10.399154280168645;0.9697265625;0.1083984375;-0.20849609375;-31.5625;6.3125;5.9375;
1441975317777200;-0.7215576171875;0.15472412109375;-0.63177490234375;-0.23736572265625;0.9899633186164578;15.06070756587831;10.323547307797806;0.994140625;0.046875;-0.24365234375;-43.6875;3.5;5.875;
1441975317799201;-0.72021484375;0.1622314453125;-0.63031005859375;-0.24041748046875;0.9665148633140702;15.119323351107194;10.220520932402545;0.92626953125;0.0234375;-0.19677734375;-46.0;0.75;6.1875;
1441975317814202;-0.71807861328125;0.170654296875;-0.62921142578125;-0.24371337890625;0.9331815713805978;15.174011747668729;10.116426723570974;0.8935546875;0.01220703125;-0.16650390625;-44.875;-2.875;11.1875;
1441975317836203;-0.716064453125;0.17889404296875;-0.62835693359375;-0.24615478515625;0.8964332063096182;15.248577503031;9.99694873428202;0.89208984375;0.0380859375;-0.1123046875;-48.875;-3.375;17.375;
1441975317858204;-0.71405029296875;0.1868896484375;-0.62738037109375;-0.24847412109375;0.862261864396769;15.331142990741885;9.870763692636505;0.90234375;0.00390625;-0.11376953125;-44.125;-3.0;18.0;
1441975317889206;-0.7113037109375;0.19573974609375;-0.6265869140625;-0.2513427734375;0.8217791054071494;15.412171941973444;9.740021391813805;0.90966796875;-0.0107421875;-0.0986328125;-43.1875;-4.5625;16.6875;
1441975317896206;-0.70843505859375;0.2052001953125;-0.62591552734375;-0.2535400390625;0.7754988096166047;15.533283670632331;9.569455816794964;0.9287109375;-0.04931640625;-0.0478515625;-49.0;-5.4375;16.9375;
1441975317918208;-0.70562744140625;0.21337890625;-0.626220703125;-0.2540283203125;0.7232623679587921;15.67765629525593;9.38851012449727;0.94091796875;-0.13232421875;-0.05419921875;-48.875;-5.9375;16.875;
1441975317941209;-0.7037353515625;0.21905517578125;-0.62701416015625;-0.25238037109375;0.6781450932297566;15.850703825315648;9.198560016645336;0.99072265625;-0.15869140625;-0.06005859375;-36.3125;-1.875;17.9375;
1441975317956210;-0.70257568359375;0.22265625;-0.6285400390625;-0.24871826171875;0.6362747804796381;16.055342867656826;8.994650583891119;1.0166015625;-0.13427734375;-0.07763671875;-17.125;-1.0625;17.1875;
1441975317978211;-0.70172119140625;0.22406005859375;-0.630859375;-0.243896484375;0.5964991971519231;16.25059454497219;8.814453083476229;1.01806640625;-0.16162109375;-0.06884765625;0.75;-1.0625;15.0625;
1441975318001212;-0.701171875;0.22467041015625;-0.63311767578125;-0.23895263671875;0.5636571588956601;16.449344762399587;8.634584415618352;1.01123046875;-0.13232421875;-0.01220703125;15.375;-1.0;13.9375;
1441975318016213;-0.700927734375;0.22607421875;-0.63433837890625;-0.2352294921875;0.5448097358659649;16.655635732630955;8.438478955682896;1.0458984375;-0.05810546875;0.01708984375;19.5;-3.3125;16.0625;
1441975318038214;-0.70086669921875;0.22833251953125;-0.63458251953125;-0.23248291015625;0.5383153100460448;16.868969303811067;8.227259652331917;1.07421875;-0.015625;0.00927734375;11.0625;-8.0625;17.0;
1441975318061216;-0.70086669921875;0.23138427734375;-0.63421630859375;-0.23046875;0.5402822769722815;17.085232240578712;8.006534196205;1.08154296875;-0.01416015625;-0.0185546875;3.1875;-10.875;15.5625;
1441975318076217;-0.70037841796875;0.23455810546875;-0.6341552734375;-0.22882080078125;0.5387885464278878;17.29017026890978;7.795019233209022;1.09033203125;-0.00244140625;-0.03515625;-4.0;-12.5;16.6875;
1441975318098218;-0.699462890625;0.237548828125;-0.63470458984375;-0.2269287109375;0.531920506926019;17.505915962599552;7.574577106597502;1.12158203125;0.01904296875;-0.01904296875;-5.375;-10.75;18.5625;
1441975318121219;-0.698486328125;0.240966796875;-0.635009765625;-0.22552490234375;0.5295174231749631;17.71957725211477;7.352305959903843;1.14990234375;0.0126953125;-0.01025390625;-3.6875;-7.6875;20.8125;
1441975318136220;-0.69775390625;0.24468994140625;-0.63446044921875;-0.22528076171875;0.5366185013327912;17.88084181450571;7.176006053589092;1.16455078125;0.04052734375;-0.02587890625;-7.5625;-7.5625;22.5;
1441975318158221;-0.696533203125;0.2490234375;-0.6337890625;-0.22625732421875;0.5410252382263906;0.014133432188297202;7.019851388831417;1.17919921875;0.07470703125;-0.05712890625;-13.875;-8.1875;21.125;
1441975318181223;-0.69488525390625;0.25311279296875;-0.633544921875;-0.2275390625;0.538673697029561;0.13704498333823067;6.873844166132452;1.19189453125;0.0654296875;-0.06689453125;-21.4375;-5.875;19.125;
1441975318197224;-0.6923828125;0.25775146484375;-0.63372802734375;-0.22943115234375;0.5279356794813466;0.28002456808730763;6.70275835138631;1.19482421875;0.0751953125;-0.06494140625;-22.25;-1.6875;19.625;
1441975318218225;-0.689453125;0.26177978515625;-0.63446044921875;-0.2315673828125;0.5085736011612484;0.4173187951315573;6.538925351064282;1.21875;0.06689453125;-0.06201171875;-26.8125;3.0;20.9375;
1441975318241226;-0.6866455078125;0.26434326171875;-0.63592529296875;-0.233154296875;0.48257592587898046;0.5486998709396224;6.3898734854578345;1.21240234375;0.06982421875;-0.02685546875;-25.4375;5.6875;19.4375;
1441975318256227;-0.6839599609375;0.2667236328125;-0.63726806640625;-0.23455810546875;0.4595285966624842;0.6892741362724987;6.233021671384313;1.2060546875;0.0859375;-0.00732421875;-16.5;8.1875;18.0625;
1441975318278228;-0.68212890625;0.26739501953125;-0.6383056640625;-0.23626708984375;0.43564800387053615;0.7253869469520899;6.186744734389444;1.20166015625;0.046875;-0.01513671875;-15.375;8.5625;15.0;
1441975318309230;-0.68048095703125;0.2677001953125;-0.63848876953125;-0.240234375;0.40664061508664706;0.6062907945299436;6.287542208604078;1.20751953125;0.08447265625;-0.033203125;-9.5;8.375;8.1875;
1441975318340232;-0.6783447265625;0.2696533203125;-0.6378173828125;-0.24591064453125;0.38063257694136593;0.44862326673013;6.412261055816355;1.2294921875;0.1953125;-0.0107421875;-17.9375;7.3125;4.5625;
1441975318342232;-0.67620849609375;0.2716064453125;-0.63677978515625;-0.25201416015625;0.3568063479633759;0.23404099472056036;6.591744348696235;1.25146484375;0.14892578125;-0.01708984375;-32.3125;6.5625;0.5625;
1441975318369233;-0.67578125;0.2730712890625;-0.63385009765625;-0.25909423828125;0.3581728185103888;17.81603508918473;6.9725402068925275;1.2841796875;0.09814453125;0.00732421875;-35.1875;4.25;-5.375;
1441975318376234;-0.6748046875;0.275146484375;-0.6300048828125;-0.26861572265625;0.3668820538004314;17.28353349190936;7.454137472897131;1.203125;0.193359375;-0.10400390625;-37.1875;1.25;-10.375;
1441975318399235;-0.6734619140625;0.27630615234375;-0.62713623046875;-0.2772216796875;0.37550145040810734;16.790673365183014;7.903891392696147;1.236328125;0.22314453125;-0.07177734375;-51.0;0.3125;-16.3125;
1441975318438237;-0.67236328125;0.27490234375;-0.62481689453125;-0.286376953125;0.3963904489160023;16.151711007205428;8.50851478462031;1.30322265625;0.1044921875;-0.0869140625;-43.6875;6.125;-24.125;
1441975318440237;-0.67156982421875;0.27386474609375;-0.62109375;-0.29718017578125;0.4506221451943099;15.568672167476935;9.047943359305055;1.35595703125;0.154296875;-0.0537109375;-35.3125;10.25;-33.0;
1441975318460239;-0.6722412109375;0.27197265625;-0.616455078125;-0.306884765625;0.5334211468699905;15.188606378570965;9.392524316339687;1.3095703125;0.24365234375;-0.060546875;-44.5;6.5625;-35.6875;
1441975318481240;-0.6781005859375;0.27081298828125;-0.606689453125;-0.3143310546875;0.6779950180946709;15.207770403478952;9.343590518933606;1.3056640625;0.220703125;-0.1142578125;-36.625;1.6875;-42.4375;
1441975318496241;-0.671875;0.2725830078125;-0.60760498046875;-0.32421875;0.6683973784256926;14.810734043871273;9.688639051755315;1.185546875;0.51025390625;-0.4599609375;-30.125;-17.8125;-29.75;
1441975318518242;-0.66949462890625;0.26275634765625;-0.61602783203125;-0.3214111328125;0.643415619042303;14.395637022964333;10.160561902453981;1.58642578125;-0.19140625;0.2900390625;-53.4375;10.75;-41.125;
1441975318541243;-0.67462158203125;0.26593017578125;-0.604248046875;-0.330322265625;0.7734736999080494;14.627241008966049;9.873105878828225;0.97802734375;0.54931640625;0.05908203125;55.8125;47.625;22.25;
1441975318556244;-0.6734619140625;0.267578125;-0.60028076171875;-0.3385009765625;0.8264443162065551;14.52257680994312;9.932794077136455;1.3203125;0.54052734375;-0.47021484375;-55.75;-27.375;-22.625;
1441975318578245;-0.67803955078125;0.26739501953125;-0.5924072265625;-0.3433837890625;0.9286389802412068;14.636915733923148;9.795449994520537;1.35986328125;-0.03271484375;0.04150390625;-45.375;-9.8125;-42.75;
1441975318601247;-0.68511962890625;0.26409912109375;-0.583984375;-0.3463134765625;1.057538225988119;14.760261958994567;9.671079493715073;1.2666015625;0.17919921875;-0.353515625;-24.0625;-18.9375;-40.75;
1441975318617248;-0.69293212890625;0.2569580078125;-0.576904296875;-0.3480224609375;1.1972458177073901;14.819957680781064;9.632617533764988;1.3876953125;0.22216796875;-0.29248046875;-1.4375;-33.0625;-51.1875;
1441975318638249;-0.70098876953125;0.24560546875;-0.57183837890625;-0.34844970703125;1.3407234496706548;14.822487794761656;9.675567167373694;1.462890625;0.1953125;-0.30859375;19.25;-25.375;-65.25;
1441975318662250;-0.7098388671875;0.2318115234375;-0.56695556640625;-0.347900390625;1.4959066682937487;14.824362813845285;9.73365656040219;1.38330078125;0.23388671875;-0.29541015625;41.9375;-13.3125;-72.625;
1441975318685251;-0.71746826171875;0.22039794921875;-0.5623779296875;-0.3470458984375;1.627879090746116;14.842682925456256;9.76621672810009;1.29833984375;0.3271484375;-0.2861328125;56.125;-12.8125;-74.5625;
1441975318698252;-0.72198486328125;0.21490478515625;-0.5596923828125;-0.34552001953125;1.6941153341827462;14.87773124638721;9.760490472194295;1.21533203125;0.40771484375;-0.28271484375;48.5;-13.5;-56.625;
1441975318722254;-0.72406005859375;0.21533203125;-0.55792236328125;-0.34375;1.7077135586030128;14.936750048895126;9.707012698946567;1.1943359375;0.34375;-0.21826171875;28.875;-13.25;-27.125;
1441975318737254;-0.72540283203125;0.21649169921875;-0.55718994140625;-0.34136962890625;1.7037523086422448;14.995199758104757;9.65414613003838;1.1640625;0.21484375;-0.2958984375;4.4375;-8.4375;-5.3125;
1441975318758256;-0.7276611328125;0.2161865234375;-0.55694580078125;-0.337158203125;1.7015399811246423;15.068700853056292;9.60090194131933;1.12158203125;0.1484375;-0.25;5.0;-7.375;-0.9375;
1441975318781257;-0.73095703125;0.21368408203125;-0.5567626953125;-0.3319091796875;1.7121244621262426;15.143676774398351;9.560137132271407;1.109375;0.11865234375;-0.24609375;19.5;-8.0625;-2.6875;
1441975318796258;-0.7333984375;0.211669921875;-0.55706787109375;-0.3272705078125;1.7147515568881808;15.204227671672196;9.529073156408852;1.080078125;0.13427734375;-0.236328125;33.5;-9.375;-7.875;
1441975318826260;-0.734619140625;0.2095947265625;-0.55877685546875;-0.32293701171875;1.7013066450306389;15.240848484470623;9.521301198905096;1.04296875;0.11083984375;-0.208984375;28.4375;-6.375;-6.5;
1441975318841260;-0.7364501953125;0.2061767578125;-0.56085205078125;-0.31732177734375;1.689931090459265;15.284635515862306;9.517816077604655;0.9853515625;0.13232421875;-0.14990234375;28.0;0.4375;-1.0;
1441975318858261;-0.73828125;0.20330810546875;-0.56317138671875;-0.3106689453125;1.6701860343433335;15.346848449580678;9.498117981932445;0.935546875;0.20556640625;-0.1474609375;40.6875;1.4375;3.5;
1441975318878263;-0.740234375;0.20196533203125;-0.56475830078125;-0.30401611328125;1.6504281332222495;15.431326436558273;9.449405785064982;0.9111328125;0.224609375;-0.17724609375;43.125;2.0;11.75;
1441975318901264;-0.7412109375;0.2015380859375;-0.56683349609375;-0.2979736328125;1.6199390448550308;15.507775011424485;9.402155716973382;0.931640625;0.2294921875;-0.17919921875;37.9375;-4.5625;17.375;
1441975318918265;-0.7421875;0.20013427734375;-0.5694580078125;-0.2913818359375;1.587902698878216;15.580565565773163;9.365174067333161;0.94384765625;0.18310546875;-0.14453125;31.125;-2.75;18.375;
1441975318938266;-0.74395751953125;0.19854736328125;-0.57196044921875;-0.282958984375;1.5571695523439593;15.688069122432093;9.30212765190239;0.89453125;0.17578125;-0.10107421875;37.875;-2.1875;17.8125;
1441975318961267;-0.74627685546875;0.1976318359375;-0.57366943359375;-0.27386474609375;1.5334515639238635;15.825696747193447;9.208585184285386;0.82763671875;0.13427734375;-0.1171875;47.0;-4.8125;20.6875;
1441975318978268;-0.74853515625;0.19696044921875;-0.57525634765625;-0.26483154296875;1.5121831900487792;15.968975990285289;9.107940341162513;0.78173828125;0.15087890625;-0.12451171875;48.0;-11.4375;26.1875;
1441975318998269;-0.75079345703125;0.19659423828125;-0.57623291015625;-0.25640869140625;1.4993480799586758;16.11186957849926;9.003309600671122;0.77587890625;0.1806640625;-0.12451171875;47.25;-12.1875;29.875;
1441975319021271;-0.7528076171875;0.1966552734375;-0.57696533203125;-0.24859619140625;1.489815094364956;16.25157479921926;8.89720214326952;0.77294921875;0.21435546875;-0.15869140625;43.125;-12.5625;30.9375;
1441975319037272;-0.7552490234375;0.19671630859375;-0.57708740234375;-0.24072265625;1.4911505331740083;16.397461559315104;8.784909839681328;0.779296875;0.232421875;-0.17822265625;38.6875;-11.6875;32.4375;
1441975319058273;-0.75787353515625;0.1983642578125;-0.5767822265625;-0.23175048828125;1.4962522375428178;16.584589030911168;8.629172103869708;0.75146484375;0.24560546875;-0.13671875;40.0;-19.0625;33.3125;
1441975319090275;-0.7607421875;0.201171875;-0.57562255859375;-0.2225341796875;1.514307435391769;16.79128338488398;8.44954955258368;0.73583984375;0.19677734375;-0.13525390625;38.3125;-24.875;40.25;
1441975319099275;-0.7633056640625;0.2041015625;-0.57489013671875;-0.2127685546875;1.532836169463427;17.003180639939778;8.266551859062913;0.73779296875;0.1435546875;-0.14306640625;34.625;-31.5;42.1875;
1441975319118276;-0.7659912109375;0.20648193359375;-0.57391357421875;-0.20318603515625;1.5614017584329116;17.19911753302275;8.100812210930805;0.7666015625;0.11767578125;-0.1240234375;36.4375;-31.8125;44.0;
1441975319148278;-0.76861572265625;0.2081298828125;-0.5728759765625;-0.1944580078125;1.5949877352388804;17.364535825862973;7.964989699011399;0.77197265625;0.10595703125;-0.14404296875;37.625;-31.3125;40.8125;
1441975319157278;-0.7711181640625;0.208984375;-0.57196044921875;-0.18621826171875;1.6296491570238973;17.506234947041353;7.854106205068822;0.77392578125;0.10546875;-0.14453125;36.0625;-30.1875;35.4375;
1441975319180280;-0.7738037109375;0.20965576171875;-0.570556640625;-0.17828369140625;1.6722726377512878;17.633907710970714;7.756447252020246;0.796875;0.11328125;-0.1591796875;36.5;-28.0625;31.8125;
1441975319202281;-0.77655029296875;0.2105712890625;-0.56854248046875;-0.1715087890625;1.7213617252501285;17.738922147797197;7.675332590193629;0.83740234375;0.12646484375;-0.21240234375;36.0;-27.8125;30.5;
1441975319225282;-0.7784423828125;0.2120361328125;-0.56719970703125;-0.1656494140625;1.7592758129669055;17.835349576982956;7.596850158583721;0.8740234375;0.15576171875;-0.23876953125;30.1875;-29.125;29.6875;
1441975319238283;-0.7791748046875;0.21368408203125;-0.5670166015625;-0.16082763671875;1.7786358424264992;17.922153787379123;7.523184479197691;0.916015625;0.14599609375;-0.24853515625;24.5625;-23.25;30.75;
1441975319261284;-0.77911376953125;0.2156982421875;-0.56719970703125;-0.157470703125;1.787942517127684;17.993587771092496;7.457190078638794;0.9208984375;0.142578125;-0.2451171875;19.5;-14.3125;30.875;
1441975319284286;-0.77838134765625;0.21868896484375;-0.5677490234375;-0.15478515625;1.7908216658897156;0.0685500187132757;7.380821062564673;0.86865234375;0.1455078125;-0.2451171875;11.6875;-7.125;29.75;
1441975319300287;-0.77752685546875;0.22296142578125;-0.568115234375;-0.1519775390625;1.7989425692672283;0.15777435903515558;7.285271735658212;0.8203125;0.1201171875;-0.2529296875;4.75;-2.0625;32.0;
1441975319323288;-0.77655029296875;0.227294921875;-0.568603515625;-0.14849853515625;1.8093311495278515;0.25721521697880756;7.181916441227086;0.77392578125;0.0419921875;-0.27978515625;-0.375;-1.125;33.4375;
1441975319337289;-0.7757568359375;0.22979736328125;-0.56988525390625;-0.14373779296875;1.8155858450160365;0.35860566351133066;7.089988552904488;0.7587890625;-0.02099609375;-0.26806640625;1.125;-1.4375;32.3125;
1441975319359290;-0.77557373046875;0.22991943359375;-0.57177734375;-0.13714599609375;1.8219456656032402;0.4618371518355392;7.014210393286844;0.72509765625;-0.03662109375;-0.234375;14.125;-0.125;28.3125;
1441975319384291;-0.77593994140625;0.2286376953125;-0.57330322265625;-0.1304931640625;1.832120467551149;0.5468841358706215;6.962620110613409;0.7041015625;-0.044921875;-0.2431640625;31.0625;1.0;23.4375;
1441975319397292;-0.77667236328125;0.2271728515625;-0.57421875;-0.12445068359375;1.8474842433366843;0.6156412918458148;6.925380484420433;0.71533203125;0.00634765625;-0.236328125;37.0;-2.125;20.25;
1441975319420294;-0.777587890625;0.2266845703125;-0.5740966796875;-0.12030029296875;1.8687831004651159;0.6601548619821088;6.900118527897896;0.806640625;0.0439453125;-0.23974609375;35.5;-6.8125;19.8125;
1441975319441295;-0.7784423828125;0.22784423828125;-0.57275390625;-0.11883544921875;1.8948243126146667;0.6766075291815155;6.88438129186814;0.8642578125;0.05126953125;-0.2490234375;22.875;-10.75;17.875;
1441975319457296;-0.77899169921875;0.23028564453125;-0.57080078125;-0.11981201171875;1.9186527584342599;0.67057799656433;6.875374098356086;0.85400390625;0.05517578125;-0.23486328125;4.125;-14.8125;16.25;
1441975319478297;-0.7796630859375;0.23382568359375;-0.56787109375;-0.12298583984375;1.946119232865088;0.6397045718954771;6.8772051942105845;0.89013671875;0.0205078125;-0.25244140625;-12.8125;-14.375;11.9375;
1441975319501298;-0.7803955078125;0.238037109375;-0.564208984375;-0.12677001953125;1.9798806728487934;0.6027205061284185;6.879318674624166;0.904296875;0.001953125;-0.29833984375;-27.5625;-14.3125;7.25;
1441975319517299;-0.78155517578125;0.24176025390625;-0.560302734375;-0.1298828125;2.0192862085929515;0.5671496062040068;6.88478176686984;0.873046875;-0.06103515625;-0.30419921875;-35.125;-17.0;3.125;
1441975319538300;-0.78326416015625;0.2440185546875;-0.5562744140625;-0.132568359375;2.0600158472277923;0.5224157830626797;6.907347952685023;0.83447265625;-0.12451171875;-0.28759765625;-31.6875;-20.5625;-2.0625;
1441975319561302;-0.78546142578125;0.24542236328125;-0.5518798828125;-0.1353759765625;2.1039239120229274;0.4666215391031168;6.943986179508439;0.79638671875;-0.14599609375;-0.27783203125;-26.1875;-22.75;-10.125;
1441975319577303;-0.78826904296875;0.2462158203125;-0.54669189453125;-0.138427734375;2.156145448265044;0.3986190474966268;6.994048133846757;0.77392578125;-0.13330078125;-0.2939453125;-23.5625;-23.5625;-14.3125;
1441975319598304;-0.7913818359375;0.24603271484375;-0.5413818359375;-0.14215087890625;2.2071257738475243;0.31626895003521566;7.0598468869955555;0.81689453125;-0.09912109375;-0.33642578125;-22.6875;-27.75;-17.8125;
1441975319621305;-0.79437255859375;0.24505615234375;-0.5362548828125;-0.14642333984375;2.2533794255919566;0.2259396284978542;7.134636802027301;0.89501953125;-0.046875;-0.35546875;-21.5;-28.625;-21.625;
1441975319637306;-0.79705810546875;0.244384765625;-0.531005859375;-0.15167236328125;2.2983051277454183;0.13032155837557602;7.209107653415456;0.94140625;0.0;-0.36474609375;-20.3125;-27.3125;-23.75;
1441975319658307;-0.7994384765625;0.2440185546875;-0.52587890625;-0.1575927734375;2.3408124611990506;0.033725549164625224;7.280434574061547;0.95947265625;0.0126953125;-0.39306640625;-26.1875;-25.1875;-25.375;
1441975319681308;-0.8016357421875;0.243408203125;-0.521240234375;-0.16290283203125;2.380770033111677;17.94727811129524;7.3453287366280575;0.951171875;0.00390625;-0.41162109375;-30.8125;-22.0625;-27.0625;
1441975319698309;-0.8038330078125;0.24188232421875;-0.51715087890625;-0.16717529296875;2.4183747715516692;17.870012242111795;7.409414657633598;0.92236328125;-0.04150390625;-0.42138671875;-28.25;-19.0625;-29.1875;
1441975319718311;-0.80645751953125;0.23870849609375;-0.51348876953125;-0.1705322265625;2.4559376791690313;17.793717424307413;7.483711751115874;0.88720703125;-0.0712890625;-0.4423828125;-21.375;-15.0625;-32.125;
1441975319741312;-0.8095703125;0.23394775390625;-0.509765625;-0.17340087890625;2.497972792476387;17.71296729686414;7.571210922577228;0.8427734375;-0.087890625;-0.45556640625;-12.125;-12.5625;-39.1875;
1441975319757313;-0.812744140625;0.22821044921875;-0.50653076171875;-0.17584228515625;2.5377563041269346;17.63382812988721;7.6633526845259805;0.77880859375;-0.06689453125;-0.43359375;-4.625;-13.0625;-45.0625;
1441975319780314;-0.81610107421875;0.2218017578125;-0.5032958984375;-0.17779541015625;2.5811706489532553;17.557916953242934;7.757118609932212;0.77978515625;-0.04443359375;-0.42431640625;1.375;-11.6875;-46.9375;
1441975319801315;-0.81988525390625;0.21466064453125;-0.5;-0.1783447265625;2.631573454577582;17.494783051594116;7.847088920002283;0.78564453125;-0.01123046875;-0.44873046875;6.25;-11.25;-47.4375;
1441975319817316;-0.82379150390625;0.20697021484375;-0.496826171875;-0.17840576171875;2.683729123815862;17.43623911840308;7.936957467623385;0.779296875;-4.8828125E-4;-0.46728515625;15.125;-12.625;-47.6875;
1441975319840318;-0.82763671875;0.19830322265625;-0.49371337890625;-0.1788330078125;2.7361965297439164;17.370366347371263;8.036667152397591;0.79931640625;0.0380859375;-0.470703125;20.0625;-13.6875;-46.9375;
1441975319861319;-0.83148193359375;0.18914794921875;-0.490478515625;-0.17999267578125;2.7914748938208076;17.29680978485084;8.143018790931743;0.82666015625;0.07373046875;-0.47314453125;21.9375;-12.9375;-50.875;
1441975319885320;-0.83514404296875;0.179443359375;-0.4874267578125;-0.18115234375;2.846627644556461;17.223376672204108;8.251536561776126;0.810546875;0.08837890625;-0.46826171875;19.875;-12.0625;-55.3125;
1441975319900321;-0.83856201171875;0.1693115234375;-0.4847412109375;-0.182373046875;2.899629043053187;17.150140030533997;8.361555100578288;0.79443359375;0.08837890625;-0.4560546875;20.875;-11.375;-58.625;
1441975319928323;-0.8419189453125;0.15869140625;-0.482421875;-0.18267822265625;2.9517981378449965;17.086422816162795;8.468153118177252;0.78857421875;0.10791015625;-0.4453125;22.375;-8.875;-59.125;
1441975319943323;-0.8453369140625;0.14764404296875;-0.4798583984375;-0.182861328125;3.0094668239421223;17.02460279036139;8.575002088233402;0.80908203125;0.11669921875;-0.46142578125;27.9375;-7.3125;-59.125;
1441975319959324;-0.84832763671875;0.13623046875;-0.47772216796875;-0.18328857421875;3.0633804372550593;16.960801582035803;8.684449564007517;0.857421875;0.1552734375;-0.49072265625;30.3125;-8.9375;-60.3125;
1441975319981326;-0.85101318359375;0.12493896484375;-0.47576904296875;-0.18408203125;3.116231057823621;16.89660716702807;8.792290496351516;0.89990234375;0.20654296875;-0.47119140625;31.875;-7.8125;-60.25;
1441975319997327;-0.853271484375;0.11474609375;-0.47381591796875;-0.18536376953125;3.1674866281733713;16.835753781608943;8.889982883714952;0.91650390625;0.26318359375;-0.47998046875;30.375;-6.625;-58.0;
1441975320020328;-0.8551025390625;0.1053466796875;-0.47216796875;-0.18682861328125;3.2140708150895865;16.778646800669307;8.97988758313235;0.93701171875;0.26904296875;-0.4619140625;24.6875;-8.125;-54.375;
1441975320041329;-0.85662841796875;0.09613037109375;-0.47088623046875;-0.18792724609375;3.2563801557375203;16.726809698492893;9.065405785570633;0.9423828125;0.25244140625;-0.4384765625;21.25;-8.125;-52.375;
1441975320057330;-0.858154296875;0.08734130859375;-0.4693603515625;-0.189208984375;3.3019251756984977;16.677516887533795;9.145717337141893;0.94970703125;0.26904296875;-0.4306640625;22.25;-6.875;-50.0625;
1441975320080331;-0.8594970703125;0.0792236328125;-0.4676513671875;-0.1907958984375;3.348531654831581;16.630307202026312;9.219659094345788;0.916015625;0.2646484375;-0.4228515625;20.1875;-8.0625;-49.1875;
1441975320102333;-0.860595703125;0.072265625;-0.46600341796875;-0.19244384765625;3.391552601294646;16.588830974712515;9.282710720005534;0.87646484375;0.2724609375;-0.38671875;17.0;-9.8125;-46.375;
1441975320116333;-0.86151123046875;0.066650390625;-0.46435546875;-0.194580078125;3.4317701990256664;16.54997420407842;9.33542520212395;0.86669921875;0.27099609375;-0.37939453125;13.25;-10.75;-41.125;
1441975320140335;-0.8623046875;0.06146240234375;-0.46258544921875;-0.19671630859375;3.4720914598582677;16.513934132197384;9.383373502451063;0.85205078125;0.2724609375;-0.3740234375;7.125;-11.1875;-36.3125;
1441975320161336;-0.86297607421875;0.056396484375;-0.46124267578125;-0.198486328125;3.5072080537131516;16.481339814280837;9.429167203253229;0.86181640625;0.27978515625;-0.384765625;5.3125;-12.125;-34.4375;
1441975320183337;-0.86328125;0.0513916015625;-0.46051025390625;-0.2003173828125;3.5351914895139203;16.447106513404822;9.476308954928786;0.890625;0.2939453125;-0.3857421875;7.0625;-10.9375;-32.75;
1441975320200338;-0.86328125;0.04736328125;-0.4599609375;-0.20263671875;3.5585707263731052;16.412255978990483;9.517866126876676;0.91552734375;0.32470703125;-0.3974609375;7.375;-7.4375;-31.125;
1441975320221339;-0.86279296875;0.04522705078125;-0.45977783203125;-0.20562744140625;3.572037090875872;16.377878912777312;9.548138965436273;0.89599609375;0.36474609375;-0.40283203125;3.0625;-5.6875;-25.375;
1441975320237340;-0.86187744140625;0.04473876953125;-0.460205078125;-0.2086181640625;3.572488010508299;16.34782794111719;9.567338067702508;0.8916015625;0.3515625;-0.39892578125;-6.5625;-4.5;-17.8125;
1441975320268342;-0.86083984375;0.04443359375;-0.4609375;-0.211181640625;3.5679885004362135;16.32100282414195;9.584479391631737;0.8896484375;0.30224609375;-0.38818359375;-12.6875;-2.5625;-12.125;
1441975320281343;-0.85968017578125;0.0438232421875;-0.4619140625;-0.21380615234375;3.5620056399034024;16.29150250474097;9.605416911459454;0.8779296875;0.2880859375;-0.40234375;-12.1875;0.25;-10.75;
1441975320297344;-0.85870361328125;0.04327392578125;-0.462890625;-0.2159423828125;3.555630987162737;16.266714801652817;9.623578147661803;0.85009765625;0.3046875;-0.3818359375;-10.9375;2.125;-10.5;
1441975320320345;-0.857666015625;0.043212890625;-0.46368408203125;-0.2183837890625;3.5499381564102515;16.241542417936213;9.638614826412622;0.84423828125;0.31005859375;-0.380859375;-8.75;2.0;-9.0;
1441975320341346;-0.85662841796875;0.04351806640625;-0.4644775390625;-0.22064208984375;3.5425634845618448;16.219259819880094;9.650001460715698;0.82958984375;0.31298828125;-0.38134765625;-11.3125;1.4375;-7.0;
1441975320356347;-0.85565185546875;0.0439453125;-0.4652099609375;-0.22271728515625;3.5351966138114896;16.19922877803387;9.659395180822733;0.82275390625;0.2919921875;-0.3955078125;-12.75;2.3125;-6.0;
1441975320387349;-0.85455322265625;0.044189453125;-0.46612548828125;-0.224853515625;3.526476175829441;16.177080220313464;9.671470746655922;0.818359375;0.29248046875;-0.4130859375;-12.5625;3.0625;-5.25;
1441975320401350;-0.85357666015625;0.04449462890625;-0.4669189453125;-0.22686767578125;3.518995363431103;16.156786850621646;9.681949640098036;0.8291015625;0.31591796875;-0.4248046875;-12.125;4.8125;-4.8125;
1441975320416351;-0.85260009765625;0.044921875;-0.4674072265625;-0.22955322265625;3.5158955586520784;16.132209775732225;9.693151451664376;0.83935546875;0.322265625;-0.42724609375;-11.9375;4.0;-4.5625;
1441975320440352;-0.8516845703125;0.0455322265625;-0.46759033203125;-0.2322998046875;3.5154991508056823;16.108802592953687;9.701957551321403;0.82421875;0.34521484375;-0.41796875;-14.5;2.5625;-4.5;
1441975320461353;-0.85089111328125;0.04620361328125;-0.46759033203125;-0.23516845703125;3.5175608675073753;16.08552149351747;9.709821862253737;0.81494140625;0.3447265625;-0.42529296875;-15.625;1.4375;-4.5;
1441975320485354;-0.85015869140625;0.04681396484375;-0.4676513671875;-0.23748779296875;3.5180351705140107;16.06650906983024;9.716061707805991;0.81298828125;0.35498046875;-0.435546875;-16.75;1.375;-4.1875;
1441975320500355;-0.8497314453125;0.0469970703125;-0.46746826171875;-0.239501953125;3.52300589681097;16.049972999461815;9.722921376095208;0.80908203125;0.35107421875;-0.44384765625;-13.9375;1.625;-3.4375;
1441975320522357;-0.84930419921875;0.04693603515625;-0.467041015625;-0.24176025390625;3.5319978965624537;16.031191110460632;9.731802681760957;0.8076171875;0.365234375;-0.44384765625;-10.8125;0.6875;-4.3125;
1441975320537357;-0.8487548828125;0.04718017578125;-0.466552734375;-0.24462890625;3.5416716289583734;16.008496904005575;9.740621224495712;0.82666015625;0.40673828125;-0.4541015625;-10.3125;-0.1875;-4.625;
1441975320560359;-0.8480224609375;0.0478515625;-0.466064453125;-0.24774169921875;3.549596089674179;15.984918239582038;9.747360037024452;0.84375;0.4306640625;-0.47998046875;-14.6875;0.6875;-4.5;
1441975320582360;-0.8477783203125;0.0482177734375;-0.4652099609375;-0.250244140625;3.5625198617418397;15.967791612362113;9.751551545353406;0.8115234375;0.36474609375;-0.47265625;-19.125;1.0625;-5.8125;
1441975320596361;-0.8477783203125;0.0478515625;-0.46405029296875;-0.25244140625;3.5814840022749523;15.952077569141064;9.758569389461709;0.7509765625;0.3369140625;-0.48828125;-16.4375;1.125;-7.1875;
1441975320619362;-0.84808349609375;0.0465087890625;-0.462890625;-0.25384521484375;3.603480046557266;15.940185970084805;9.769395250012515;0.70947265625;0.3515625;-0.48974609375;-12.0625;1.375;-8.1875;
1441975320642363;-0.8486328125;0.04449462890625;-0.461669921875;-0.25469970703125;3.628277605260371;15.931300880626429;9.782459969725828;0.71875;0.38623046875;-0.49560546875;-4.625;1.625;-9.75;
1441975320656364;-0.84893798828125;0.04254150390625;-0.46044921875;-0.25604248046875;3.6533505282096326;15.918125730874321;9.797304208938353;0.7724609375;0.44873046875;-0.521484375;1.1875;1.25;-9.6875;
1441975320679366;-0.84930419921875;0.04083251953125;-0.4591064453125;-0.25762939453125;3.679611060056901;15.904661212269419;9.8103499013097;0.77783203125;0.4716796875;-0.51708984375;-1.0;1.4375;-10.0625;
1441975320702367;-0.8497314453125;0.03900146484375;-0.45745849609375;-0.25933837890625;3.7099266076780077;15.891049236285426;9.823310343728679;0.76171875;0.45556640625;-0.51123046875;-2.875;0.3125;-10.25;
1441975320716368;-0.8507080078125;0.03692626953125;-0.45526123046875;-0.26043701171875;3.7467608719578305;15.884855332216999;9.832415092624315;0.75048828125;0.46826171875;-0.50830078125;-3.1875;-1.375;-11.0625;
1441975320739369;-0.851806640625;0.03466796875;-0.45245361328125;-0.261962890625;3.791917034666464;15.877016669712875;9.84168758399604;0.740234375;0.45703125;-0.53076171875;0.1875;-3.6875;-12.1875;
1441975320762370;-0.8531494140625;0.03192138671875;-0.44873046875;-0.26434326171875;3.85144309890132;15.864674245343767;9.853297053550381;0.732421875;0.478515625;-0.5283203125;-0.625;-6.75;-14.125;
1441975320791372;-0.8546142578125;0.02960205078125;-0.4439697265625;-0.26788330078125;3.922954763479648;15.84860608704561;9.861100809863498;0.72607421875;0.5263671875;-0.53125;-2.0625;-11.25;-18.0625;
1441975320799372;-0.85638427734375;0.02777099609375;-0.43817138671875;-0.2718505859375;4.004514744172242;15.834979099782023;9.861870444619285;0.68896484375;0.50830078125;-0.53173828125;-9.625;-16.375;-21.125;
1441975320822374;-0.85882568359375;0.0255126953125;-0.43133544921875;-0.2752685546875;4.098444058182269;15.829084850406273;9.858592619737959;0.642578125;0.44287109375;-0.53515625;-15.0625;-21.625;-24.5;
1441975320843375;-0.86181640625;0.02264404296875;-0.42333984375;-0.278564453125;4.2075945906170915;15.826953466511842;9.853985462267474;0.60205078125;0.419921875;-0.54541015625;-11.5625;-27.0625;-27.8125;
1441975320859376;-0.8648681640625;0.0196533203125;-0.41510009765625;-0.2818603515625;4.3197946336210515;15.825170668074438;9.849315507529147;0.58984375;0.44189453125;-0.5654296875;-8.5;-32.25;-31.1875;
1441975320882377;-0.86773681640625;0.0166015625;-0.40692138671875;-0.28515625;4.431024170974943;15.82241860773978;9.84570253100072;0.60400390625;0.47021484375;-0.55419921875;-7.4375;-35.6875;-32.375;
1441975320903378;-0.870361328125;0.01361083984375;-0.39886474609375;-0.28857421875;4.540341456033215;15.81792397859833;9.842875911888093;0.6123046875;0.47509765625;-0.53515625;-6.4375;-36.75;-33.25;
1441975320919379;-0.87255859375;0.01153564453125;-0.3914794921875;-0.29217529296875;4.6382579298805;15.811613874180686;9.837347983812005;0.60302734375;0.501953125;-0.5419921875;-7.1875;-36.125;-32.0625;
1441975320942381;-0.8741455078125;0.0106201171875;-0.38543701171875;-0.29534912109375;4.7148159148356035;15.806040936468566;9.828613781983716;0.5888671875;0.48193359375;-0.515625;-10.75;-34.75;-28.5;
1441975320963382;-0.8756103515625;0.01031494140625;-0.38092041015625;-0.29705810546875;4.769266351068364;15.80779144499682;9.817630501448429;0.60400390625;0.39697265625;-0.4609375;-12.9375;-32.5;-24.4375;
1441975320987383;-0.8763427734375;0.0118408203125;-0.37890625;-0.29730224609375;4.7848482913892125;15.815725634997232;9.800726323649448;0.6474609375;0.376953125;-0.43115234375;-7.125;-29.0625;-18.5625;
1441975321002384;-0.8760986328125;0.01556396484375;-0.380126953125;-0.29632568359375;4.75290521803471;15.827164581910228;9.778515942792625;0.74560546875;0.384765625;-0.4189453125;-4.0625;-22.8125;-5.0625;
1441975321023385;-0.87469482421875;0.02081298828125;-0.3848876953125;-0.2940673828125;4.6727848640233836;15.840403253409745;9.756037726145003;0.77783203125;0.296875;-0.3701171875;-5.6875;-11.5;9.0625;
1441975321039386;-0.8720703125;0.027587890625;-0.39306640625;-0.2904052734375;4.545145191850324;15.856923394108982;9.732170168530564;0.75439453125;0.24462890625;-0.28564453125;-2.875;3.4375;24.75;
1441975321062387;-0.86834716796875;0.035888671875;-0.40435791015625;-0.28515625;4.372904113976065;15.879818983752603;9.704408441901284;0.76953125;0.1982421875;-0.244140625;-0.75;18.625;39.9375;
1441975321085389;-0.86370849609375;0.04547119140625;-0.41766357421875;-0.278564453125;4.169148462858976;15.910894156513944;9.669951962406177;0.759765625;0.1318359375;-0.2109375;0.9375;33.6875;54.625;
1441975321099390;-0.857421875;0.0572509765625;-0.432861328125;-0.2724609375;3.933571798690695;15.939261077147162;9.627308454670622;0.75830078125;0.10693359375;-0.2216796875;2.75;45.25;67.6875;
1441975321122391;-0.84942626953125;0.07135009765625;-0.4495849609375;-0.26708984375;3.6694920440447008;15.965661403495927;9.5740376526741;0.8154296875;0.1611328125;-0.24169921875;-5.875;55.4375;83.5625;
1441975321143392;-0.84063720703125;0.0865478515625;-0.46588134765625;-0.2625732421875;3.4044901628520567;15.99397504512653;9.509951569671781;0.8583984375;0.1669921875;-0.2529296875;-17.1875;65.125;97.375;
1441975321167393;-0.83050537109375;0.102783203125;-0.4833984375;-0.2572021484375;3.1163908243419343;16.03474821178899;9.433053300779319;0.8984375;0.1591796875;-0.26806640625;-24.3125;74.0625;110.8125;
1441975321182394;-0.819091796875;0.1195068359375;-0.50189208984375;-0.2510986328125;2.8105166755247977;16.089852441519287;9.342987331360339;0.958984375;0.16015625;-0.27294921875;-24.6875;81.625;120.75;
1441975321203396;-0.805908203125;0.13690185546875;-0.52142333984375;-0.24481201171875;2.4847700015428997;16.15916016582377;9.236422690613017;1.033203125;0.21533203125;-0.29833984375;-23.25;89.3125;128.9375;
1441975321219396;-0.79083251953125;0.1553955078125;-0.54168701171875;-0.23907470703125;2.141906576732679;16.247205171849224;9.103743794292948;1.099609375;0.27978515625;-0.34228515625;-26.0;99.25;136.375;
1441975321243398;-0.7738037109375;0.17559814453125;-0.56201171875;-0.23370361328125;1.786689474471729;16.38114596395413;8.915316576583052;1.11474609375;0.31298828125;-0.333984375;-33.75;107.75;143.625;
1441975321263399;-0.7554931640625;0.19805908203125;-0.5811767578125;-0.22869873046875;1.4378342238548933;16.616212211939963;8.613118593930196;1.14013671875;0.361328125;-0.31201171875;-42.6875;112.5625;153.875;
1441975321279400;-0.7354736328125;0.2236328125;-0.5987548828125;-0.224853515625;1.109588571650061;17.045446813941837;8.09660240060054;1.18896484375;0.44580078125;-0.32275390625;-54.375;109.625;165.0;
1441975321302401;-0.71356201171875;0.2509765625;-0.61553955078125;-0.22137451171875;0.8303924669204417;17.861957777974546;7.1815653962285175;1.22265625;0.39501953125;-0.3701171875;-73.9375;107.6875;174.75;
1441975321323402;-0.6907958984375;0.2762451171875;-0.63275146484375;-0.2149658203125;0.6842999342636774;1.3095699622558126;5.654279286743423;1.21826171875;0.2353515625;-0.31640625;-85.3125;108.875;180.75;
1441975321339403;-0.66796875;0.29931640625;-0.6494140625;-0.206298828125;0.7691062937161193;2.886102365841578;4.0142033479913835;1.21240234375;0.16162109375;-0.29833984375;-66.625;112.0625;184.3125;
1441975321362405;-0.6446533203125;0.32275390625;-0.66436767578125;-0.197509765625;1.0286371685354674;3.863514452249003;2.968976268895103;1.22314453125;0.296875;-0.265625;-50.1875;110.0625;187.0;
1441975321383406;-0.6199951171875;0.3487548828125;-0.676513671875;-0.19073486328125;1.3630078806289017;4.35438965265679;2.3863440221417322;1.25;0.4287109375;-0.32080078125;-54.3125;106.0;191.1875;
1441975321407407;-0.5948486328125;0.37493896484375;-0.6866455078125;-0.184814453125;1.7170829007478372;4.6088414680685315;2.0316000858388548;1.1962890625;0.333984375;-0.29736328125;-78.1875;101.6875;192.0;
1441975321422408;-0.56988525390625;0.39947509765625;-0.6956787109375;-0.17816162109375;2.073948102368655;4.754023776981706;1.7926557546785213;1.11474609375;0.24072265625;-0.23193359375;-86.625;97.125;186.8125;
1441975321445409;-0.5452880859375;0.42254638671875;-0.70361328125;-0.170654296875;2.428785188687125;4.837223390764654;1.6221076078190364;0.99072265625;0.20263671875;-0.2060546875;-79.6875;92.8125;182.125;
1441975321459410;-0.52105712890625;0.44482421875;-0.71002197265625;-0.1629638671875;2.7766482505328307;4.878148942254071;1.4942795045720558;0.87353515625;0.17333984375;-0.17578125;-73.5625;87.0625;178.625;
1441975321482411;-0.49737548828125;0.46514892578125;-0.7158203125;-0.15478515625;3.1132823492531783;4.903626011468409;1.3897043462430045;0.796875;0.109375;-0.197265625;-72.375;81.125;173.8125;
1441975321503413;-0.4749755859375;0.4822998046875;-0.72161865234375;-0.145263671875;3.435240249480762;4.92607716979634;1.3064103228385306;0.7158203125;0.1162109375;-0.1416015625;-64.625;77.1875;167.5;
1441975321519414;-0.45391845703125;0.49615478515625;-0.7276611328125;-0.13531494140625;3.7357767687980448;4.953180216563795;1.2346883598515659;0.66455078125;0.03271484375;-0.162109375;-46.25;70.9375;159.875;
1441975321541415;-0.4339599609375;0.5048828125;-0.73577880859375;-0.12432861328125;4.017326844871298;5.007095389806154;1.1652898553239546;0.64599609375;0.0087890625;-0.10986328125;-29.9375;67.1875;148.8125;
1441975321565416;-0.4151611328125;0.510498046875;-0.74444580078125;-0.1134033203125;4.278611146788994;5.069259295507512;1.1025897304319683;0.58837890625;-0.005859375;-0.08544921875;0.8125;68.5625;137.5625;
1441975321579417;-0.39862060546875;0.515625;-0.751220703125;-0.10455322265625;4.503275792568662;5.114048232792559;1.051887673720403;0.4873046875;0.091796875;-0.0634765625;15.6875;67.125;127.5;
1441975321603418;-0.38751220703125;0.52117919921875;-0.75372314453125;-0.10052490234375;4.645384576467836;5.123101878224919;1.0189016989923578;0.3974609375;0.1650390625;-0.07470703125;8.625;59.4375;109.5625;
1441975321634420;-0.3802490234375;0.52630615234375;-0.754150390625;-0.09881591796875;4.735292966135528;5.115847082100946;0.9984130623804223;0.3193359375;-0.03369140625;-0.056640625;-10.5;44.4375;78.25;
1441975321647421;-0.37774658203125;0.52880859375;-0.7537841796875;-0.0975341796875;4.773121922231245;5.105989392768022;0.9974008453951166;0.2734375;-0.06396484375;0.009765625;-21.25;26.8125;51.375;
1441975321661422;-0.3795166015625;0.5286865234375;-0.75299072265625;-0.0975341796875;4.75737156443885;5.097971838024366;1.0079851602075138;0.30712890625;-0.05908203125;-0.06494140625;-6.875;10.9375;30.8125;
1441975321685423;-0.38623046875;0.52117919921875;-0.75457763671875;-0.09918212890625;4.666623889004298;5.128983388588391;1.017321075575816;0.40966796875;-0.2197265625;-0.02197265625;2.625;-3.75;4.1875;
1441975321699424;-0.399169921875;0.5091552734375;-0.75531005859375;-0.1043701171875;4.482183369904883;5.167730409184442;1.0335175230584641;0.4873046875;-0.12939453125;-0.00732421875;39.3125;-10.875;-24.9375;
1441975321721425;-0.4173583984375;0.49847412109375;-0.75115966796875;-0.1148681640625;4.21450014386673;5.166711485629121;1.0638397999722249;0.54052734375;0.1171875;-0.03173828125;50.0;-24.625;-55.6875;
1441975321745427;-0.436767578125;0.48773193359375;-0.74517822265625;-0.12689208984375;3.922337124360937;5.152284499726194;1.1002257583623853;0.7001953125;0.0458984375;-0.05224609375;22.75;-41.25;-91.25;
1441975321759427;-0.46038818359375;0.47357177734375;-0.737548828125;-0.14117431640625;3.5637521517135573;5.132828077323953;1.1506156486797572;0.84521484375;-0.0771484375;0.00830078125;13.4375;-54.4375;-128.75;
1441975321781429;-0.4876708984375;0.45831298828125;-0.72613525390625;-0.15771484375;3.148483129154167;5.075818016049765;1.2333230194518292;0.92724609375;0.01025390625;-0.025390625;20.5625;-67.5;-158.8125;
1441975321805430;-0.5179443359375;0.44287109375;-0.70953369140625;-0.17962646484375;2.6618847282915232;4.957796808638532;1.3530852513546336;1.0888671875;0.1806640625;-0.0244140625;11.6875;-86.0625;-181.5;
1441975321819431;-0.5504150390625;0.42193603515625;-0.69097900390625;-0.20416259765625;2.112050563627789;4.803823004456468;1.5197619670570068;1.36767578125;0.12353515625;-0.03857421875;-13.375;-98.5625;-216.6875;
1441975321841432;-0.585693359375;0.39361572265625;-0.67083740234375;-0.228271484375;1.5112613349193458;4.54571495616777;1.8210938910959569;1.62060546875;0.0390625;-9.765625E-4;-1.625;-102.3125;-252.6875;
1441975321865433;-0.6231689453125;0.36004638671875;-0.647705078125;-0.2501220703125;0.9135605533715565;3.8468114740646047;2.5885422813429626;1.8154296875;0.12548828125;-0.0517578125;28.6875;-111.0;-283.8125;
1441975321887435;-0.66082763671875;0.32586669921875;-0.61700439453125;-0.276611328125;0.5343780853931258;1.1548439276959055;5.320840858605903;2.03369140625;0.0537109375;-0.17919921875;53.3125;-127.0;-305.375;
