1441975539496881;0.09173583984375;-0.6981201171875;-0.655029296875;-0.2742919921875;12.020618570058993;13.47178467026447;17.22403539206065;-2.77783203125;0.5830078125;0.07080078125;-101.625;85.0625;342.875;
1441975539519883;0.0902099609375;-0.6671142578125;-0.703369140625;-0.22845458984375;11.557357240725128;13.20177831021019;17.35624929727859;-2.39794921875;0.20751953125;-0.03466796875;-218.75;92.8125;288.1875;
1441975539541884;0.0931396484375;-0.62744140625;-0.75018310546875;-0.1868896484375;11.19776989404302;12.8920061319652;17.49220393317704;-1.90234375;-0.0927734375;-0.01953125;-332.3125;103.75;238.3125;
1441975539556885;0.0889892578125;-0.58648681640625;-0.79095458984375;-0.150146484375;10.847425030238908;12.589947220735182;17.596553431208687;-1.8125;-0.185546875;-0.14013671875;-364.9375;94.875;197.875;
1441975539579886;0.07867431640625;-0.54644775390625;-0.8253173828125;-0.11871337890625;10.504599780429556;12.307659433751141;17.673079343771363;-1.806640625;-0.5361328125;-0.43408203125;-338.625;48.75;195.0625;
1441975539601887;0.067626953125;-0.52392578125;-0.843994140625;-0.093017578125;10.2216809141829;12.155999610796457;17.747165601763882;-1.34765625;-0.751953125;-0.3125;-304.75;7.125;186.375;
1441975539616888;0.055419921875;-0.52667236328125;-0.84539794921875;-0.06988525390625;9.96315048955848;12.177590270471333;17.826178406214428;-0.947265625;-0.6845703125;-0.1298828125;-165.75;-2.875;175.75;
1441975539639889;0.04522705078125;-0.5472412109375;-0.83428955078125;-0.050537109375;9.751364561013606;12.319625283839581;17.899360342456887;-0.7724609375;-0.42236328125;-0.1337890625;7.9375;5.1875;163.25;
1441975539661891;0.0364990234375;-0.57305908203125;-0.8179931640625;-0.03497314453125;9.572700822797877;12.499166658126502;17.955709859848998;-0.72509765625;-0.1875;-0.21630859375;129.0;15.0;138.125;
1441975539676891;0.02899169921875;-0.59698486328125;-0.801513671875;-0.021484375;9.413563164522603;12.667972623490584;5.030779565584343E-4;-0.74658203125;-0.01220703125;-0.18359375;170.3125;13.625;115.5625;
1441975539699893;0.02484130859375;-0.6158447265625;-0.78741455078125;-0.0115966796875;9.306118232402095;12.803877002348955;0.03538432336180475;-0.708984375;0.234375;-0.0908203125;162.5625;13.4375;101.0625;
1441975539721894;0.03155517578125;-0.629638671875;-0.77618408203125;-0.01220703125;9.368976155303773;12.906810401618012;0.05967506279375721;-0.6953125;0.4814453125;-0.04052734375;131.1875;16.0;71.875;
1441975539736895;0.0452880859375;-0.637939453125;-0.7685546875;-0.02008056640625;9.546420376186418;12.973136513827805;0.07746280293930147;-0.77392578125;0.65380859375;0.015625;93.5625;18.875;24.4375;
1441975539759896;0.06549072265625;-0.6402587890625;-0.7646484375;-0.03375244140625;9.82428221765351;13.000753056378539;0.09335013228889767;-0.865234375;0.8037109375;0.06884765625;59.4375;23.375;-29.5;
1441975539781898;0.08746337890625;-0.637939453125;-0.76361083984375;-0.048583984375;10.127673200711676;12.998409520392443;0.10925318003674805;-0.8837890625;0.93212890625;0.13623046875;23.8125;30.75;-82.6875;
1441975539798898;0.11688232421875;-0.6346435546875;-0.76080322265625;-0.0693359375;10.54168347893004;13.00064960445864;0.12738764253150492;-0.814453125;0.9619140625;0.1982421875;-4.5;40.25;-136.3125;
1441975539819900;0.15167236328125;-0.63543701171875;-0.7509765625;-0.0963134765625;11.049940752726634;13.050231996501115;0.14716719411261955;-0.72412109375;0.91796875;0.31689453125;0.5;52.375;-193.375;
1441975539841901;0.191162109375;-0.64007568359375;-0.7327880859375;-0.1298828125;11.65125045852114;13.154691172926995;0.17413406370047607;-0.71044921875;0.833984375;0.365234375;47.5;60.625;-241.3125;
1441975539858902;0.23175048828125;-0.64398193359375;-0.709228515625;-0.16943359375;12.315317923623155;13.28324891442234;0.19911941013640025;-0.75537109375;0.87158203125;0.3046875;96.625;67.0625;-289.875;
1441975539879903;0.2720947265625;-0.64227294921875;-0.68408203125;-0.21343994140625;13.027036374956781;13.398706413656722;0.21606942706129806;-0.931640625;0.9013671875;0.27197265625;119.375;55.25;-323.8125;
1441975539901904;0.31561279296875;-0.6298828125;-0.6614990234375;-0.2572021484375;13.785910153519856;13.468534194421284;0.24501544469964764;-1.05029296875;0.95068359375;0.05078125;105.625;33.5625;-352.0625;
1441975539918905;0.3602294921875;-0.60662841796875;-0.643798828125;-0.29632568359375;14.54174559734267;13.477174561213165;0.28057077178870304;-1.1611328125;0.89208984375;-0.142578125;47.8125;27.5;-377.25;
1441975539939907;0.404052734375;-0.5765380859375;-0.6279296875;-0.33197021484375;15.288363695555876;13.444411634549418;0.3084958943928146;-1.34912109375;0.7431640625;-0.0908203125;-20.4375;24.3125;-375.625;
1441975539961908;0.44537353515625;-0.5445556640625;-0.6087646484375;-0.36688232421875;16.03460362867073;13.412275772541367;0.3275127723425565;-1.4140625;0.5185546875;-0.0390625;-57.375;18.8125;-370.4375;
1441975539978909;0.479736328125;-0.5172119140625;-0.58404541015625;-0.401611328125;16.735823050463132;13.437879203028997;0.3560541526822189;-1.56591796875;0.21337890625;0.0419921875;-49.5625;17.4375;-367.75;
1441975539999910;0.50531005859375;-0.49639892578125;-0.5535888671875;-0.43792724609375;17.38528540386614;13.593901000243804;0.4515235149617617;-1.6826171875;0.076171875;0.103515625;-1.1875;18.75;-345.75;
1441975540021911;0.5244140625;-0.47869873046875;-0.522705078125;-0.4718017578125;17.942423990300643;16.30739082979362;3.0842969135365372;-1.64306640625;-0.0458984375;0.04345703125;61.6875;14.4375;-321.3125;
1441975540038912;0.5377197265625;-0.46282958984375;-0.494384765625;-0.50225830078125;17.525143258237566;4.268795883994682;8.960982089192266;-1.59814453125;-0.1630859375;-0.0400390625;81.9375;8.75;-287.9375;
1441975540059913;0.54559326171875;-0.44964599609375;-0.4688720703125;-0.52947998046875;17.101928124658716;4.506175907109909;9.107730517011442;-1.5341796875;-0.26904296875;-0.04931640625;85.75;-2.1875;-249.6875;
1441975540081915;0.5504150390625;-0.439208984375;-0.447265625;-0.551513671875;16.762064846972738;4.611635354774646;9.131684750699076;-1.38623046875;-0.18798828125;0.017578125;91.625;-9.125;-212.875;
1441975540098916;0.55413818359375;-0.4306640625;-0.4298095703125;-0.56817626953125;16.493603227185865;4.665636238869073;9.122602601863958;-1.3017578125;-0.03857421875;0.02001953125;81.9375;-7.6875;-174.125;
1441975540120917;0.55902099609375;-0.42156982421875;-0.41748046875;-0.57928466796875;16.276473592952794;4.689967986111066;9.119406328374357;-1.25048828125;0.1572265625;-0.046875;62.625;-5.3125;-142.5625;
1441975540141918;0.56243896484375;-0.4156494140625;-0.409423828125;-0.58587646484375;16.13712298667121;4.695458565836566;9.109340627253934;-1.1044921875;0.177734375;-0.10546875;28.0;-7.9375;-116.9375;
1441975540158919;0.5625;-0.41259765625;-0.4019775390625;-0.5931396484375;16.032876735423578;4.727947349179729;9.107977440936358;-0.9833984375;0.0517578125;-0.09228515625;16.9375;-9.1875;-95.5625;
1441975540179920;0.55950927734375;-0.41302490234375;-0.39532470703125;-0.60009765625;15.97265550285702;4.771235117254489;9.101581309940793;-0.8623046875;0.076171875;-0.0625;35.0;-8.875;-77.3125;
1441975540201922;0.55615234375;-0.4149169921875;-0.39093017578125;-0.60479736328125;15.949659486245109;4.804356915613445;9.09286545413206;-0.7822265625;0.13818359375;-0.05517578125;50.0625;-5.9375;-58.1875;
1441975540218922;0.55401611328125;-0.41644287109375;-0.38983154296875;-0.6064453125;15.954533529393547;4.823525505598972;9.093385150462865;-0.73779296875;0.18798828125;-0.083984375;42.9375;-5.1875;-41.875;
1441975540239924;0.5528564453125;-0.4173583984375;-0.391845703125;-0.6055908203125;15.982632188029093;4.836708078367408;9.108981462030904;-0.69775390625;0.16015625;-0.044921875;19.3125;-4.9375;-25.1875;
1441975540261925;0.55133056640625;-0.41864013671875;-0.39569091796875;-0.603515625;16.032183689218126;4.854615908781711;9.13610892658371;-0.66357421875;0.08349609375;-0.00537109375;-1.5;-5.875;-6.875;
1441975540278926;0.54852294921875;-0.4215087890625;-0.40106201171875;-0.6005859375;16.111888937008672;4.8818208785619195;9.171206945016735;-0.64697265625;-0.017578125;0.03125;-8.25;-6.0;11.6875;
1441975540301927;0.54443359375;-0.4266357421875;-0.40777587890625;-0.5960693359375;16.229165733514556;4.907810385142091;9.203376908482648;-0.60888671875;-0.03955078125;0.052734375;-7.1875;-4.875;30.0625;
1441975540329929;0.53985595703125;-0.4329833984375;-0.41607666015625;-0.58990478515625;16.37511403101011;4.933580765148803;9.239788161580165;-0.619140625;-0.0107421875;0.017578125;-4.8125;-2.6875;47.0625;
1441975540338929;0.53436279296875;-0.43994140625;-0.4267578125;-0.58209228515625;16.551559367063206;4.981720433000681;9.305790308544415;-0.748046875;-0.0068359375;-0.00927734375;-8.625;-2.75;59.75;
1441975540359931;0.52764892578125;-0.447998046875;-0.43914794921875;-0.57281494140625;16.757813882829613;5.060914938313326;9.405243858599082;-0.87939453125;-0.0263671875;0.02685546875;-16.1875;-4.0;76.25;
1441975540381932;0.52069091796875;-0.456298828125;-0.45074462890625;-0.5634765625;16.961557911675655;5.163071009307884;9.524003617473284;-0.87646484375;-0.025390625;0.05029296875;-18.1875;-3.3125;94.125;
1441975540398933;0.512939453125;-0.46533203125;-0.4625244140625;-0.55364990234375;17.17531559393714;5.326534239099585;9.701536811242049;-0.8818359375;-0.0029296875;0.05224609375;-14.5;-1.125;102.125;
1441975540419934;0.5042724609375;-0.47503662109375;-0.474609375;-0.54296875;17.39909842586121;5.626677643828914;10.014436617756111;-0.94091796875;4.8828125E-4;0.05224609375;-11.9375;-0.125;108.5;
1441975540441935;0.49517822265625;-0.4847412109375;-0.48712158203125;-0.5316162109375;17.61455223014984;6.311190746792725;10.713566759041893;-0.9921875;0.0107421875;0.04345703125;-10.375;0.9375;116.0625;
1441975540458936;0.4857177734375;-0.4940185546875;-0.50006103515625;-0.5196533203125;17.76197367936549;8.251364856147502;12.671440338166999;-1.0224609375;0.03955078125;0.04248046875;-12.3125;0.1875;121.0625;
1441975540479937;0.4764404296875;-0.50250244140625;-0.51324462890625;-0.50714111328125;17.699404922338513;10.919423019578272;15.362228839447148;-1.0400390625;0.07373046875;0.052734375;-15.4375;-1.6875;123.75;
1441975540501939;0.46734619140625;-0.510009765625;-0.526611328125;-0.49420166015625;17.50285727417118;12.01145545645952;16.48205351844952;-1.0498046875;0.08544921875;0.04248046875;-20.25;-2.6875;124.3125;
1441975540518940;0.4583740234375;-0.51654052734375;-0.53997802734375;-0.48126220703125;17.279195783595426;12.418179960769798;16.919756667703293;-1.076171875;0.078125;0.04150390625;-25.0625;-4.1875;123.625;
1441975540539941;0.449462890625;-0.5223388671875;-0.5528564453125;-0.4686279296875;17.05490373336979;12.60623397856609;17.13886579852713;-1.0986328125;0.07568359375;0.0419921875;-28.875;-6.75;121.4375;
1441975540561942;0.44036865234375;-0.52752685546875;-0.564697265625;-0.45709228515625;16.840189164102902;12.697181081374929;17.256058379823326;-1.0947265625;0.1064453125;0.02978515625;-28.625;-8.625;117.25;
1441975540578943;0.43133544921875;-0.53216552734375;-0.57550048828125;-0.44671630859375;16.63888105347615;12.74247271850098;17.323125985012677;-1.08837890625;0.1318359375;0.01904296875;-24.4375;-11.375;110.4375;
1441975540600944;0.42333984375;-0.535888671875;-0.58441162109375;-0.43829345703125;16.46945186395742;12.762089145034857;17.359125563332466;-1.08154296875;0.123046875;0.01513671875;-20.375;-14.0625;102.875;
1441975540621946;0.41473388671875;-0.53973388671875;-0.59228515625;-0.4312744140625;16.30809975670793;12.768811557529126;17.373109187679216;-1.04931640625;0.08203125;0.0146484375;-15.1875;-16.9375;97.5;
1441975540638947;0.405517578125;-0.54400634765625;-0.59893798828125;-0.4254150390625;16.153718491886643;12.774838086029378;17.376521217175004;-0.9775390625;0.0380859375;0.03515625;-6.375;-19.4375;95.8125;
1441975540659948;0.396240234375;-0.54888916015625;-0.6041259765625;-0.42047119140625;16.01012108053869;12.790159054651564;17.380342037779908;-0.9140625;0.033203125;0.0517578125;3.625;-20.0;92.3125;
1441975540681949;0.38677978515625;-0.5538330078125;-0.608642578125;-0.416259765625;15.87256489452194;12.80319993261795;17.377032905740844;-0.8828125;0.0595703125;0.04248046875;12.125;-19.1875;86.3125;
1441975540704950;0.37774658203125;-0.5584716796875;-0.612548828125;-0.41265869140625;15.746013907770195;12.814030151210732;17.37001192323831;-0.86181640625;0.107421875;0.048828125;16.875;-19.9375;80.6875;
1441975540719951;0.36944580078125;-0.5621337890625;-0.61627197265625;-0.40960693359375;15.632200672514218;12.815249423690874;17.356160248194737;-0.837890625;0.14892578125;0.03857421875;17.125;-20.625;73.125;
1441975540741952;0.36199951171875;-0.5648193359375;-0.61962890625;-0.40753173828125;15.535317487454561;12.806640875618905;17.33384426490335;-0.8134765625;0.185546875;0.0478515625;14.25;-21.1875;64.1875;
1441975540757953;0.35589599609375;-0.5667724609375;-0.6220703125;-0.40643310546875;15.461500262754637;12.796216079908426;17.310195878248855;-0.7890625;0.2119140625;0.056640625;11.625;-22.125;53.625;
1441975540780955;0.3507080078125;-0.56842041015625;-0.6234130859375;-0.4066162109375;15.408707658382832;12.785442711765878;17.282751505786567;-0.77490234375;0.23583984375;0.05859375;10.875;-20.9375;41.125;
1441975540801956;0.346923828125;-0.56964111328125;-0.62335205078125;-0.40826416015625;15.383846941063688;12.775023812010046;17.252585966755873;-0.75927734375;0.27783203125;0.0751953125;14.0625;-19.0;27.75;
1441975540817957;0.344970703125;-0.5699462890625;-0.6221923828125;-0.41119384765625;15.388998065154443;12.760443274376383;17.21934021236032;-0.75537109375;0.3017578125;0.068359375;16.6875;-17.5;12.125;
1441975540848959;0.3446044921875;-0.5692138671875;-0.62042236328125;-0.41522216796875;15.418700596678836;12.737272974352413;17.18023021950521;-0.76708984375;0.31201171875;0.07275390625;14.625;-14.9375;-3.0;
1441975540869960;0.34600830078125;-0.56744384765625;-0.6177978515625;-0.4202880859375;15.475314217449485;12.706748697216453;17.136507812818042;-0.7646484375;0.318359375;0.078125;11.75;-13.75;-16.5;
1441975540885961;0.3489990234375;-0.56500244140625;-0.6142578125;-0.42633056640625;15.55630012688283;12.671130102377186;17.088834804757767;-0.76611328125;0.31201171875;0.07373046875;8.5625;-12.25;-30.0625;
1441975540900962;0.35333251953125;-0.5618896484375;-0.60980224609375;-0.43316650390625;15.658609705397044;12.629308680112889;17.03591642013476;-0.7646484375;0.2900390625;0.07177734375;7.3125;-9.75;-41.6875;
1441975540921963;0.35888671875;-0.55810546875;-0.6046142578125;-0.44073486328125;15.779666184459415;12.578148481458614;16.974976975988998;-0.77197265625;0.2646484375;0.07373046875;6.25;-7.1875;-51.875;
1441975540937964;0.3653564453125;-0.55377197265625;-0.5987548828125;-0.44879150390625;15.914894090076732;12.516893639384651;16.904884010654616;-0.8056640625;0.23876953125;0.0732421875;4.75;-6.0;-60.125;
1441975540960965;0.37249755859375;-0.5489501953125;-0.59246826171875;-0.4571533203125;16.05947796089812;12.442354875492907;16.822791644649346;-0.84423828125;0.208984375;0.0712890625;3.625;-4.625;-66.125;
1441975540983966;0.37994384765625;-0.54376220703125;-0.585693359375;-0.46588134765625;16.210241588002642;12.35045230562522;16.722826855208844;-0.89697265625;0.1884765625;0.06591796875;2.4375;-4.5625;-70.4375;
1441975540997967;0.38818359375;-0.5380859375;-0.57879638671875;-0.47418212890625;16.36553287023511;12.242237227783935;16.61115898903784;-0.9453125;0.15576171875;0.05078125;2.3125;-5.8125;-73.6875;
1441975541020968;0.39630126953125;-0.53253173828125;-0.5716552734375;-0.4822998046875;16.51789130930906;12.116958604145008;16.481531147074854;-0.9951171875;0.119140625;0.0537109375;-1.5;-3.1875;-74.75;
1441975541042970;0.40374755859375;-0.52752685546875;-0.564208984375;-0.49029541015625;16.662240823917454;11.975075803380204;16.331228204658224;-1.05126953125;0.08447265625;0.06689453125;-0.0625;-1.5;-72.5625;
1441975541057970;0.41021728515625;-0.52313232421875;-0.556884765625;-0.498046875;16.79215366235376;11.813184045377888;16.157389752015042;-1.0712890625;0.0400390625;0.06884765625;4.25;-1.0625;-68.625;
1441975541080972;0.41510009765625;-0.52008056640625;-0.5494384765625;-0.50537109375;16.90333832705364;11.650100436364996;15.97477428242721;-1.0673828125;-4.8828125E-4;0.09326171875;8.8125;-0.25;-62.375;
1441975541102973;0.41845703125;-0.5185546875;-0.54193115234375;-0.51226806640625;16.99698861175068;11.4970265892639;15.794440231338118;-1.017578125;-0.0078125;0.1142578125;17.0625;1.9375;-55.125;
1441975541117974;0.421142578125;-0.51776123046875;-0.5347900390625;-0.518310546875;17.078165991908115;11.351342642119896;15.620963587745987;-1.00390625;0.0146484375;0.1083984375;25.1875;3.1875;-48.6875;
1441975541140975;0.423095703125;-0.517578125;-0.52862548828125;-0.52313232421875;17.142929969440942;11.227227560638825;15.471493688942845;-1.00244140625;0.015625;0.095703125;26.125;4.0625;-42.3125;
1441975541161976;0.4244384765625;-0.5177001953125;-0.52386474609375;-0.5267333984375;17.190390367070748;11.12852856083656;15.352345677849495;-1.01025390625;0.03662109375;0.09375;23.8125;4.8125;-34.625;
1441975541177977;0.42547607421875;-0.5181884765625;-0.5203857421875;-0.52886962890625;17.22553805951391;11.074290096186214;15.283603821464702;-0.99609375;0.06640625;0.11181640625;19.6875;5.75;-26.75;
1441975541200979;0.42657470703125;-0.51849365234375;-0.51812744140625;-0.5299072265625;17.251910625152906;11.043606675644082;15.245772243415205;-0.98974609375;0.09765625;0.10888671875;13.5625;7.1875;-19.6875;
1441975541221980;0.4273681640625;-0.51910400390625;-0.5166015625;-0.5301513671875;17.270961956622312;11.048308722066778;15.245943373292025;-0.9716796875;0.09765625;0.11474609375;6.9375;7.875;-13.5;
1441975541237981;0.4276123046875;-0.5201416015625;-0.51556396484375;-0.52996826171875;17.282463912185595;11.08478474570578;15.277705095854145;-0.9521484375;0.10498046875;0.11572265625;4.375;9.0625;-7.9375;
1441975541260982;0.42755126953125;-0.5213623046875;-0.514892578125;-0.5294189453125;17.2888320298064;11.142044730526635;15.33093214391271;-0.93603515625;0.1103515625;0.111328125;4.875;8.3125;-3.1875;
1441975541281983;0.42718505859375;-0.52288818359375;-0.51483154296875;-0.5283203125;17.288019241539963;11.229454518878429;15.415892964029899;-0.9453125;0.12060546875;0.1025390625;4.125;8.0625;0.125;
1441975541297984;0.426513671875;-0.524169921875;-0.51531982421875;-0.527099609375;17.279571746400244;11.312665984398969;15.498385536590238;-0.94921875;0.14501953125;0.1005859375;2.75;7.875;3.4375;
1441975541320986;0.4261474609375;-0.525146484375;-0.51611328125;-0.52557373046875;17.2705130314842;11.392145532607811;15.5806450073148;-0.9462890625;0.15380859375;0.10546875;1.125;6.1875;5.5;
1441975541342987;0.425537109375;-0.5263671875;-0.5169677734375;-0.52410888671875;17.258441272092682;11.475795207456958;15.66569430488306;-0.95166015625;0.12890625;0.1083984375;-2.0625;6.1875;7.625;
1441975541357988;0.4241943359375;-0.52789306640625;-0.5177001953125;-0.52294921875;17.240761129758216;11.55779558330804;15.744857213665183;-0.96435546875;0.11279296875;0.109375;-0.6875;5.9375;10.4375;
1441975541380989;0.42236328125;-0.52972412109375;-0.51837158203125;-0.52191162109375;17.21892212905695;11.641902189502904;15.823306742970384;-0.966796875;0.10791015625;0.1171875;3.625;5.0;12.75;
1441975541401990;0.42010498046875;-0.53173828125;-0.51910400390625;-0.52093505859375;17.192426385089036;11.724398566878834;15.898374750032636;-0.96826171875;0.10498046875;0.1201171875;6.8125;4.3125;15.125;
1441975541417991;0.41754150390625;-0.5338134765625;-0.52008056640625;-0.5198974609375;17.16080654765549;11.803251824263683;15.969611875331484;-0.97265625;0.0927734375;0.11328125;8.4375;2.6875;18.0625;
1441975541440992;0.41473388671875;-0.53594970703125;-0.5213623046875;-0.5186767578125;17.12392990996862;11.880448489064195;16.039704086526033;-0.9697265625;0.09716796875;0.1201171875;8.6875;2.3125;20.5;
1441975541463994;0.41192626953125;-0.537841796875;-0.52301025390625;-0.51727294921875;17.083658039039086;11.947310840616455;16.101724129127273;-0.97021484375;0.1044921875;0.1162109375;8.4375;1.375;22.5;
1441975541484995;0.4091796875;-0.5396728515625;-0.52496337890625;-0.51556396484375;17.040611948586236;12.012278005295892;16.163947812528814;-0.97216796875;0.1044921875;0.11865234375;6.125;0.125;24.1875;
1441975541500996;0.4063720703125;-0.54144287109375;-0.52703857421875;-0.5137939453125;16.995659994486253;12.070564654217259;16.220004117335197;-0.9755859375;0.11083984375;0.11181640625;4.0;-0.1875;25.75;
1441975541521997;0.40374755859375;-0.54290771484375;-0.52935791015625;-0.511962890625;16.950345912020367;12.11722940578394;16.26672602427571;-0.9755859375;0.12109375;0.10693359375;3.5625;-1.0;26.5625;
1441975541544998;0.40130615234375;-0.5440673828125;-0.53179931640625;-0.5101318359375;16.90585775041548;12.153207934781294;16.304514903546306;-0.97216796875;0.123046875;0.107421875;1.0;-1.625;26.1875;
1441975541560999;0.39892578125;-0.545166015625;-0.5341796875;-0.50830078125;16.86224713564966;12.185676676631171;16.338960048125994;-0.970703125;0.12548828125;0.11279296875;-0.6875;-2.1875;26.1875;
1441975541582000;0.39666748046875;-0.546142578125;-0.53643798828125;-0.50665283203125;16.821094763649498;12.211287973918509;16.366384401247714;-0.97119140625;0.13330078125;0.10009765625;-0.8125;-2.875;25.3125;
1441975541605002;0.39447021484375;-0.5469970703125;-0.53851318359375;-0.5052490234375;16.782571699007544;12.230055694457867;16.38626438668783;-0.96923828125;0.1357421875;0.0986328125;-1.125;-3.375;23.75;
1441975541620003;0.3927001953125;-0.54754638671875;-0.54034423828125;-0.5040283203125;16.75032517925851;12.24203870939906;16.400248858956196;-0.9716796875;0.14306640625;0.09521484375;-0.25;-4.125;22.1875;
1441975541642004;0.39111328125;-0.54791259765625;-0.5419921875;-0.50311279296875;16.722085116645996;12.24693376240037;16.406816276941836;-0.970703125;0.14111328125;0.0947265625;-1.25;-4.125;19.6875;
1441975541665005;0.3896484375;-0.54827880859375;-0.5433349609375;-0.50238037109375;16.69757256172147;12.25116118503049;16.411662875684033;-0.96630859375;0.1376953125;0.09765625;-1.0625;-4.3125;17.625;
1441975541681006;0.38861083984375;-0.54840087890625;-0.54443359375;-0.5018310546875;16.679290873495855;12.25105338544672;16.41289822439358;-0.9599609375;0.1455078125;0.08935546875;-0.375;-4.5;15.25;
1441975541702007;0.38787841796875;-0.54833984375;-0.5452880859375;-0.5015869140625;16.666491930694356;12.245586837455077;16.408630650702236;-0.9541015625;0.14501953125;0.08837890625;-1.0625;-4.1875;12.1875;
1441975541725009;0.38751220703125;-0.54803466796875;-0.54595947265625;-0.50152587890625;16.658973225930442;12.235440058237439;16.40040669945519;-0.9619140625;0.1533203125;0.08642578125;-1.125;-4.25;9.1875;
1441975541741010;0.38763427734375;-0.5474853515625;-0.54638671875;-0.5015869140625;16.657989600336506;12.222298509731786;16.39026313207998;-0.95654296875;0.15185546875;0.0908203125;-1.9375;-3.8125;6.1875;
1441975541771011;0.387939453125;-0.5467529296875;-0.54656982421875;-0.50189208984375;16.661235121837517;12.20424246667608;16.37485355447898;-0.958984375;0.1474609375;0.08642578125;-2.9375;-3.1875;3.3125;
1441975541778012;0.38873291015625;-0.54583740234375;-0.54656982421875;-0.5023193359375;16.670445811404015;12.183541512915227;16.357893616243903;-0.962890625;0.146484375;0.08740234375;-2.9375;-3.375;0.8125;
1441975541801013;0.3897705078125;-0.5447998046875;-0.54656982421875;-0.50262451171875;16.681478571329848;12.16299547054204;16.3424935595136;-0.95556640625;0.14501953125;0.08740234375;-4.0625;-2.4375;-1.6875;
1441975541824014;0.3912353515625;-0.5435791015625;-0.54644775390625;-0.5029296875;16.697173361866295;12.140760510869411;16.326828601547735;-0.95556640625;0.15185546875;0.08544921875;-5.5625;-1.5625;-3.5;
1441975541838015;0.39288330078125;-0.542236328125;-0.54595947265625;-0.5035400390625;16.717957880409802;12.113541751266489;16.305123643164315;-0.9501953125;0.1494140625;0.08056640625;-6.5625;-1.1875;-5.4375;
1441975541861016;0.39483642578125;-0.5408935546875;-0.54541015625;-0.504150390625;16.741660185759752;12.08675198297488;16.284585685594276;-0.96923828125;0.142578125;0.076171875;-6.4375;-1.1875;-7.75;
1441975541891018;0.39691162109375;-0.53955078125;-0.54461669921875;-0.50482177734375;16.768225554689753;12.059791075806288;16.263337130810285;-0.97509765625;0.13818359375;0.07080078125;-6.6875;-0.5625;-9.0625;
1441975541898019;0.39892578125;-0.5380859375;-0.54376220703125;-0.5057373046875;16.795355607690027;12.025230902293456;16.233784044394213;-0.97412109375;0.13525390625;0.06396484375;-6.5625;-0.625;-10.3125;
1441975541921020;0.40069580078125;-0.5369873046875;-0.54248046875;-0.5068359375;16.82343151374899;11.99525818607257;16.205287178565648;-0.974609375;0.12353515625;0.080078125;-5.375;-0.125;-10.875;
1441975541944021;0.4024658203125;-0.53594970703125;-0.54107666015625;-0.50799560546875;16.852352759205214;11.964703274771818;16.17550540369782;-0.974609375;0.11962890625;0.08203125;-1.875;0.3125;-11.375;
1441975541958022;0.40411376953125;-0.5350341796875;-0.539794921875;-0.509033203125;16.878838911605285;11.936624554891646;16.148199450992134;-0.97998046875;0.11328125;0.08447265625;-1.25;1.0;-11.625;
1441975541981023;0.40582275390625;-0.5340576171875;-0.53863525390625;-0.5098876953125;16.904510038457246;11.9089224814085;16.12248898169284;-0.97265625;0.1142578125;0.083984375;-1.375;1.1875;-10.75;
1441975542004025;0.40753173828125;-0.5330810546875;-0.5377197265625;-0.5106201171875;16.92803040513908;11.881121626862601;16.0977487299203;-0.96435546875;0.107421875;0.08349609375;-2.3125;1.25;-9.875;
1441975542018025;0.4090576171875;-0.53216552734375;-0.53692626953125;-0.51116943359375;16.948609652809658;11.856321315950701;16.07615710468719;-0.97998046875;0.0986328125;0.0869140625;-3.25;1.4375;-8.6875;
1441975542041027;0.410400390625;-0.531494140625;-0.5361328125;-0.51153564453125;16.96706660024939;11.839825119129237;16.062150187353165;-0.9794921875;0.10009765625;0.08349609375;-3.3125;1.375;-7.0625;
1441975542064028;0.41143798828125;-0.53106689453125;-0.53533935546875;-0.51202392578125;16.982958527662106;11.825437128916793;16.048330710885864;-0.98291015625;0.09912109375;0.0771484375;-2.8125;1.4375;-5.6875;
1441975542078029;0.41204833984375;-0.5308837890625;-0.53460693359375;-0.512451171875;16.994484098024483;11.816725133573284;16.038583766645765;-0.98291015625;0.09033203125;0.08447265625;-0.6875;1.0625;-4.1875;
1441975542101030;0.4122314453125;-0.5311279296875;-0.53387451171875;-0.51287841796875;17.002102271009427;11.817423762682552;16.035793377303612;-0.97607421875;0.09765625;0.08349609375;1.125;1.0625;-2.5;
1441975542124031;0.41241455078125;-0.53131103515625;-0.53314208984375;-0.51324462890625;17.009656879249583;11.817939536064944;16.033153883906454;-0.978515625;0.1123046875;0.083984375;3.3125;0.875;-1.4375;
1441975542138032;0.41241455078125;-0.53155517578125;-0.53271484375;-0.51348876953125;17.01312034099128;11.820738842474778;16.03333273303964;-0.982421875;0.1064453125;0.07958984375;3.4375;0.5625;-0.75;
1441975542161034;0.412353515625;-0.53179931640625;-0.5322265625;-0.5137939453125;17.01663147727582;11.822389365332501;16.031828403754034;-0.97509765625;0.109375;0.08642578125;2.8125;0.5;0.3125;
1441975542207036;0.41204833984375;-0.5322265625;-0.53179931640625;-0.51397705078125;17.017284786711215;11.83046488313157;16.036030202983362;-0.96826171875;0.103515625;0.091796875;3.375;0.6875;1.1875;
1441975542209036;0.41168212890625;-0.53277587890625;-0.531494140625;-0.51409912109375;17.01630647285753;11.842154129642791;16.04386379039373;-0.95458984375;0.10693359375;0.09619140625;3.875;0.9375;1.9375;
1441975542222037;0.4111328125;-0.5333251953125;-0.53125;-0.51422119140625;17.013314262053772;11.853102434008187;16.050587707812195;-0.943359375;0.1171875;0.0830078125;4.0625;0.5625;2.5;
1441975542244038;0.41070556640625;-0.53375244140625;-0.53094482421875;-0.514404296875;17.012004970458758;11.860260123279506;16.053871312807143;-0.943359375;0.1318359375;0.0859375;4.3125;-0.1875;2.1875;
1441975542265040;0.4105224609375;-0.53399658203125;-0.53057861328125;-0.5146484375;17.013461716918844;11.862439716837821;16.05306232855848;-0.97021484375;0.14404296875;0.0791015625;3.8125;-0.5625;0.9375;
1441975542281040;0.41009521484375;-0.5341796875;-0.530029296875;-0.515380859375;17.01515175230446;11.85282116639635;16.038001918832336;-0.9833984375;0.13427734375;0.07275390625;2.875;-1.4375;-0.1875;
1441975542304042;0.40948486328125;-0.534912109375;-0.5286865234375;-0.5164794921875;17.021492781840248;11.852363516128223;16.026661263830682;-0.96728515625;0.12109375;0.09912109375;5.3125;-1.125;-1.0;
1441975542325043;0.40869140625;-0.5361328125;-0.52703857421875;-0.51751708984375;17.028124827632062;11.866573138481495;16.027350962232028;-0.9677734375;0.11572265625;0.10498046875;11.0625;0.9375;-1.875;
1441975542340044;0.4083251953125;-0.53692626953125;-0.52593994140625;-0.51806640625;17.033678195498595;11.879149792787755;16.031849177376877;-0.98095703125;0.1298828125;0.091796875;13.4375;2.0625;-2.1875;
1441975542364045;0.40869140625;-0.53704833984375;-0.52545166015625;-0.5181884765625;17.040559049704235;11.882941583644497;16.034611390877423;-0.98388671875;0.15380859375;0.09228515625;8.25;2.3125;-2.5625;
1441975542385046;0.40948486328125;-0.53668212890625;-0.525390625;-0.51806640625;17.047765226853855;11.878612505309738;16.03382740036618;-0.978515625;0.1318359375;0.08837890625;1.0;2.125;-2.25;
1441975542407048;0.41021728515625;-0.53643798828125;-0.52508544921875;-0.51800537109375;17.05630883907355;11.877151123029822;16.034488585841263;-0.966796875;0.11328125;0.0986328125;-3.375;2.8125;-1.625;
1441975542424049;0.41046142578125;-0.53656005859375;-0.5247802734375;-0.51800537109375;17.060564727415695;11.88254281466403;16.039365403974898;-0.970703125;0.10107421875;0.10107421875;-1.625;3.1875;-1.0625;
1441975542445050;0.41082763671875;-0.53662109375;-0.5245361328125;-0.517822265625;17.065103251389978;11.890613341907624;16.048136411507553;-0.97021484375;0.11181640625;0.10009765625;0.8125;2.8125;-0.0625;
1441975542469051;0.41119384765625;-0.53656005859375;-0.52471923828125;-0.5174560546875;17.06618608204631;11.897437736059212;16.05778361735952;-0.974609375;0.11328125;0.0849609375;-0.4375;2.5;0.5625;
1441975542484052;0.41168212890625;-0.5361328125;-0.52520751953125;-0.5169677734375;17.066080711438293;11.89621575909867;16.06200091963398;-0.95361328125;0.11767578125;0.087890625;-2.6875;1.75;1.4375;
1441975542505053;0.412109375;-0.53564453125;-0.5257568359375;-0.5166015625;17.06527950513408;11.89008088783468;16.06114051487589;-0.94580078125;0.11181640625;0.0869140625;-5.125;1.0625;1.5625;
1441975542520054;0.4124755859375;-0.5352783203125;-0.52630615234375;-0.51611328125;17.06363931970355;11.889773118108973;16.065922061846155;-0.95068359375;0.107421875;0.095703125;-5.25;0.5;2.0625;
1441975542543055;0.4127197265625;-0.53509521484375;-0.5267333984375;-0.51568603515625;17.061847095358555;11.893139506850513;16.072976645756853;-0.95654296875;0.1181640625;0.08935546875;-4.8125;0.5;2.1875;
1441975542565057;0.41314697265625;-0.53472900390625;-0.52703857421875;-0.51544189453125;17.063006146696196;11.888726554169583;16.072436777598817;-0.97119140625;0.12890625;0.07666015625;-3.6875;-0.25;1.6875;
1441975542581058;0.41326904296875;-0.534423828125;-0.52716064453125;-0.51556396484375;17.063593518683906;11.877655047734304;16.06260108349999;-0.984375;0.111328125;0.072265625;-3.9375;-0.9375;1.25;
1441975542603059;0.41302490234375;-0.534423828125;-0.52691650390625;-0.5159912109375;17.064146091031688;11.868507356246743;16.050816277442593;-0.994140625;0.10400390625;0.0859375;-1.1875;-1.1875;1.375;
1441975542625060;0.41259765625;-0.53472900390625;-0.5263671875;-0.51654052734375;17.065423352889468;11.865636882815803;16.042671494997773;-0.99462890625;0.10546875;0.08837890625;2.75;-1.25;0.8125;
1441975542640061;0.41217041015625;-0.5350341796875;-0.52606201171875;-0.516845703125;17.064428516017077;11.867094829273373;16.040256216994955;-0.9892578125;0.11865234375;0.08642578125;5.1875;-0.9375;0.0;
1441975542663062;0.41229248046875;-0.53485107421875;-0.52618408203125;-0.516845703125;17.064677676397732;11.861984466505373;16.036381886477248;-0.96875;0.14306640625;0.0888671875;3.6875;-0.5;-0.5625;
1441975542686064;0.41302490234375;-0.5341796875;-0.526611328125;-0.5164794921875;17.067493778337813;11.85249753667142;16.033220267814336;-0.95361328125;0.15087890625;0.09423828125;-1.375;0.125;-1.75;
1441975542700064;0.4144287109375;-0.5333251953125;-0.52716064453125;-0.5157470703125;17.07454384163608;11.847664033729943;16.03860381747593;-0.93994140625;0.1494140625;0.09716796875;-6.4375;1.25;-2.75;
1441975542723066;0.41632080078125;-0.531982421875;-0.52801513671875;-0.51470947265625;17.08324697924675;11.836688180598426;16.042397661316155;-0.94287109375;0.14111328125;0.08056640625;-10.1875;2.4375;-3.375;
1441975542755068;0.41845703125;-0.53057861328125;-0.5289306640625;-0.5135498046875;17.09338625564329;11.827192512404146;16.04908873562696;-0.94189453125;0.1318359375;0.08251953125;-14.75;2.8125;-3.75;
1441975542760068;0.4205322265625;-0.52911376953125;-0.529541015625;-0.5126953125;17.105884243581446;11.810107986612381;16.046419465495497;-0.94775390625;0.11572265625;0.07177734375;-16.125;2.625;-3.125;
1441975542783069;0.42218017578125;-0.5279541015625;-0.53009033203125;-0.51202392578125;17.11532572157025;11.795919423862728;16.04384104047801;-0.97216796875;0.0869140625;0.05859375;-14.6875;1.3125;-2.5;
1441975542807071;0.42327880859375;-0.5269775390625;-0.5303955078125;-0.51177978515625;17.12254760768031;11.776023471303299;16.031501291445267;-0.99609375;0.0830078125;0.0556640625;-11.5625;0.125;-1.25;
1441975542821071;0.42364501953125;-0.526611328125;-0.5303955078125;-0.5118408203125;17.125970693410387;11.765178761987944;16.022591205198744;-0.99951171875;0.0703125;0.064453125;-7.6875;-0.9375;-0.125;
1441975542851073;0.42333984375;-0.52679443359375;-0.5301513671875;-0.51214599609375;17.12560945739855;11.763236301465371;16.0176629445642;-0.9951171875;0.087890625;0.07177734375;-1.9375;-1.375;0.4375;
1441975542866074;0.42303466796875;-0.5272216796875;-0.53009033203125;-0.511962890625;17.12293128921085;11.779260642574709;16.031920225741086;-0.984375;0.12255859375;0.08447265625;2.8125;-0.875;-0.0625;
1441975542880075;0.42364501953125;-0.52691650390625;-0.53057861328125;-0.51129150390625;17.123499424187006;11.786342042091439;16.044973491908504;-0.9658203125;0.18115234375;0.07470703125;1.6875;0.25;-1.875;
1441975542903076;0.4256591796875;-0.525390625;-0.531494140625;-0.51025390625;17.132910500400662;11.769746117710607;16.04418928771977;-0.95703125;0.203125;0.0703125;-6.6875;1.0;-5.0;
1441975542927077;0.42840576171875;-0.52337646484375;-0.5322265625;-0.50927734375;17.150290899230672;11.740145550610364;16.033214259291935;-0.95703125;0.17578125;0.06982421875;-16.25;1.625;-7.875;
1441975542955079;0.43133544921875;-0.52142333984375;-0.53240966796875;-0.50860595703125;17.173766465026983;11.706566159381563;16.016153169449744;-0.95361328125;0.14404296875;0.07177734375;-18.875;2.6875;-10.0;
1441975542963079;0.43402099609375;-0.51995849609375;-0.5321044921875;-0.50811767578125;17.198841535864254;11.68314428520786;16.00520984611699;-0.95458984375;0.1103515625;0.0732421875;-16.875;4.375;-11.0625;
1441975542988081;0.436279296875;-0.51904296875;-0.53155517578125;-0.5076904296875;17.221953178357037;11.674322010781921;16.00517863269203;-0.95068359375;0.11083984375;0.06640625;-12.6875;5.25;-11.1875;
1441975543007082;0.43865966796875;-0.51788330078125;-0.5313720703125;-0.50701904296875;17.243093966585928;11.662954749240443;16.005402592461934;-0.9521484375;0.1259765625;0.06201171875;-9.3125;5.625;-10.875;
1441975543023083;0.441162109375;-0.5164794921875;-0.53143310546875;-0.5062255859375;17.263359239250853;11.645954335891368;16.002092266151518;-0.96630859375;0.1298828125;0.0615234375;-11.625;5.3125;-10.4375;
1441975543046084;0.44342041015625;-0.51495361328125;-0.5316162109375;-0.505615234375;17.280918414589877;11.617557001106494;15.986852215117612;-0.96826171875;0.1162109375;0.05419921875;-14.125;4.375;-9.375;
1441975543067085;0.4453125;-0.5137939453125;-0.53167724609375;-0.50506591796875;17.29621382127641;11.598626579354917;15.978445722411388;-0.98388671875;0.1044921875;0.06787109375;-13.6875;3.0;-8.6875;
1441975543083086;0.44683837890625;-0.512939453125;-0.5316162109375;-0.504638671875;17.309371619685027;11.585750991632125;15.973461928005623;-1.0078125;0.11865234375;0.0634765625;-10.5;2.875;-8.3125;
1441975543106088;0.4483642578125;-0.511962890625;-0.53167724609375;-0.5042724609375;17.3216982088421;11.56562966664571;15.961759929089466;-1.0126953125;0.12939453125;0.0595703125;-8.1875;2.625;-7.8125;
1441975543127089;0.4498291015625;-0.51080322265625;-0.53204345703125;-0.50372314453125;17.331008592936747;11.542954033295802;15.94924738093453;-0.99462890625;0.12548828125;0.064453125;-8.9375;2.0;-7.875;
1441975543143090;0.451171875;-0.50982666015625;-0.53240966796875;-0.50311279296875;17.339152605621145;11.528344934961856;15.944100234755219;-0.9580078125;0.1181640625;0.07763671875;-10.375;2.125;-7.0625;
1441975543174092;0.45263671875;-0.5087890625;-0.532958984375;-0.50225830078125;17.346677307828685;11.518932251030717;15.945899982268289;-0.94677734375;0.12109375;0.07421875;-9.6875;2.4375;-6.25;
1441975543187092;0.4542236328125;-0.507568359375;-0.5340576171875;-0.5008544921875;17.35049192451187;11.519254409198194;15.961459685358788;-0.9521484375;0.12744140625;0.0693359375;-11.4375;2.5625;-5.625;
1441975543203093;0.4560546875;-0.506103515625;-0.5355224609375;-0.4991455078125;17.353296529678204;11.519810336262035;15.980581658962006;-0.94677734375;0.1455078125;0.072265625;-15.4375;2.75;-4.875;
1441975543226094;0.4581298828125;-0.50457763671875;-0.53704833984375;-0.49713134765625;17.35737237941955;11.528876199096121;16.010137847320976;-0.95849609375;0.15771484375;0.0751953125;-19.125;2.9375;-4.8125;
1441975543247096;0.46038818359375;-0.50286865234375;-0.53851318359375;-0.49517822265625;17.36358854460421;11.529871220729452;16.03232290134632;-0.96435546875;0.1533203125;0.0693359375;-20.3125;3.6875;-4.5;
1441975543263097;0.46270751953125;-0.50091552734375;-0.5401611328125;-0.49322509765625;17.36901920677665;11.520997245686797;16.04603848870259;-0.97509765625;0.13427734375;0.06005859375;-21.375;3.3125;-4.3125;
1441975543294098;0.46484375;-0.4991455078125;-0.54193115234375;-0.4910888671875;17.371681916339185;11.524597321484476;16.07205232070989;-0.96875;0.099609375;0.06689453125;-22.9375;2.625;-2.5;
1441975543307099;0.46673583984375;-0.49755859375;-0.54400634765625;-0.48858642578125;17.369385005740448;11.54587243199066;16.116444402058583;-0.94921875;0.0927734375;0.0556640625;-22.1875;2.4375;0.125;
1441975543323100;0.4686279296875;-0.49591064453125;-0.546630859375;-0.48553466796875;17.362085738295207;11.580341597245427;16.17736069621935;-0.94580078125;0.10400390625;0.0546875;-23.1875;2.0;2.3125;
1441975543346101;0.47052001953125;-0.49407958984375;-0.54962158203125;-0.482177734375;17.351518334695267;11.614872456282875;16.240798140958603;-0.9453125;0.11376953125;0.0498046875;-26.25;1.6875;4.625;
1441975543367103;0.472412109375;-0.4921875;-0.55279541015625;-0.4786376953125;17.339143982100627;11.650373132379737;16.306438060801657;-0.955078125;0.11669921875;0.052734375;-29.0;1.6875;6.4375;
1441975543383103;0.4742431640625;-0.49041748046875;-0.55596923828125;-0.47491455078125;17.325608467385774;11.693942688462332;16.380160663045224;-0.9736328125;0.11669921875;0.05419921875;-29.625;1.25;7.6875;
1441975543406105;0.47607421875;-0.48870849609375;-0.55926513671875;-0.470947265625;17.310326309896617;11.743955780260084;16.46121305432249;-0.978515625;0.10595703125;0.0517578125;-29.9375;1.5625;9.375;
1441975543427106;0.47802734375;-0.48699951171875;-0.56256103515625;-0.46685791015625;17.29545660805696;11.79559046102266;16.544591407715192;-0.9736328125;0.10791015625;0.04736328125;-30.6875;2.125;11.0;
1441975543443107;0.47979736328125;-0.4853515625;-0.56597900390625;-0.4625244140625;17.277135003991763;11.851204550776172;16.632335660672137;-0.98974609375;0.0908203125;0.04638671875;-31.5;2.375;12.625;
1441975543466108;0.48126220703125;-0.48394775390625;-0.56939697265625;-0.458251953125;17.255611066399286;11.906945710784168;16.718465279108845;-0.98876953125;0.08935546875;0.05224609375;-31.4375;2.625;14.625;
1441975543489110;0.48260498046875;-0.483154296875;-0.572509765625;-0.453857421875;17.233278854960147;11.982810135819893;16.822090500152775;-0.97900390625;0.087890625;0.068359375;-29.5;3.875;16.4375;
1441975543503110;0.48388671875;-0.48260498046875;-0.57550048828125;-0.44927978515625;17.209495866681838;12.066277572554412;16.932646032610126;-0.9775390625;0.10205078125;0.056640625;-26.875;5.1875;17.4375;
1441975543532112;0.48529052734375;-0.48187255859375;-0.57867431640625;-0.44439697265625;17.18400401215709;12.145410859042627;17.041183767817614;-0.97216796875;0.11376953125;0.0478515625;-26.4375;5.875;17.9375;
1441975543548113;0.48681640625;-0.48114013671875;-0.5819091796875;-0.43927001953125;17.157360569502494;12.22500208703172;17.151426090186163;-0.95849609375;0.12109375;0.04931640625;-28.25;6.5;18.4375;
1441975543563114;0.48858642578125;-0.47998046875;-0.5853271484375;-0.43402099609375;17.131364347186686;12.290615680325775;17.250524796065324;-0.953125;0.13134765625;0.04345703125;-29.875;7.0625;18.5625;
1441975543585115;0.49072265625;-0.478515625;-0.58868408203125;-0.42864990234375;17.108446522298813;12.351117289314168;17.346648044028598;-0.94921875;0.12158203125;0.04638671875;-32.5625;7.1875;18.375;
1441975543607116;0.49273681640625;-0.47723388671875;-0.59173583984375;-0.42352294921875;17.086432897213097;12.409721741890941;17.438438767081998;-0.95068359375;0.11865234375;0.04296875;-34.5;7.625;17.875;
1441975543638118;0.494873046875;-0.47613525390625;-0.59417724609375;-0.41876220703125;17.0696971787534;12.471395970112084;17.530323429390403;-0.9765625;0.1259765625;0.04638671875;-32.4375;8.3125;17.0625;
1441975543645118;0.49676513671875;-0.47528076171875;-0.59619140625;-0.41461181640625;17.055161804426128;12.527192496472798;17.611921194842918;-0.9833984375;0.10498046875;0.02783203125;-28.8125;8.8125;16.0;
1441975543670120;0.498291015625;-0.47503662109375;-0.5977783203125;-0.41082763671875;17.039466069415575;12.589197828347988;17.69461701775947;-0.9599609375;0.08642578125;0.04248046875;-24.875;9.25;16.0625;
1441975543683121;0.49932861328125;-0.4754638671875;-0.59893798828125;-0.4073486328125;17.02105025176838;12.657918890118804;17.778605016007166;-0.92919921875;0.08056640625;0.04248046875;-19.375;9.8125;16.5625;
1441975543705122;0.500244140625;-0.47607421875;-0.59991455078125;-0.40399169921875;17.00205210827453;12.726632782196198;17.860845784229127;-0.92578125;0.08935546875;0.03564453125;-13.875;10.1875;17.0625;
1441975543729123;0.5010986328125;-0.4764404296875;-0.60107421875;-0.40081787109375;16.982953043745844;12.781087790930794;17.929335699639825;-0.91796875;0.09619140625;0.025390625;-12.3125;9.5625;17.1875;
1441975543743124;0.50177001953125;-0.47698974609375;-0.60205078125;-0.39788818359375;16.96370174224778;12.833321101045442;17.993320005866952;-0.89990234375;0.087890625;0.03466796875;-12.9375;8.75;17.0625;
1441975543765125;0.50225830078125;-0.47784423828125;-0.6026611328125;-0.39520263671875;16.944808037783236;12.888583348214702;0.05719730267716881;-0.90185546875;0.0947265625;0.03564453125;-10.5625;8.625;16.625;
1441975543789127;0.50262451171875;-0.47882080078125;-0.60296630859375;-0.39306640625;16.928901777131486;12.938892690711446;0.1129030570965645;-0.8974609375;0.10498046875;0.0283203125;-7.5;8.5625;15.75;
1441975543817128;0.50286865234375;-0.4801025390625;-0.60284423828125;-0.39141845703125;16.915509888537567;12.990999182669984;0.16648740096771772;-0.88525390625;0.09814453125;0.0302734375;-4.375;8.375;14.375;
1441975543825129;0.50286865234375;-0.481689453125;-0.60235595703125;-0.3902587890625;16.903494351439768;13.042732870661057;0.21562524084130874;-0.88330078125;0.09912109375;0.0263671875;-0.5;8.375;13.125;
1441975543849130;0.50286865234375;-0.483642578125;-0.601318359375;-0.38946533203125;16.894372621252845;13.103184059934526;0.2697548795594669;-0.873046875;0.10498046875;0.03662109375;3.8125;8.6875;11.75;
1441975543863131;0.50286865234375;-0.485595703125;-0.59991455078125;-0.38916015625;16.889703874980924;13.162080398057874;0.3198452835012206;-0.86328125;0.09814453125;0.0302734375;7.375;9.875;10.5625;
1441975543885132;0.5025634765625;-0.48822021484375;-0.59796142578125;-0.38922119140625;16.884222921196848;13.231318714811039;0.37480575622789875;-0.85009765625;0.08203125;0.037109375;10.1875;10.625;9.4375;
1441975543908134;0.5020751953125;-0.4913330078125;-0.59564208984375;-0.3895263671875;16.877808629950497;13.308007858924267;0.4334900839341647;-0.837890625;0.08056640625;0.0361328125;15.75;11.625;9.375;
1441975543937135;0.50146484375;-0.4945068359375;-0.59356689453125;-0.38958740234375;16.86697738687849;13.381924630530103;0.49029291465181085;-0.83203125;0.08349609375;0.02978515625;19.3125;12.25;9.5625;
1441975543945136;0.5010986328125;-0.49725341796875;-0.59197998046875;-0.38885498046875;16.851893716830812;13.452679400233235;0.5496707171292038;-0.8310546875;0.11279296875;0.029296875;18.625;12.4375;9.6875;
1441975543969137;0.50152587890625;-0.4989013671875;-0.5911865234375;-0.387451171875;16.83902050013341;13.511542359453447;0.6068222695254962;-0.8515625;0.14599609375;0.021484375;12.75;12.75;9.6875;
1441975543990138;0.50262451171875;-0.49932861328125;-0.59100341796875;-0.3857421875;16.831848220996886;13.554876743113386;0.6565593202898553;-0.88134765625;0.14990234375;0.00634765625;3.0;12.0625;8.625;
1441975544005139;0.50390625;-0.499755859375;-0.59075927734375;-0.38385009765625;16.824359948218365;13.60322303114793;0.7122016912513017;-0.884765625;0.11865234375;0.00634765625;-5.3125;10.6875;7.8125;
1441975544036141;0.50518798828125;-0.50048828125;-0.59033203125;-0.38189697265625;16.814969302341886;13.658637825956454;0.7736714587222819;-0.85595703125;0.1025390625;0.01025390625;-6.0;12.375;8.4375;
1441975544050142;0.506103515625;-0.50152587890625;-0.58966064453125;-0.38043212890625;16.805773645794346;13.71117070124548;0.8281834869712952;-0.8369140625;0.09228515625;0.00439453125;-4.4375;13.75;10.0;
1441975544066143;0.5068359375;-0.5025634765625;-0.58905029296875;-0.3790283203125;16.795444004634227;13.75854089892888;0.8770276436059453;-0.84326171875;0.09912109375;-0.0107421875;-1.0625;11.625;9.1875;
1441975544089144;0.50726318359375;-0.5037841796875;-0.58819580078125;-0.37811279296875;16.786579172550145;13.802705843528498;0.9191327650045793;-0.82568359375;0.091796875;-0.0185546875;-0.5;10.25;9.75;
1441975544103145;0.5069580078125;-0.5059814453125;-0.587158203125;-0.37725830078125;16.768791827134628;13.849396732234961;0.9581306387703523;-0.7890625;0.07177734375;-0.01416015625;2.8125;9.5625;10.375;
1441975544126146;0.506591796875;-0.5089111328125;-0.5859375;-0.375732421875;16.741416308458245;13.910600572317856;1.0108198405258486;-0.73681640625;0.091796875;-0.01708984375;8.5;9.4375;12.375;
1441975544149147;0.506103515625;-0.51226806640625;-0.58489990234375;-0.37335205078125;16.70318532938715;13.975249592272952;1.0684591130747612;-0.69921875;0.13330078125;-0.005859375;10.0;14.0;13.375;
1441975544170148;0.50634765625;-0.514404296875;-0.58453369140625;-0.37060546875;16.67076513329438;14.025899275585079;1.120727838399057;-0.69873046875;0.17431640625;-0.0234375;8.5;15.9375;15.875;
1441975544185149;0.50640869140625;-0.515869140625;-0.5841064453125;-0.36920166015625;16.652050115484734;14.057522711944507;1.1512166893309415;-0.71875;0.134765625;-0.0654296875;-1.125;12.0;16.125;
1441975544209151;0.504638671875;-0.5191650390625;-0.5828857421875;-0.368896484375;16.623930907871145;14.086403379447123;1.1629303142810945;-0.72265625;0.0693359375;-0.0390625;1.625;8.125;14.5;
1441975544230152;0.5015869140625;-0.52496337890625;-0.580810546875;-0.3681640625;16.572873694135925;14.136096328000479;1.1833622433585809;-0.68505859375;0.0849609375;-0.00634765625;17.6875;7.5625;18.6875;
1441975544245153;0.4993896484375;-0.5308837890625;-0.5791015625;-0.3653564453125;16.507173747074457;14.200662879527092;1.2279606259236637;-0.65087890625;0.173828125;-0.021484375;30.125;11.3125;22.875;
1441975544268154;0.4984130859375;-0.53411865234375;-0.580078125;-0.3603515625;16.439463381189704;14.22496572673394;1.2578301760446968;-0.66015625;0.2294921875;-0.07763671875;21.0625;15.9375;25.5625;
1441975544290155;0.497802734375;-0.53546142578125;-0.582763671875;-0.3548583984375;16.377395272474352;14.214637339177667;1.26599634720911;-0.68359375;0.22900390625;-0.0732421875;-4.9375;14.25;27.875;
1441975544305156;0.49639892578125;-0.537353515625;-0.5848388671875;-0.35052490234375;16.319142284899343;14.203003552304846;1.2638273422775388;-0.70703125;0.1845703125;-0.06494140625;-18.375;9.0;30.375;
1441975544329158;0.4940185546875;-0.5411376953125;-0.58551025390625;-0.34686279296875;16.253251992191032;14.211124585792668;1.2671161958396198;-0.76123046875;0.18017578125;-0.0576171875;-9.9375;6.1875;31.0625;
1441975544350159;0.49127197265625;-0.54620361328125;-0.58514404296875;-0.343505859375;16.182448977018442;14.236293604487152;1.2787571545303245;-0.86865234375;0.25634765625;-0.07275390625;4.8125;8.5625;32.25;
1441975544365160;0.4892578125;-0.55059814453125;-0.58526611328125;-0.339111328125;16.109537499352268;14.260416596141063;1.2979293504651688;-0.9609375;0.34130859375;-0.0986328125;14.125;11.25;31.0;
1441975544389161;0.48883056640625;-0.55242919921875;-0.58697509765625;-0.33380126953125;16.04885929934629;14.265263561308705;1.317151740577336;-0.98779296875;0.359375;-0.138671875;4.6875;12.0;31.3125;
1441975544410162;0.4881591796875;-0.55352783203125;-0.5885009765625;-0.33026123046875;16.006658197376897;14.259043749280963;1.3209176579802513;-0.95751953125;0.28515625;-0.1416015625;-14.375;10.4375;30.4375;
1441975544425163;0.485107421875;-0.55767822265625;-0.58831787109375;-0.32794189453125;15.948307476818592;14.266587272395133;1.3141836087346839;-0.9697265625;0.19384765625;-0.080078125;-10.625;7.625;29.5;
1441975544448164;0.48101806640625;-0.56396484375;-0.58709716796875;-0.32550048828125;15.873084264843747;14.29020317863538;1.311643279757122;-0.9677734375;0.25634765625;-0.0849609375;13.375;6.125;34.9375;
1441975544470166;0.47698974609375;-0.5704345703125;-0.58648681640625;-0.3211669921875;15.780116660164893;14.313061538679575;1.3154690645335287;-1.0048828125;0.3779296875;-0.11376953125;25.8125;8.5625;36.375;
1441975544485167;0.47454833984375;-0.57421875;-0.587890625;-0.31561279296875;15.696828811000245;14.314022134710244;1.319281411333161;-1.025390625;0.51025390625;-0.173828125;18.75;10.5;37.1875;
1441975544515168;0.47308349609375;-0.57537841796875;-0.59063720703125;-0.31036376953125;15.634132349719524;14.29313636175348;1.3147788555346642;-1.01806640625;0.4931640625;-0.19091796875;-3.875;8.6875;34.3125;
1441975544530169;0.47119140625;-0.5770263671875;-0.592529296875;-0.30657958984375;15.580294331058543;14.27759126809211;1.306035539797345;-1.0400390625;0.45068359375;-0.1171875;-16.375;7.5625;29.75;
1441975544554170;0.46844482421875;-0.580322265625;-0.5927734375;-0.30413818359375;15.52678350932373;14.278674709084813;1.2977610752120825;-1.09619140625;0.46630859375;-0.0869140625;-6.6875;6.5625;27.375;
1441975544568171;0.46612548828125;-0.58282470703125;-0.59332275390625;-0.30169677734375;15.479487145178176;14.275679789328228;1.2898670214238355;-1.09619140625;0.46337890625;-0.1298828125;8.6875;4.3125;28.0625;
1441975544591173;0.46368408203125;-0.58624267578125;-0.59320068359375;-0.2991943359375;15.426835864601806;14.283532184005406;1.2879717082320696;-1.06884765625;0.447265625;-0.11962890625;4.25;4.0;26.0;
1441975544605173;0.46173095703125;-0.5892333984375;-0.5933837890625;-0.2958984375;15.371824505880307;14.291097616777899;1.2917814021391627;-1.03271484375;0.4375;-0.14599609375;9.0625;5.625;28.4375;
1441975544628175;0.45989990234375;-0.59210205078125;-0.59356689453125;-0.29266357421875;15.31861587942759;14.29849886907151;1.2959400803552932;-1.00048828125;0.47119140625;-0.1416015625;3.6875;8.5;26.0625;
1441975544651176;0.45806884765625;-0.59423828125;-0.59417724609375;-0.2899169921875;15.273134576073435;14.297107045510991;1.293223870734351;-1.0185546875;0.55322265625;-0.1552734375;3.6875;8.25;21.3125;
1441975544665177;0.45703125;-0.595703125;-0.59515380859375;-0.28656005859375;15.229587010739715;14.295266470727677;1.2972639561361345;-1.0322265625;0.58544921875;-0.1455078125;2.0;5.0;17.4375;
1441975544688178;0.45709228515625;-0.59686279296875;-0.59619140625;-0.2818603515625;15.181570647491716;14.300594375800138;1.3168709787392587;-0.98974609375;0.546875;-0.1416015625;-4.9375;7.75;17.375;
1441975544711179;0.45758056640625;-0.59832763671875;-0.5968017578125;-0.27667236328125;15.13025005238541;14.314198736540323;1.3453733082010533;-0.97119140625;0.50390625;-0.15625;-12.5625;14.5625;20.3125;
1441975544732181;0.45794677734375;-0.60028076171875;-0.5965576171875;-0.27227783203125;15.083380800685058;14.334894945056018;1.3742605209057293;-0.96337890625;0.51806640625;-0.18212890625;-12.5;18.1875;20.0625;
1441975544748182;0.45849609375;-0.60205078125;-0.5960693359375;-0.2684326171875;15.043279869509936;14.356403493646424;1.4026312409286679;-0.97412109375;0.54296875;-0.19482421875;-5.4375;17.625;17.1875;
1441975544771183;0.45928955078125;-0.6033935546875;-0.59564208984375;-0.26495361328125;15.009682591604664;14.37575362636063;1.4298673828026567;-0.9736328125;0.57421875;-0.19091796875;-3.875;17.125;12.3125;
1441975544792184;0.4599609375;-0.605224609375;-0.59490966796875;-0.26129150390625;14.971253507934321;14.398882314153196;1.4587667607323656;-1.00244140625;0.57470703125;-0.19287109375;-4.5625;16.9375;10.3125;
1441975544809185;0.46185302734375;-0.606201171875;-0.594482421875;-0.25665283203125;14.934297000410059;14.423246953467883;1.498924420417989;-1.0068359375;0.59619140625;-0.1923828125;-1.9375;18.6875;11.75;
1441975544831186;0.46435546875;-0.605224609375;-0.5955810546875;-0.25189208984375;14.908703223579437;14.429300429349441;1.5332300004114847;-1.02294921875;0.59765625;-0.236328125;-11.75;22.5;9.875;
1441975544852188;0.46630859375;-0.6044921875;-0.59637451171875;-0.24810791015625;14.887967984826556;14.434516722639781;1.5604785520149118;-0.970703125;0.52392578125;-0.20068359375;-24.1875;20.125;7.9375;
1441975544868188;0.468017578125;-0.6058349609375;-0.594970703125;-0.24505615234375;14.862070029863403;14.464499049763946;1.5968736842303766;-0.9072265625;0.4892578125;-0.14208984375;-17.4375;18.375;6.9375;
1441975544899190;0.4705810546875;-0.60662841796875;-0.59307861328125;-0.2425537109375;14.847879992195516;14.500313023738052;1.6400703213592318;-0.912109375;0.5673828125;-0.15869140625;0.25;23.5625;3.625;
1441975544912191;0.4735107421875;-0.6065673828125;-0.59185791015625;-0.2401123046875;14.83989567602386;14.52886307693618;1.6813435947087756;-0.96484375;0.57861328125;-0.171875;0.25;25.3125;-2.5;
1441975544928192;0.4765625;-0.6058349609375;-0.591064453125;-0.23779296875;14.836884607521934;14.55169662350496;1.720153539313376;-0.978515625;0.56396484375;-0.1884765625;-5.5;23.1875;-3.5;
1441975544951193;0.4798583984375;-0.60552978515625;-0.58978271484375;-0.23516845703125;14.82945159695119;14.581749592961273;1.7651462691797222;-0.943359375;0.5126953125;-0.177734375;-9.8125;21.1875;-4.0625;
1441975544972194;0.48333740234375;-0.6053466796875;-0.58837890625;-0.23211669921875;14.817740697599072;14.614309860607786;1.8138224478580813;-0.89892578125;0.48095703125;-0.19775390625;-8.5;23.5625;-3.25;
1441975544988195;0.487060546875;-0.6044921875;-0.58734130859375;-0.22906494140625;14.810416850332702;14.642516457980816;1.861965055560801;-0.896484375;0.4990234375;-0.24267578125;-10.125;24.3125;-3.125;
1441975545011197;0.49053955078125;-0.60406494140625;-0.58587646484375;-0.2264404296875;14.802921447068561;14.674139218409232;1.9089523744112058;-0.8955078125;0.48193359375;-0.22705078125;-13.4375;24.0625;-4.625;
1441975545032198;0.493896484375;-0.60430908203125;-0.58380126953125;-0.22381591796875;14.790284443046723;14.71225576425046;1.9583145244826679;-0.900390625;0.48193359375;-0.21923828125;-8.8125;24.6875;-4.3125;
1441975545048199;0.49761962890625;-0.60467529296875;-0.58148193359375;-0.220703125;14.773050128581957;14.754557315599394;2.013408231751882;-0.9169921875;0.537109375;-0.2333984375;-3.5;26.625;-5.5625;
1441975545071200;0.502197265625;-0.603515625;-0.58050537109375;-0.2159423828125;14.752894399575514;14.784903554770647;2.072828954308186;-0.8828125;0.5146484375;-0.30126953125;-6.375;26.4375;-5.125;
1441975545092201;0.5067138671875;-0.60418701171875;-0.57733154296875;-0.2120361328125;14.727153156234369;14.838466401334689;2.1407043439833577;-0.76904296875;0.46240234375;-0.24560546875;-20.625;31.0;-6.0625;
1441975545108202;0.5111083984375;-0.60577392578125;-0.5740966796875;-0.20556640625;14.670682125308993;14.891941177116061;2.2136232776909344;-0.7802734375;0.48095703125;-0.2578125;-4.0625;36.4375;-6.375;
1441975545121203;0.51763916015625;-0.60418701171875;-0.5733642578125;-0.19573974609375;14.610639458145362;14.923999356675232;2.2991019753764097;-0.7919921875;0.6328125;-0.28662109375;-6.25;45.5625;-3.375;
1441975545144204;0.52587890625;-0.59832763671875;-0.57647705078125;-0.18218994140625;14.551560394366996;14.918382559795209;2.3883616018367273;-0.810546875;0.67822265625;-0.33544921875;-38.1875;51.5;-7.5625;
1441975545167206;0.5341796875;-0.593505859375;-0.57830810546875;-0.16741943359375;14.47374654831606;14.922934627517552;2.4857792289762557;-0.818359375;0.60205078125;-0.24755859375;-76.9375;59.3125;-4.5;
1441975545181206;0.543212890625;-0.591552734375;-0.57733154296875;-0.1474609375;14.328628256653653;14.950604320937808;2.6100671070655133;-0.80810546875;0.54150390625;-0.1923828125;-71.6875;72.0625;5.3125;
1441975545204208;0.55487060546875;-0.5877685546875;-0.57562255859375;-0.12384033203125;14.166029172336916;14.981395004403897;2.762486221853103;-0.8486328125;0.79345703125;-0.28564453125;-67.4375;99.875;14.9375;
1441975545227209;0.56646728515625;-0.5789794921875;-0.578857421875;-0.0941162109375;13.988587664210621;14.948925537928893;2.9046933878046124;-0.97802734375;0.82958984375;-0.36767578125;-89.25;120.875;23.0625;
1441975545241210;0.57568359375;-0.56634521484375;-0.58685302734375;-0.059326171875;13.797271667222908;14.851345768436088;3.0224542557974097;-1.2060546875;0.6845703125;-0.65673828125;-145.25;119.8125;36.3125;
1441975545264211;0.57489013671875;-0.55096435546875;-0.6041259765625;-0.0318603515625;13.686025297756014;14.654057581667963;3.0235941992361095;-1.41748046875;0.6806640625;-0.8720703125;-191.8125;109.75;54.125;
1441975545287212;0.5623779296875;-0.5504150390625;-0.6160888671875;-0.0341796875;13.693715899330602;14.522223159689045;2.883788610121576;-1.974609375;0.537109375;-0.009765625;-196.0;33.6875;64.5625;
1441975545301213;0.54888916015625;-0.5831298828125;-0.59600830078125;-0.05902099609375;13.631083067949373;14.707497720428465;2.7787751867672585;-1.91748046875;-0.65283203125;0.89111328125;-29.75;-90.1875;31.875;
1441975545324215;0.533935546875;-0.61260986328125;-0.57806396484375;-0.07427978515625;13.509425051772586;14.850884484377584;2.680493796769757;-0.90576171875;0.529296875;-0.041015625;264.0;-51.1875;59.8125;
1441975545347216;0.5186767578125;-0.62359619140625;-0.5797119140625;-0.07769775390625;13.428835385355713;14.808882999601357;2.5531607452788756;-1.03955078125;1.17041015625;-0.25048828125;217.4375;-32.875;81.625;
1441975545361217;0.5032958984375;-0.624267578125;-0.5924072265625;-0.07843017578125;13.39599743792601;14.670041260840502;2.4027495038134505;-1.1083984375;1.30615234375;-0.4404296875;56.9375;-59.5625;62.3125;
1441975545384218;0.4835205078125;-0.6270751953125;-0.6043701171875;-0.08819580078125;13.402895364679305;14.534210891943655;2.201781756767947;-1.06103515625;0.87646484375;-0.3779296875;-34.1875;-88.4375;66.625;
1441975545407219;0.4619140625;-0.63458251953125;-0.6116943359375;-0.0987548828125;13.366566644867474;14.435902727440675;2.0023663475676234;-1.0546875;0.61572265625;-0.16943359375;4.25;-132.625;55.9375;
1441975545421220;0.4375;-0.64630126953125;-0.61590576171875;-0.10772705078125;13.269748537561068;14.363367983787134;1.8038575428195012;-1.05712890625;0.6376953125;-0.13671875;40.875;-126.8125;70.4375;
1441975545444221;0.41131591796875;-0.65606689453125;-0.62200927734375;-0.116455078125;13.164000366142051;14.272686980604787;1.5944793346607622;-0.99365234375;0.59326171875;-0.21142578125;62.875;-121.625;96.0;
1441975545467223;0.38531494140625;-0.66461181640625;-0.6279296875;-0.12481689453125;13.05248311261204;14.186031095455546;1.3937809070226759;-0.9052734375;0.73095703125;-0.14306640625;50.3125;-132.5625;97.4375;
1441975545481223;0.35870361328125;-0.67578125;-0.63043212890625;-0.13134765625;12.903334035050806;14.134515702049159;1.2130915627784258;-0.83935546875;0.669921875;-0.24658203125;43.9375;-132.5625;94.9375;
1441975545504225;0.3323974609375;-0.68841552734375;-0.6302490234375;-0.1358642578125;12.730096910320672;14.112273593111537;1.0550473172490151;-0.802734375;0.814453125;-0.46533203125;60.75;-121.25;105.9375;
1441975545527226;0.30792236328125;-0.69696044921875;-0.6324462890625;-0.13970947265625;12.574562034635857;14.072262202182786;0.9062318338488702;-0.65087890625;0.8251953125;-0.544921875;70.4375;-106.4375;111.375;
1441975545541227;0.28424072265625;-0.70147705078125;-0.6373291015625;-0.1451416015625;12.446275474247154;14.008538309510996;0.7512622381741652;-0.55810546875;0.83544921875;-0.48681640625;44.3125;-104.5625;99.75;
1441975545564228;0.261962890625;-0.70526123046875;-0.640869140625;-0.15264892578125;12.344007064529704;13.955075315415971;0.6012225272368481;-0.49609375;0.72314453125;-0.3291015625;22.6875;-114.4375;86.5625;
1441975545587230;0.2408447265625;-0.710693359375;-0.6405029296875;-0.1634521484375;12.27397621205153;13.931186962623656;0.45469320019622017;-0.3798828125;0.630859375;-0.244140625;28.375;-115.6875;70.4375;
1441975545601230;0.2218017578125;-0.7177734375;-0.63604736328125;-0.17645263671875;12.237189453098367;13.938220092535264;0.3192784806815437;-0.32666015625;0.541015625;-0.1845703125;54.5;-117.1875;53.0;
1441975545633232;0.2064208984375;-0.7216796875;-0.6329345703125;-0.18975830078125;12.235523055049832;13.931686076830324;0.19592480376016588;-0.31884765625;0.49267578125;-0.224609375;77.75;-111.5625;35.3125;
1441975545647233;0.1954345703125;-0.72247314453125;-0.63134765625;-0.203369140625;12.272220446070015;13.91067015674228;0.08717297481528717;-0.35498046875;0.552734375;-0.18896484375;57.875;-103.6875;16.6875;
1441975545661234;0.1885986328125;-0.72186279296875;-0.62884521484375;-0.21905517578125;12.360100892435032;13.890607447459846;17.988929474910602;-0.37646484375;0.46484375;-0.15283203125;32.5625;-96.125;-0.5;
1441975545684235;0.18682861328125;-0.7200927734375;-0.62359619140625;-0.24029541015625;12.538380344512408;13.876424509357175;17.89236345057501;-0.37548828125;0.40771484375;-0.1650390625;27.375;-91.125;-26.3125;
1441975545707236;0.1888427734375;-0.7164306640625;-0.616943359375;-0.2655029296875;12.783659616932134;13.855742849094552;17.79301292477971;-0.38427734375;0.3046875;-0.13330078125;35.0;-93.3125;-68.3125;
1441975545730238;0.19537353515625;-0.71044921875;-0.6092529296875;-0.29315185546875;13.088775119899601;13.825754373900471;17.6978066891563;-0.45703125;0.26123046875;-0.1064453125;37.4375;-95.0;-108.4375;
1441975545744239;0.20672607421875;-0.701904296875;-0.6005859375;-0.3223876953125;13.449558507160464;13.784676228764717;17.609073556319206;-0.52001953125;0.2998046875;-0.10595703125;29.5;-91.75;-139.5;
1441975545767240;0.22210693359375;-0.69183349609375;-0.590087890625;-0.35205078125;13.851809492626112;13.741687183320106;17.53015950895882;-0.58447265625;0.2392578125;-0.09912109375;18.125;-84.5625;-168.25;
1441975545781241;0.2398681640625;-0.6817626953125;-0.57623291015625;-0.38165283203125;14.282569981301826;13.711799289165166;17.462184647047348;-0.6728515625;0.17041015625;-0.05322265625;13.75;-72.75;-189.8125;
1441975545804242;0.2587890625;-0.67230224609375;-0.558349609375;-0.4114990234375;14.73787694600851;13.701438478180117;17.402907773457947;-0.7392578125;0.107421875;-0.033203125;22.375;-60.125;-205.25;
1441975545827243;0.27874755859375;-0.66326904296875;-0.53717041015625;-0.4403076171875;15.206890203222315;13.71549505031648;17.363193576480842;-0.787109375;0.0732421875;0.0068359375;38.3125;-49.625;-218.5625;
1441975545850245;0.30096435546875;-0.65216064453125;-0.5140380859375;-0.468994140625;15.708098659216796;13.73345334946153;17.334910783049754;-0.87255859375;0.1435546875;-0.0341796875;48.0625;-36.8125;-227.75;
1441975545864245;0.3260498046875;-0.63604736328125;-0.4920654296875;-0.49700927734375;16.238429558907306;13.705764141807599;17.288853253185966;-0.9599609375;0.15185546875;-0.11669921875;42.9375;-33.25;-245.125;
1441975545887247;0.35076904296875;-0.6168212890625;-0.47119140625;-0.52392578125;16.765273404987052;13.593631259185896;17.171078788211453;-1.0458984375;0.0439453125;-0.13427734375;14.625;-38.3125;-258.5;
1441975545901248;0.373779296875;-0.597412109375;-0.44866943359375;-0.54974365234375;17.28025350599955;13.341937766130865;16.905785721330908;-1.0537109375;-0.08935546875;-0.05126953125;1.5;-44.8125;-256.4375;
1441975545924249;0.39434814453125;-0.57958984375;-0.424072265625;-0.57342529296875;17.754016883611342;12.317456370755762;15.85420354513426;-1.0966796875;-0.17138671875;-0.00927734375;9.8125;-42.5;-252.5625;
1441975545947250;0.415283203125;-0.56182861328125;-0.4000244140625;-0.59326171875;17.716862749349243;5.944521207892082;9.466114092685123;-1.181640625;-0.14208984375;-0.0556640625;24.25;-33.0625;-243.8125;
1441975545961251;0.4361572265625;-0.54339599609375;-0.3770751953125;-0.6102294921875;17.276739527548578;5.167066692880041;8.685206344297711;-1.29345703125;-0.150390625;-0.15283203125;12.6875;-22.125;-235.5625;
1441975545984252;0.45318603515625;-0.52569580078125;-0.352783203125;-0.62762451171875;16.83876544511657;5.024263431661432;8.518945236014897;-1.35205078125;-0.232421875;-0.18212890625;1.375;-18.6875;-227.25;
1441975546008254;0.46466064453125;-0.5096435546875;-0.325927734375;-0.64666748046875;16.414992668550838;5.014193807109273;8.450297974925622;-1.32666015625;-0.25390625;-0.162109375;22.0;-22.1875;-219.875;
1441975546021254;0.472900390625;-0.4945068359375;-0.2974853515625;-0.6658935546875;16.002825668961428;5.037722964244423;8.395727380872618;-1.2646484375;-0.07470703125;-0.11328125;56.9375;-24.875;-216.25;
1441975546044256;0.480712890625;-0.47918701171875;-0.27044677734375;-0.68280029296875;15.611148825048977;5.059934239802045;8.347974591337781;-1.216796875;0.1083984375;-0.1171875;76.0625;-24.5625;-214.5625;
1441975546067257;0.4892578125;-0.46221923828125;-0.2457275390625;-0.69757080078125;15.228888547715922;5.082909404633366;8.319245985327525;-1.23486328125;0.2099609375;-0.2255859375;67.6875;-25.125;-207.625;
1441975546081258;0.49713134765625;-0.4444580078125;-0.22174072265625;-0.71148681640625;14.852468255140256;5.1119844180898335;8.299696688255686;-1.24169921875;0.21533203125;-0.26318359375;50.25;-31.4375;-203.125;
1441975546104259;0.5029296875;-0.427490234375;-0.19805908203125;-0.72467041015625;14.495974649384824;5.147565582669533;8.279250358065221;-1.20068359375;0.14404296875;-0.19384765625;47.625;-34.5625;-199.0;
1441975546127260;0.50750732421875;-0.41143798828125;-0.175537109375;-0.7364501953125;14.16436576753322;5.181934347978628;8.25738677179049;-1.068359375;0.17822265625;-0.14404296875;53.375;-32.375;-189.3125;
1441975546141261;0.51092529296875;-0.39630126953125;-0.15484619140625;-0.7469482421875;13.861259852385036;5.217261354536918;8.238700093272687;-0.92578125;0.20458984375;-0.1376953125;52.8125;-29.4375;-177.125;
1441975546164263;0.5107421875;-0.383544921875;-0.1356201171875;-0.75738525390625;13.60151868365794;5.268471460714229;8.221723224355028;-0.8251953125;0.10693359375;-0.091796875;50.375;-28.8125;-160.6875;
1441975546187264;0.50616455078125;-0.37359619140625;-0.11773681640625;-0.76837158203125;13.389083535466742;5.3407431336595454;8.205692578652585;-0.76806640625;0.1533203125;-0.0478515625;63.75;-25.0625;-139.0625;
1441975546201265;0.50067138671875;-0.3641357421875;-0.1029052734375;-0.778564453125;13.20699328249207;5.416608940129902;8.200919833405282;-0.77880859375;0.30419921875;-0.1279296875;83.875;-22.625;-118.5;
1441975546224266;0.4931640625;-0.361083984375;-0.09600830078125;-0.78564453125;13.145500256574135;5.485835378295313;8.205179056637224;-0.71142578125;0.3173828125;-0.19482421875;80.375;-29.1875;-100.125;
1441975546247267;0.485595703125;-0.362060546875;-0.0927734375;-0.790283203125;13.147792045764827;5.540823303445084;8.20606178750499;-0.66064453125;0.33837890625;-0.11669921875;65.9375;-29.3125;-75.75;
1441975546261268;0.4794921875;-0.36517333984375;-0.09326171875;-0.79254150390625;13.192909119987442;5.57858356515808;8.21087252126575;-0.6025390625;0.3916015625;-0.1669921875;55.3125;-18.25;-46.0625;
1441975546284269;0.469970703125;-0.37127685546875;-0.095947265625;-0.79510498046875;13.288378247775293;5.63448621324115;8.222710618456544;-0.5537109375;0.330078125;-0.15966796875;36.0625;-12.9375;-19.4375;
1441975546307271;0.45843505859375;-0.38079833984375;-0.10150146484375;-0.796630859375;13.440372248561504;5.696236837764368;8.239619207746236;-0.486328125;0.3828125;-0.0966796875;45.0;-3.875;6.75;
1441975546330272;0.44915771484375;-0.39398193359375;-0.1119384765625;-0.7940673828125;13.657085948060798;5.729646720852177;8.257706419103775;-0.44921875;0.46923828125;-0.09716796875;45.0;5.375;32.0;
1441975546352273;0.4423828125;-0.40936279296875;-0.1268310546875;-0.787841796875;13.92175886133033;5.737596654077592;8.28048326302727;-0.46826171875;0.4736328125;-0.2294921875;21.25;12.5;60.0625;
1441975546366274;0.43133544921875;-0.42376708984375;-0.1402587890625;-0.7840576171875;14.17646632344271;5.786997064653312;8.319548268467688;-0.48583984375;0.3505859375;-0.279296875;-4.0625;17.75;88.375;
1441975546389275;0.42138671875;-0.4423828125;-0.15802001953125;-0.77581787109375;14.503307900274578;5.812965354195621;8.356658366967983;-0.48388671875;0.47509765625;-0.2138671875;19.375;26.6875;114.6875;
1441975546404276;0.41845703125;-0.4625244140625;-0.18389892578125;-0.75970458984375;14.894440579612208;5.774053088628003;8.397617427190111;-0.607421875;0.78466796875;-0.275390625;-5.0625;45.0625;140.4375;
1441975546427278;0.412353515625;-0.48388671875;-0.21331787109375;-0.74188232421875;15.335868258711026;5.765485751347811;8.469606512467369;-1.06005859375;0.63671875;-0.3779296875;-72.5625;55.625;167.8125;
1441975546441278;0.403564453125;-0.509033203125;-0.24517822265625;-0.7197265625;15.85174116782296;5.7616957416879995;8.544946234837852;-1.2392578125;0.53369140625;-0.2705078125;-71.625;54.75;197.5;
1441975546472280;0.3974609375;-0.5345458984375;-0.2867431640625;-0.68853759765625;16.458564847037806;5.753068512205162;8.67537337371732;-1.31005859375;0.732421875;-0.20849609375;-73.375;75.0625;227.3125;
1441975546486281;0.38531494140625;-0.558349609375;-0.332763671875;-0.65509033203125;17.10707555087911;6.043629574472835;9.105211336427764;-1.89404296875;0.4658203125;-0.39306640625;-131.625;80.9375;276.9375;
1441975546510282;0.35455322265625;-0.59027099609375;-0.3687744140625;-0.62445068359375;17.700006087165114;8.590918152989056;11.6681617711315;-2.42041015625;-0.10009765625;-0.091796875;-129.625;66.625;324.4375;
1441975546524283;0.310791015625;-0.62933349609375;-0.39306640625;-0.59405517578125;17.2741690384474;13.164777821109652;16.15610711707524;-2.6650390625;-0.3701171875;0.08740234375;-6.5625;79.9375;363.5625;
1441975546546284;0.27191162109375;-0.66259765625;-0.42388916015625;-0.554443359375;16.484181804829554;13.784008454689461;16.759734207855374;-2.60498046875;0.1337890625;0.06005859375;95.3125;100.9375;379.1875;
1441975546570286;0.24017333984375;-0.68316650390625;-0.4718017578125;-0.5030517578125;15.605167471525919;13.844814260960133;16.942056915439725;-2.73046875;0.6025390625;-0.01806640625;25.4375;113.8125;394.5625;
1441975546584287;0.216796875;-0.68499755859375;-0.5330810546875;-0.44683837890625;14.748538004073673;13.672683052950111;17.02525921210582;-2.91064453125;0.64990234375;-0.12109375;-111.3125;109.25;430.75;
1441975546606288;0.18560791015625;-0.6904296875;-0.5760498046875;-0.3963623046875;13.956114314737052;13.598091509454706;17.10048846493507;-2.93701171875;-0.34375;0.2822265625;-245.9375;77.75;424.25;
1441975546630289;0.1409912109375;-0.7147216796875;-0.58355712890625;-0.35894775390625;13.265550159306699;13.73913091125074;17.14041136154858;-2.2783203125;-0.43994140625;0.16455078125;-135.25;63.875;394.25;
1441975546645290;0.09649658203125;-0.7391357421875;-0.57720947265625;-0.3336181640625;12.719374635178383;13.90103496200227;17.11398064781945;-2.8095703125;-0.5224609375;-0.353515625;111.9375;47.5625;343.625;
1441975546666291;0.06915283203125;-0.753173828125;-0.57745361328125;-0.30743408203125;12.288510365708865;13.993968420756932;17.130852688865694;-2.27880859375;0.30126953125;0.2236328125;179.0;10.4375;274.125;
1441975546689293;0.05096435546875;-0.75531005859375;-0.59112548828125;-0.2784423828125;11.874087980190009;13.979670054555482;17.164216431817824;-2.06396484375;0.0537109375;0.29443359375;83.3125;47.0625;210.6875;
1441975546704293;0.04559326171875;-0.74554443359375;-0.61688232421875;-0.2481689453125;11.523128734061775;13.86767017519682;17.236676927794797;-1.85888671875;-0.1318359375;0.21435546875;-31.4375;63.1875;199.4375;
1441975546726295;0.05078125;-0.71978759765625;-0.65850830078125;-0.2138671875;11.200828620750961;13.62765334970066;17.350015953278284;-1.4931640625;-0.0888671875;0.17578125;-142.125;94.875;187.75;
