1441975124466143;-0.648193359375;-0.53277587890625;-0.43597412109375;0.32562255859375;2.4208398874086483;17.703139635667462;13.133931101114745;0.91064453125;0.04296875;-0.40771484375;-0.5;-0.25;0.5;
1441975124480144;-0.648193359375;-0.53277587890625;-0.43597412109375;0.32562255859375;2.4208398874086483;17.703139635667462;13.133931101114745;0.91357421875;0.044921875;-0.404296875;-0.8125;-0.5625;0.375;
1441975124503145;-0.648193359375;-0.53277587890625;-0.43597412109375;0.32562255859375;2.4208398874086483;17.703139635667462;13.133931101114745;0.91796875;0.04345703125;-0.40771484375;-1.0;-0.5;0.5625;
1441975124526146;-0.648193359375;-0.53277587890625;-0.43597412109375;0.32562255859375;2.4208398874086483;17.703139635667462;13.133931101114745;0.912109375;0.04150390625;-0.41015625;-0.5625;-0.375;0.5625;
1441975124540147;-0.648193359375;-0.53277587890625;-0.43597412109375;0.32562255859375;2.4208398874086483;17.703139635667462;13.133931101114745;0.91357421875;0.0390625;-0.4052734375;0.1875;-0.25;0.5;
1441975124564148;-0.648193359375;-0.53277587890625;-0.43597412109375;0.32562255859375;2.4208398874086483;17.703139635667462;13.133931101114745;0.9130859375;0.0458984375;-0.404296875;0.375;-0.125;0.4375;
1441975124586150;-0.648193359375;-0.53277587890625;-0.43597412109375;0.32562255859375;2.4208398874086483;17.703139635667462;13.133931101114745;0.9150390625;0.04833984375;-0.41259765625;0.0625;-0.125;0.5625;
1441975124600150;-0.648193359375;-0.53277587890625;-0.43597412109375;0.32562255859375;2.4208398874086483;17.703139635667462;13.133931101114745;0.91357421875;0.04638671875;-0.4140625;-0.375;-0.0625;0.625;
1441975124623152;-0.648193359375;-0.53277587890625;-0.43597412109375;0.32562255859375;2.4208398874086483;17.703139635667462;13.133931101114745;0.91796875;0.04150390625;-0.40576171875;-0.1875;-0.3125;0.5625;
1441975124646153;-0.648193359375;-0.53277587890625;-0.43597412109375;0.32562255859375;2.4208398874086483;17.703139635667462;13.133931101114745;0.91162109375;0.041015625;-0.41064453125;-0.125;-0.5625;0.4375;
1441975124660154;-0.648193359375;-0.53277587890625;-0.4359130859375;0.32562255859375;2.4212672403611286;17.703629910052033;13.133597811712665;0.9130859375;0.0439453125;-0.41748046875;-0.4375;-0.5;0.25;
1441975124683155;-0.648193359375;-0.53277587890625;-0.4359130859375;0.32562255859375;2.4212672403611286;17.703629910052033;13.133597811712665;0.91259765625;0.041015625;-0.41259765625;-0.8125;-0.75;0.125;
1441975124706157;-0.64825439453125;-0.5328369140625;-0.4359130859375;0.32537841796875;2.423414133251051;17.70155762696549;13.134918259784323;0.91357421875;0.037109375;-0.41357421875;-0.125;-0.9375;0.0625;
1441975124720157;-0.64837646484375;-0.53289794921875;-0.435791015625;0.3253173828125;2.425473406344149;17.702360776976082;13.134115109773731;0.908203125;0.048828125;-0.40478515625;-0.3125;-1.125;-0.125;
1441975124743159;-0.64849853515625;-0.532958984375;-0.4356689453125;0.3250732421875;2.4287395824027365;17.70160320368154;13.134277735246071;0.91748046875;0.0419921875;-0.41259765625;-0.25;-1.0625;0.125;
1441975124766160;-0.64862060546875;-0.53302001953125;-0.43548583984375;0.32501220703125;2.4312262968615004;17.702892923391087;13.133144985144703;0.9091796875;0.0419921875;-0.4111328125;-0.625;-1.25;-0.25;
1441975124780161;-0.64862060546875;-0.532958984375;-0.43548583984375;0.32501220703125;2.4309532793803275;17.703213992406194;13.132625575890325;0.9111328125;0.03955078125;-0.41015625;-0.125;-1.25;0.125;
1441975124803162;-0.64862060546875;-0.53302001953125;-0.435546875;0.32501220703125;2.4307986919164897;17.702404306850067;13.133476632077542;0.9140625;0.04150390625;-0.40869140625;0.125;-0.9375;0.0625;
1441975124830164;-0.64862060546875;-0.53302001953125;-0.435546875;0.32501220703125;2.4307986919164897;17.702404306850067;13.133476632077542;0.91552734375;0.0478515625;-0.408203125;0.8125;-0.5625;0.1875;
1441975124850165;-0.64862060546875;-0.532958984375;-0.435546875;0.32501220703125;2.430525616013413;17.70272538007845;13.1329572211754;0.91650390625;0.04345703125;-0.4091796875;0.5625;-0.6875;0.125;
1441975124863166;-0.64862060546875;-0.532958984375;-0.435546875;0.32501220703125;2.430525616013413;17.70272538007845;13.1329572211754;0.9111328125;0.04248046875;-0.40234375;-0.3125;-0.8125;-0.0625;
1441975124886167;-0.64862060546875;-0.532958984375;-0.435546875;0.32501220703125;2.430525616013413;17.70272538007845;13.1329572211754;0.916015625;0.03759765625;-0.40576171875;-0.375;-0.875;-0.3125;
1441975124907168;-0.64862060546875;-0.532958984375;-0.435546875;0.32501220703125;2.430525616013413;17.70272538007845;13.1329572211754;0.9072265625;0.0400390625;-0.40771484375;-0.3125;-0.75;-0.5;
1441975124923169;-0.64862060546875;-0.532958984375;-0.435546875;0.32501220703125;2.430525616013413;17.70272538007845;13.1329572211754;0.908203125;0.04248046875;-0.4072265625;0.0;-0.5;-0.375;
1441975124946170;-0.64862060546875;-0.532958984375;-0.435546875;0.32501220703125;2.430525616013413;17.70272538007845;13.1329572211754;0.912109375;0.046875;-0.41259765625;-0.125;-0.3125;-0.3125;
1441975124967171;-0.6485595703125;-0.532958984375;-0.435546875;0.32501220703125;2.430261275367471;17.702393614433134;13.133445953863387;0.9150390625;0.0419921875;-0.41064453125;-0.0625;-0.3125;-0.125;
1441975124983172;-0.64862060546875;-0.532958984375;-0.435546875;0.32501220703125;2.430525616013413;17.70272538007845;13.1329572211754;0.91357421875;0.0458984375;-0.40673828125;-0.1875;-0.25;-0.1875;
1441975125006174;-0.64862060546875;-0.532958984375;-0.435546875;0.32501220703125;2.430525616013413;17.70272538007845;13.1329572211754;0.912109375;0.03662109375;-0.41162109375;-0.375;-0.125;-0.375;
1441975125027175;-0.64862060546875;-0.532958984375;-0.435546875;0.32501220703125;2.430525616013413;17.70272538007845;13.1329572211754;0.90478515625;0.03662109375;-0.41259765625;-0.5625;-0.4375;-0.5;
1441975125049176;-0.64862060546875;-0.532958984375;-0.435546875;0.32501220703125;2.430525616013413;17.70272538007845;13.1329572211754;0.9091796875;0.04296875;-0.40869140625;-0.5625;-0.4375;-0.5;
1441975125066177;-0.64862060546875;-0.532958984375;-0.435546875;0.32501220703125;2.430525616013413;17.70272538007845;13.1329572211754;0.9169921875;0.04296875;-0.40771484375;-0.0625;-0.3125;-0.25;
1441975125087178;-0.64862060546875;-0.532958984375;-0.435546875;0.32501220703125;2.430525616013413;17.70272538007845;13.1329572211754;0.9150390625;0.044921875;-0.4130859375;0.375;-0.5625;-0.1875;
1441975125103179;-0.64862060546875;-0.53302001953125;-0.435546875;0.324951171875;2.431201040734492;17.70188501627456;13.133797584979291;0.9169921875;0.04833984375;-0.41796875;0.0625;-0.375;0.125;
1441975125125180;-0.64862060546875;-0.532958984375;-0.43548583984375;0.32501220703125;2.4309532793803275;17.703213992406194;13.132625575890325;0.91748046875;0.04150390625;-0.4189453125;-0.8125;-0.3125;-0.125;
1441975125147182;-0.64862060546875;-0.532958984375;-0.43548583984375;0.32501220703125;2.4309532793803275;17.703213992406194;13.132625575890325;0.91552734375;0.03466796875;-0.4111328125;-0.9375;-0.5;-0.4375;
1441975125163183;-0.64862060546875;-0.532958984375;-0.43548583984375;0.32501220703125;2.4309532793803275;17.703213992406194;13.132625575890325;0.9140625;0.03857421875;-0.40966796875;-0.75;-0.4375;-0.3125;
1441975125187184;-0.64862060546875;-0.53302001953125;-0.43548583984375;0.32501220703125;2.4312262968615004;17.702892923391087;13.133144985144703;0.90869140625;0.04248046875;-0.41162109375;-0.25;-0.25;-0.25;
1441975125207185;-0.64862060546875;-0.53302001953125;-0.43548583984375;0.324951171875;2.4316286175657353;17.702373634427218;13.133465933869303;0.90576171875;0.04345703125;-0.416015625;0.4375;-0.125;0.0;
1441975125223186;-0.64862060546875;-0.53302001953125;-0.43548583984375;0.324951171875;2.4316286175657353;17.702373634427218;13.133465933869303;0.9072265625;0.04736328125;-0.41455078125;0.875;0.0;0.125;
1441975125245187;-0.64862060546875;-0.53302001953125;-0.43548583984375;0.324951171875;2.4316286175657353;17.702373634427218;13.133465933869303;0.9111328125;0.046875;-0.42236328125;0.1875;0.0625;0.25;
1441975125267189;-0.64862060546875;-0.53302001953125;-0.43548583984375;0.324951171875;2.4316286175657353;17.702373634427218;13.133465933869303;0.908203125;0.04833984375;-0.4091796875;-0.75;-0.0625;0.1875;
1441975125283190;-0.648681640625;-0.53302001953125;-0.43548583984375;0.32489013671875;2.432295217047405;17.702185995314373;13.13329825739852;0.91357421875;0.03955078125;-0.412109375;-0.375;-0.25;-0.125;
1441975125305191;-0.6485595703125;-0.533203125;-0.4354248046875;0.324951171875;2.432611367438685;17.701568484396596;13.135180054089556;0.90966796875;0.041015625;-0.41650390625;0.625;-0.3125;-0.4375;
1441975125328192;-0.64849853515625;-0.533203125;-0.4354248046875;0.32489013671875;2.4327499200475615;17.70071804110372;13.135989178529185;0.9091796875;0.0498046875;-0.40673828125;1.0625;-0.25;-0.5;
1441975125343193;-0.64849853515625;-0.53326416015625;-0.4354248046875;0.32489013671875;2.4330232245071586;17.70039768359059;13.136507862235295;0.9140625;0.05029296875;-0.4140625;0.75;-0.3125;-0.4375;
1441975125365194;-0.6485595703125;-0.53326416015625;-0.4354248046875;0.32489013671875;2.4332871616328005;17.7007293284832;13.136019210002956;0.9130859375;0.046875;-0.4140625;0.0625;-0.5;-0.625;
1441975125388196;-0.64849853515625;-0.53326416015625;-0.4354248046875;0.32489013671875;2.4330232245071586;17.70039768359059;13.136507862235295;0.9111328125;0.041015625;-0.4130859375;-0.125;-0.625;-0.75;
1441975125403196;-0.64849853515625;-0.533203125;-0.4354248046875;0.32489013671875;2.4327499200475615;17.70071804110372;13.135989178529185;0.91064453125;0.04541015625;-0.408203125;0.125;-0.4375;-0.75;
1441975125425198;-0.64849853515625;-0.533203125;-0.4354248046875;0.32489013671875;2.4327499200475615;17.70071804110372;13.135989178529185;0.91650390625;0.0419921875;-0.40380859375;0.4375;-0.3125;-0.6875;
1441975125448199;-0.64849853515625;-0.533203125;-0.4354248046875;0.32489013671875;2.4327499200475615;17.70071804110372;13.135989178529185;0.912109375;0.0419921875;-0.40771484375;0.875;-0.3125;-0.625;
1441975125463200;-0.64849853515625;-0.533203125;-0.4354248046875;0.32489013671875;2.4327499200475615;17.70071804110372;13.135989178529185;0.916015625;0.04248046875;-0.41357421875;0.75;-0.3125;-0.625;
1441975125485201;-0.64849853515625;-0.533203125;-0.4354248046875;0.32489013671875;2.4327499200475615;17.70071804110372;13.135989178529185;0.9169921875;0.044921875;-0.4130859375;0.0625;-0.375;-0.6875;
1441975125508202;-0.64849853515625;-0.533203125;-0.4354248046875;0.32489013671875;2.4327499200475615;17.70071804110372;13.135989178529185;0.9072265625;0.04248046875;-0.40673828125;-0.125;-0.25;-0.4375;
1441975125523203;-0.64849853515625;-0.533203125;-0.43548583984375;0.32489013671875;2.4323225576748646;17.700229272708256;13.136320942147384;0.91455078125;0.04443359375;-0.408203125;0.1875;-0.1875;-0.3125;
1441975125545205;-0.64849853515625;-0.53326416015625;-0.43548583984375;0.32489013671875;2.4325959205146312;17.699908911233287;13.136839627252863;0.912109375;0.04541015625;-0.40869140625;0.1875;-0.0625;-0.125;
1441975125569206;-0.64849853515625;-0.53326416015625;-0.43548583984375;0.32489013671875;2.4325959205146312;17.699908911233287;13.136839627252863;0.91064453125;0.04638671875;-0.40673828125;0.0;-0.125;0.0625;
1441975125583207;-0.64849853515625;-0.53326416015625;-0.43548583984375;0.32489013671875;2.4325959205146312;17.699908911233287;13.136839627252863;0.91162109375;0.0400390625;-0.4130859375;-0.125;0.0;0.0625;
1441975125605208;-0.64849853515625;-0.53326416015625;-0.43548583984375;0.32489013671875;2.4325959205146312;17.699908911233287;13.136839627252863;0.91162109375;0.04443359375;-0.4091796875;-0.0625;-0.125;-0.1875;
1441975125628209;-0.64849853515625;-0.53326416015625;-0.43548583984375;0.32489013671875;2.4325959205146312;17.699908911233287;13.136839627252863;0.916015625;0.04736328125;-0.41064453125;0.375;0.0;0.0;
1441975125649210;-0.64849853515625;-0.53326416015625;-0.43548583984375;0.32489013671875;2.4325959205146312;17.699908911233287;13.136839627252863;0.90869140625;0.046875;-0.40966796875;0.0;-0.0625;-0.4375;
1441975125665211;-0.64849853515625;-0.53326416015625;-0.43548583984375;0.3248291015625;2.4329986769410334;17.69939034628871;13.13715986856693;0.91015625;0.0517578125;-0.40576171875;-0.0625;0.0;0.0;
1441975125688213;-0.6484375;-0.53326416015625;-0.435546875;0.3248291015625;2.4323077020720874;17.69856944320683;13.137980771648811;0.91259765625;0.04638671875;-0.41259765625;0.0625;0.125;0.1875;
1441975125703214;-0.6484375;-0.53326416015625;-0.435546875;0.3248291015625;2.4323077020720874;17.69856944320683;13.137980771648811;0.90966796875;0.048828125;-0.4013671875;0.375;0.375;0.1875;
1441975125725215;-0.6484375;-0.53326416015625;-0.435546875;0.3248291015625;2.4323077020720874;17.69856944320683;13.137980771648811;0.9130859375;0.05029296875;-0.404296875;0.3125;0.125;0.25;
1441975125748216;-0.6484375;-0.533203125;-0.4356689453125;0.32470703125;2.4319858335313524;17.69687426739509;13.138766949794068;0.9111328125;0.0498046875;-0.408203125;-0.625;0.0;0.0625;
1441975125763217;-0.64849853515625;-0.53314208984375;-0.435791015625;0.3245849609375;2.4319278262901363;17.69551123923781;13.139064021707119;0.91259765625;0.04345703125;-0.4013671875;-1.125;-0.375;-0.1875;
1441975125785218;-0.64849853515625;-0.53314208984375;-0.43585205078125;0.3245849609375;2.431500962567182;17.695021779742625;13.139396557034557;0.91064453125;0.04248046875;-0.40234375;-1.125;-0.4375;-0.4375;
1441975125808220;-0.64849853515625;-0.53314208984375;-0.43585205078125;0.3245849609375;2.431500962567182;17.695021779742625;13.139396557034557;0.9111328125;0.04296875;-0.40283203125;-0.625;-0.4375;-0.25;
1441975125829221;-0.64849853515625;-0.53314208984375;-0.43585205078125;0.32452392578125;2.43190411459505;17.69450353022906;13.139716422246588;0.9150390625;0.046875;-0.4111328125;-0.5;-0.0625;0.25;
1441975125845222;-0.64849853515625;-0.533203125;-0.43585205078125;0.32452392578125;2.432178071781608;17.69418378525831;13.140234551518873;0.91552734375;0.05322265625;-0.412109375;-0.8125;0.125;0.5;
1441975125868223;-0.6485595703125;-0.5330810546875;-0.43597412109375;0.32440185546875;2.431846397910366;17.693140523587946;13.140013534352944;0.916015625;0.048828125;-0.4169921875;-0.75;0.125;0.4375;
1441975125889224;-0.64862060546875;-0.53289794921875;-0.43609619140625;0.3243408203125;2.430837318053736;17.692935138104126;13.138954626763717;0.912109375;0.0478515625;-0.40869140625;-1.25;0.0625;0.375;
1441975125905225;-0.64862060546875;-0.53289794921875;-0.43609619140625;0.3243408203125;2.430837318053736;17.692935138104126;13.138954626763717;0.90087890625;0.04052734375;-0.39990234375;-1.375;-0.0625;0.3125;
1441975125928226;-0.64862060546875;-0.53289794921875;-0.43609619140625;0.3243408203125;2.430837318053736;17.692935138104126;13.138954626763717;0.904296875;0.041015625;-0.404296875;-0.625;-0.0625;0.375;
1441975125949228;-0.64862060546875;-0.53289794921875;-0.43609619140625;0.32427978515625;2.4312405295120625;17.692416848290016;13.139274460810721;0.908203125;0.05224609375;-0.40673828125;0.25;0.1875;0.5;
1441975125965229;-0.64862060546875;-0.53289794921875;-0.4361572265625;0.32427978515625;2.4308138396637613;17.69192707525089;13.139607408926187;0.90966796875;0.05322265625;-0.41552734375;0.3125;0.4375;0.9375;
1441975125988230;-0.64874267578125;-0.53277587890625;-0.43621826171875;0.32421875;2.430768720612562;17.692224592219524;13.138244080879115;0.916015625;0.05419921875;-0.41259765625;-0.625;0.3125;0.875;
1441975126009231;-0.6488037109375;-0.5325927734375;-0.43634033203125;0.32421875;2.429356390674872;17.692538266531706;13.136864642034261;0.91845703125;0.0419921875;-0.41162109375;-1.25;-0.0625;0.4375;
1441975126025232;-0.6488037109375;-0.5325927734375;-0.43634033203125;0.32421875;2.429356390674872;17.692538266531706;13.136864642034261;0.916015625;0.03662109375;-0.40087890625;-1.125;-0.125;0.1875;
1441975126048233;-0.6488037109375;-0.5325927734375;-0.43634033203125;0.32421875;2.429356390674872;17.692538266531706;13.136864642034261;0.91162109375;0.04296875;-0.40673828125;-0.8125;0.0;0.0625;
1441975126069234;-0.6488037109375;-0.5325927734375;-0.43634033203125;0.32415771484375;2.429759426095957;17.692019584265044;13.137184810594595;0.9091796875;0.048828125;-0.41259765625;-0.3125;-0.125;0.125;
1441975126085235;-0.6488037109375;-0.5325927734375;-0.43634033203125;0.32415771484375;2.429759426095957;17.692019584265044;13.137184810594595;0.90966796875;0.05126953125;-0.4189453125;-0.0625;-0.25;0.125;
1441975126108237;-0.64892578125;-0.532470703125;-0.4364013671875;0.323974609375;2.4305204632643984;17.691280209216686;13.136461333321481;0.90869140625;0.05224609375;-0.40869140625;-0.5625;-0.25;0.4375;
1441975126129238;-0.6490478515625;-0.5323486328125;-0.43646240234375;0.32391357421875;2.4304753572155264;17.691577872436078;13.135097924512852;0.91015625;0.05126953125;-0.4130859375;-1.25;0.0;0.6875;
1441975126145239;-0.6490478515625;-0.5323486328125;-0.43646240234375;0.32391357421875;2.4304753572155264;17.691577872436078;13.135097924512852;0.91552734375;0.04345703125;-0.4091796875;-1.1875;-0.25;0.4375;
1441975126168240;-0.6490478515625;-0.5323486328125;-0.4365234375;0.32391357421875;2.4300484450082402;17.691088316651292;13.13543083543983;0.91064453125;0.0419921875;-0.40673828125;-0.4375;-0.4375;0.125;
1441975126189241;-0.6490478515625;-0.5323486328125;-0.4365234375;0.32391357421875;2.4300484450082402;17.691088316651292;13.13543083543983;0.91552734375;0.04345703125;-0.40185546875;-0.0625;-0.375;0.125;
1441975126205242;-0.6490478515625;-0.5323486328125;-0.4365234375;0.3238525390625;2.430451450145648;17.69056971735613;13.135750841460927;0.91259765625;0.04931640625;-0.4150390625;0.0;-0.375;0.125;
1441975126228244;-0.6490478515625;-0.5323486328125;-0.4365234375;0.3238525390625;2.430451450145648;17.69056971735613;13.135750841460927;0.91748046875;0.0498046875;-0.41455078125;0.3125;-0.5;0.0;
1441975126251245;-0.6490478515625;-0.5323486328125;-0.4365234375;0.3238525390625;2.430451450145648;17.69056971735613;13.135750841460927;0.91064453125;0.04833984375;-0.40966796875;-0.125;-0.5625;0.125;
1441975126265246;-0.6490478515625;-0.5323486328125;-0.43646240234375;0.3238525390625;2.430878334214452;17.691059274179125;13.135417926894739;0.90966796875;0.03955078125;-0.4091796875;-0.5;-0.4375;0.1875;
1441975126288247;-0.6490478515625;-0.5323486328125;-0.43646240234375;0.32391357421875;2.4304753572155264;17.691577872436078;13.135097924512852;0.91162109375;0.04248046875;-0.41455078125;-0.1875;-0.25;0.125;
1441975126311248;-0.6490478515625;-0.532470703125;-0.43634033203125;0.32391357421875;2.4318772043057337;17.691916753171398;13.1354695356407;0.91064453125;0.0380859375;-0.40625;0.6875;-0.3125;0.0625;
1441975126325249;-0.64898681640625;-0.53253173828125;-0.43634033203125;0.32391357421875;2.431887817004915;17.69126432526032;13.136477217277848;0.91064453125;0.0498046875;-0.41552734375;1.1875;-0.3125;0.125;
1441975126348250;-0.64898681640625;-0.53253173828125;-0.43634033203125;0.32391357421875;2.431887817004915;17.69126432526032;13.136477217277848;0.90673828125;0.04833984375;-0.41162109375;0.75;-0.3125;0.125;
1441975126371252;-0.64898681640625;-0.53253173828125;-0.43634033203125;0.32391357421875;2.431887817004915;17.69126432526032;13.136477217277848;0.91162109375;0.0478515625;-0.41064453125;0.0;-0.375;0.1875;
1441975126385253;-0.64898681640625;-0.532470703125;-0.43634033203125;0.32391357421875;2.4316137985002957;17.691584097077506;13.135958874369438;0.916015625;0.03955078125;-0.40771484375;-0.3125;-0.4375;0.125;
1441975126408254;-0.64898681640625;-0.532470703125;-0.43634033203125;0.32391357421875;2.4316137985002957;17.691584097077506;13.135958874369438;0.916015625;0.0390625;-0.4052734375;0.0;-0.375;0.0625;
1441975126431255;-0.64898681640625;-0.53253173828125;-0.43634033203125;0.32391357421875;2.431887817004915;17.69126432526032;13.136477217277848;0.91259765625;0.04541015625;-0.41162109375;0.625;-0.1875;0.0625;
1441975126445256;-0.64898681640625;-0.53253173828125;-0.43634033203125;0.32391357421875;2.431887817004915;17.69126432526032;13.136477217277848;0.91259765625;0.04638671875;-0.4111328125;0.5;-0.0625;0.125;
1441975126468257;-0.6490478515625;-0.53253173828125;-0.436279296875;0.32391357421875;2.4325781019437294;17.692086204546786;13.135655337991377;0.91357421875;0.044921875;-0.41357421875;0.1875;-0.125;0.125;
1441975126491259;-0.6490478515625;-0.53253173828125;-0.436279296875;0.32391357421875;2.4325781019437294;17.692086204546786;13.135655337991377;0.9072265625;0.04052734375;-0.41064453125;-0.3125;-0.25;0.0;
1441975126505259;-0.6490478515625;-0.532470703125;-0.436279296875;0.32391357421875;2.432304208457821;17.692405971660882;13.135136999786061;0.908203125;0.0419921875;-0.40966796875;-0.0625;-0.25;0.25;
1441975126528261;-0.6490478515625;-0.532470703125;-0.436279296875;0.323974609375;2.431901288082545;17.69292443006959;13.134817112468578;0.90771484375;0.0380859375;-0.40380859375;-0.3125;-0.375;-0.0625;
1441975126551262;-0.64898681640625;-0.532470703125;-0.43634033203125;0.323974609375;2.431210787503176;17.692102560261027;13.13563898227714;0.9111328125;0.0439453125;-0.404296875;0.0625;-0.25;0.25;
1441975126566263;-0.64898681640625;-0.532470703125;-0.43634033203125;0.323974609375;2.431210787503176;17.692102560261027;13.13563898227714;0.921875;0.044921875;-0.41015625;0.0;-0.1875;0.3125;
1441975126588264;-0.64898681640625;-0.532470703125;-0.43634033203125;0.323974609375;2.431210787503176;17.692102560261027;13.13563898227714;0.91455078125;0.0478515625;-0.4091796875;0.25;0.0625;0.375;
1441975126620266;-0.64898681640625;-0.532470703125;-0.43634033203125;0.323974609375;2.431210787503176;17.692102560261027;13.13563898227714;0.9111328125;0.04248046875;-0.40771484375;-0.1875;-0.125;0.3125;
1441975126625266;-0.64898681640625;-0.532470703125;-0.43634033203125;0.323974609375;2.431210787503176;17.692102560261027;13.13563898227714;0.91064453125;0.04345703125;-0.40771484375;-0.75;-0.125;0.125;
1441975126648268;-0.64898681640625;-0.532470703125;-0.43634033203125;0.323974609375;2.431210787503176;17.692102560261027;13.13563898227714;0.90869140625;0.03857421875;-0.41015625;-0.8125;-0.25;0.0625;
1441975126671269;-0.6490478515625;-0.532470703125;-0.436279296875;0.323974609375;2.431901288082545;17.69292443006959;13.134817112468578;0.90576171875;0.03857421875;-0.40576171875;-0.5;-0.25;0.0;
1441975126685270;-0.6490478515625;-0.532470703125;-0.436279296875;0.323974609375;2.431901288082545;17.69292443006959;13.134817112468578;0.90869140625;0.04052734375;-0.4111328125;-0.1875;0.125;0.0625;
1441975126708271;-0.6490478515625;-0.532470703125;-0.436279296875;0.323974609375;2.431901288082545;17.69292443006959;13.134817112468578;0.9072265625;0.04638671875;-0.412109375;0.0625;0.25;0.1875;
1441975126731272;-0.64898681640625;-0.532470703125;-0.43634033203125;0.323974609375;2.431210787503176;17.692102560261027;13.13563898227714;0.91357421875;0.0458984375;-0.41015625;0.0625;0.375;0.375;
1441975126752274;-0.64898681640625;-0.532470703125;-0.43634033203125;0.323974609375;2.431210787503176;17.692102560261027;13.13563898227714;0.91552734375;0.04931640625;-0.40673828125;-0.3125;0.5;0.5;
1441975126768274;-0.64898681640625;-0.532470703125;-0.43634033203125;0.323974609375;2.431210787503176;17.692102560261027;13.13563898227714;0.912109375;0.044921875;-0.408203125;-0.6875;0.625;0.4375;
1441975126791276;-0.64898681640625;-0.532470703125;-0.43634033203125;0.323974609375;2.431210787503176;17.692102560261027;13.13563898227714;0.9052734375;0.03955078125;-0.40234375;-0.75;0.3125;0.0;
1441975126819277;-0.64898681640625;-0.532470703125;-0.43634033203125;0.323974609375;2.431210787503176;17.692102560261027;13.13563898227714;0.91064453125;0.03955078125;-0.41064453125;-0.1875;-0.0625;-0.0625;
1441975126828278;-0.64898681640625;-0.532470703125;-0.43634033203125;0.323974609375;2.431210787503176;17.692102560261027;13.13563898227714;0.912109375;0.0439453125;-0.404296875;0.0;0.125;0.0625;
1441975126851279;-0.64898681640625;-0.532470703125;-0.43634033203125;0.323974609375;2.431210787503176;17.692102560261027;13.13563898227714;0.9091796875;0.05029296875;-0.40869140625;0.25;0.25;0.25;
1441975126872280;-0.64898681640625;-0.532470703125;-0.43634033203125;0.323974609375;2.431210787503176;17.692102560261027;13.13563898227714;0.91650390625;0.04931640625;-0.416015625;-0.1875;0.3125;0.5;
1441975126888281;-0.64898681640625;-0.532470703125;-0.43634033203125;0.323974609375;2.431210787503176;17.692102560261027;13.13563898227714;0.9150390625;0.04296875;-0.41064453125;-0.625;0.125;0.375;
1441975126911283;-0.64898681640625;-0.532470703125;-0.43634033203125;0.323974609375;2.431210787503176;17.692102560261027;13.13563898227714;0.91455078125;0.04150390625;-0.41064453125;-0.75;0.25;0.4375;
1441975126934284;-0.64898681640625;-0.532470703125;-0.43634033203125;0.323974609375;2.431210787503176;17.692102560261027;13.13563898227714;0.91650390625;0.04052734375;-0.40576171875;-0.9375;0.3125;0.375;
1441975126954285;-0.64898681640625;-0.532470703125;-0.43634033203125;0.323974609375;2.431210787503176;17.692102560261027;13.13563898227714;0.91015625;0.03955078125;-0.404296875;-0.375;0.4375;0.375;
1441975126971286;-0.64898681640625;-0.532470703125;-0.43634033203125;0.323974609375;2.431210787503176;17.692102560261027;13.13563898227714;0.90576171875;0.044921875;-0.40283203125;0.25;0.125;0.375;
1441975126984287;-0.64898681640625;-0.532470703125;-0.43634033203125;0.323974609375;2.431210787503176;17.692102560261027;13.13563898227714;0.90771484375;0.04833984375;-0.4052734375;-0.0625;0.3125;0.5625;
1441975127007288;-0.64898681640625;-0.532470703125;-0.43634033203125;0.323974609375;2.431210787503176;17.692102560261027;13.13563898227714;0.91162109375;0.04736328125;-0.41162109375;-0.5;0.4375;0.5;
1441975127021289;-0.64898681640625;-0.532470703125;-0.4364013671875;0.323974609375;2.430783865194154;17.69161310229532;13.135971755010939;0.9130859375;0.0419921875;-0.4072265625;-0.9375;0.375;0.4375;
1441975127044290;-0.64898681640625;-0.532470703125;-0.4364013671875;0.323974609375;2.430783865194154;17.69161310229532;13.135971755010939;0.91552734375;0.04345703125;-0.40576171875;-0.625;0.1875;0.25;
1441975127067292;-0.64892578125;-0.532470703125;-0.4364013671875;0.32403564453125;2.4301174252244895;17.691798791990113;13.136141310778655;0.91796875;0.044921875;-0.40234375;-0.375;0.25;0.4375;
1441975127081292;-0.64892578125;-0.532470703125;-0.4364013671875;0.32403564453125;2.4301174252244895;17.691798791990113;13.136141310778655;0.912109375;0.04541015625;-0.40234375;-0.3125;0.3125;0.25;
1441975127104294;-0.64892578125;-0.532470703125;-0.4364013671875;0.32403564453125;2.4301174252244895;17.691798791990113;13.136141310778655;0.9111328125;0.041015625;-0.40771484375;0.0;0.0625;-0.0625;
1441975127127295;-0.64892578125;-0.532470703125;-0.4364013671875;0.32403564453125;2.4301174252244895;17.691798791990113;13.136141310778655;0.912109375;0.04443359375;-0.408203125;0.0;0.125;-0.0625;
1441975127141296;-0.64892578125;-0.53240966796875;-0.4364013671875;0.32403564453125;2.4298434028498326;17.692118934947565;13.1356226075906;0.9091796875;0.04638671875;-0.404296875;-0.1875;0.125;0.0625;
1441975127164297;-0.64892578125;-0.53240966796875;-0.4364013671875;0.32403564453125;2.4298434028498326;17.692118934947565;13.1356226075906;0.912109375;0.041015625;-0.40966796875;-0.5;0.3125;0.3125;
1441975127187298;-0.64892578125;-0.53240966796875;-0.4364013671875;0.32403564453125;2.4298434028498326;17.692118934947565;13.1356226075906;0.9091796875;0.0419921875;-0.40771484375;-0.25;0.1875;0.1875;
1441975127201299;-0.64892578125;-0.53240966796875;-0.43646240234375;0.32403564453125;2.429416504069928;17.69162924090185;13.13595561640441;0.91162109375;0.04541015625;-0.40380859375;0.4375;0.25;0.25;
1441975127224301;-0.64892578125;-0.532470703125;-0.4364013671875;0.32403564453125;2.4301174252244895;17.691798791990113;13.136141310778655;0.91162109375;0.04638671875;-0.41015625;0.6875;0.5;0.25;
1441975127247302;-0.64892578125;-0.532470703125;-0.4364013671875;0.323974609375;2.4305204632643984;17.691280209216686;13.136461333321481;0.91015625;0.0458984375;-0.41552734375;0.75;0.6875;0.6875;
1441975127261303;-0.64892578125;-0.532470703125;-0.43646240234375;0.32391357421875;2.430496780788001;17.690272041732012;13.137114247080085;0.91015625;0.0595703125;-0.41943359375;0.125;0.5625;0.8125;
1441975127284304;-0.64892578125;-0.532470703125;-0.43646240234375;0.32391357421875;2.430496780788001;17.690272041732012;13.137114247080085;0.91259765625;0.05712890625;-0.41015625;-0.125;0.0625;0.625;
1441975127307305;-0.64874267578125;-0.53271484375;-0.4365234375;0.32391357421875;2.430378467823104;17.68750363881816;13.140990255708733;0.919921875;0.04541015625;-0.4072265625;0.875;-0.25;-0.25;
1441975127321306;-0.64837646484375;-0.53314208984375;-0.4364013671875;0.32391357421875;2.4315785025728807;17.684249206856542;13.146888338357432;0.91455078125;0.056640625;-0.4150390625;1.0;0.4375;-0.625;
1441975127345307;-0.6480712890625;-0.53387451171875;-0.4364013671875;0.32342529296875;2.436816248802783;17.6746423219526;13.158073316806037;0.92138671875;0.0712890625;-0.41650390625;2.8125;-0.125;-1.0625;
1441975127367309;-0.647705078125;-0.5347900390625;-0.436279296875;0.32281494140625;2.444317718780889;17.66376486846131;13.171198366029326;0.91943359375;0.08642578125;-0.421875;1.75;-1.625;-2.5;
1441975127381310;-0.647216796875;-0.53607177734375;-0.435791015625;0.32232666015625;2.4547306917847993;17.654400192989826;13.185655117269045;0.90283203125;0.068359375;-0.42041015625;1.3125;-2.5;-4.3125;
1441975127404311;-0.64642333984375;-0.537841796875;-0.43511962890625;0.3218994140625;2.466992271523889;17.642994080768993;13.205198483006775;0.8984375;0.06640625;-0.427734375;4.1875;-3.0625;-5.8125;
1441975127435313;-0.64532470703125;-0.53997802734375;-0.4344482421875;0.32147216796875;2.47974101972573;17.62825809287782;13.230052248865354;0.89453125;0.087890625;-0.4326171875;7.375;-3.4375;-6.4375;
1441975127441313;-0.6441650390625;-0.5421142578125;-0.43365478515625;0.3211669921875;2.492345591116912;17.615365398618497;13.253937585773151;0.89013671875;0.11279296875;-0.4423828125;9.5625;-2.9375;-6.9375;
1441975127464314;-0.64300537109375;-0.544189453125;-0.4329833984375;0.32098388671875;2.5030897544566817;17.602939005492637;13.277242615750804;0.8818359375;0.11474609375;-0.44970703125;10.4375;-2.25;-6.9375;
1441975127487316;-0.6416015625;-0.54632568359375;-0.4322509765625;0.32110595703125;2.511530845915087;17.591954578879175;13.301087814682507;0.8701171875;0.1181640625;-0.439453125;10.375;-1.625;-6.875;
1441975127501316;-0.63995361328125;-0.54852294921875;-0.431396484375;0.32177734375;2.5163756745414063;17.584785075235015;13.324047783118624;0.8759765625;0.107421875;-0.4404296875;11.875;-0.625;-7.3125;
1441975127524318;-0.63800048828125;-0.55108642578125;-0.4302978515625;0.32281494140625;2.520876641823265;17.579153955185014;13.349269741814606;0.8837890625;0.09716796875;-0.4365234375;14.375;0.625;-7.6875;
1441975127547319;-0.6356201171875;-0.5540771484375;-0.4290771484375;0.323974609375;2.5257327708019646;17.571191252577265;13.38003590645083;0.88427734375;0.0908203125;-0.43408203125;18.125;0.625;-9.0625;
1441975127561320;-0.63311767578125;-0.5572509765625;-0.42779541015625;0.3251953125;2.5310370973149574;17.56276637347123;13.412534303232697;0.88232421875;0.09912109375;-0.4267578125;20.625;0.4375;-10.8125;
1441975127584321;-0.63037109375;-0.56060791015625;-0.42645263671875;0.32647705078125;2.536335352288339;17.55321139277684;13.447757413804915;0.8876953125;0.09375;-0.42578125;22.0;0.0625;-12.4375;
1441975127607322;-0.6275634765625;-0.5640869140625;-0.425048828125;0.32769775390625;2.5429282755134577;17.54291539814254;13.484248213442235;0.89892578125;0.09521484375;-0.4169921875;23.1875;-0.4375;-13.3125;
1441975127621323;-0.624755859375;-0.56756591796875;-0.423828125;0.32855224609375;2.55109193310682;17.528467946621678;13.523246673804692;0.90966796875;0.111328125;-0.42626953125;23.75;-0.8125;-13.4375;
1441975127644325;-0.6221923828125;-0.5709228515625;-0.422607421875;0.3291015625;2.561936293356397;17.513846074269107;13.560421502634057;0.90087890625;0.10888671875;-0.4189453125;22.0;-1.8125;-14.4375;
1441975127667326;-0.6197509765625;-0.57403564453125;-0.42156982421875;0.32977294921875;2.5701214013606712;17.500505818854425;13.595110675031911;0.888671875;0.10302734375;-0.4111328125;19.8125;-3.125;-14.9375;
1441975127689327;-0.61724853515625;-0.57696533203125;-0.42059326171875;0.33062744140625;2.5755823557959108;17.48852986305604;13.62844009793787;0.89453125;0.08740234375;-0.40283203125;18.5;-3.0;-14.625;
1441975127704328;-0.6146240234375;-0.58001708984375;-0.41937255859375;0.33172607421875;2.5810602347286924;17.479280601806543;13.661194999865133;0.9052734375;0.0859375;-0.40087890625;18.4375;-1.8125;-14.1875;
1441975127727329;-0.61175537109375;-0.58331298828125;-0.41827392578125;0.33258056640625;2.588076617793806;17.464967260075095;13.699355888618204;0.92138671875;0.0771484375;-0.419921875;20.125;-1.6875;-14.875;
1441975127749331;-0.60870361328125;-0.58697509765625;-0.41717529296875;0.33306884765625;2.5992483591836795;17.44575473819316;13.742931375606451;0.9306640625;0.087890625;-0.4267578125;20.1875;-1.3125;-16.625;
1441975127764331;-0.60552978515625;-0.59088134765625;-0.4161376953125;0.33331298828125;2.613003084064954;17.42298253430622;13.790248100611008;0.9228515625;0.08544921875;-0.43603515625;19.875;-2.125;-19.875;
1441975127787333;-0.6021728515625;-0.5950927734375;-0.4151611328125;0.33306884765625;2.6314490463403746;17.394593878808983;13.842972907497954;0.90869140625;0.0888671875;-0.43701171875;19.6875;-2.8125;-21.9375;
1441975127809334;-0.5987548828125;-0.59967041015625;-0.4140625;0.33245849609375;2.655625406749129;17.363797657431142;13.898640018313758;0.90771484375;0.10986328125;-0.4638671875;19.125;-2.8125;-23.6875;
1441975127824335;-0.59521484375;-0.60467529296875;-0.41259765625;0.33148193359375;2.6871864593075108;17.33249610653119;13.956405601575522;0.89501953125;0.11474609375;-0.482421875;19.5;-3.6875;-25.75;
1441975127846336;-0.59173583984375;-0.6097412109375;-0.4111328125;0.33038330078125;2.720770857616371;17.301640837024834;14.013400941113247;0.86962890625;0.12939453125;-0.48828125;20.5625;-5.5;-26.9375;
1441975127869337;-0.58843994140625;-0.61456298828125;-0.40966796875;0.32904052734375;2.7560522743012656;17.272185627450664;14.067025704119423;0.8505859375;0.14990234375;-0.4990234375;20.9375;-5.5625;-26.375;
1441975127884338;-0.58551025390625;-0.618896484375;-0.408447265625;0.32769775390625;2.7888425594702992;17.245174401550088;14.115010855518086;0.82373046875;0.1650390625;-0.50927734375;19.0;-5.1875;-24.625;
1441975127906340;-0.58282470703125;-0.6229248046875;-0.40716552734375;0.32647705078125;2.8203645488526496;17.222489682297443;14.157616904594011;0.82470703125;0.16845703125;-0.52001953125;16.625;-4.25;-22.3125;
1441975127929341;-0.58013916015625;-0.6268310546875;-0.40570068359375;0.3255615234375;2.850020603265428;17.204134849276393;14.19700203491783;0.81298828125;0.15576171875;-0.5224609375;15.0;-3.8125;-21.0625;
1441975127944342;-0.5772705078125;-0.630615234375;-0.40423583984375;0.3251953125;2.874282669764435;17.188683897669584;14.235325715093449;0.8017578125;0.15185546875;-0.52978515625;16.125;-2.1875;-20.0625;
1441975127966343;-0.57391357421875;-0.63470458984375;-0.402587890625;0.3251953125;2.897176775643967;17.17375312656842;14.277126057041583;0.81005859375;0.15185546875;-0.5341796875;18.5;-0.125;-19.375;
1441975127989344;-0.5699462890625;-0.63934326171875;-0.4005126953125;0.32568359375;2.9200257577948885;17.160817704622282;14.323101720852717;0.806640625;0.1640625;-0.53173828125;21.625;1.3125;-20.0625;
1441975128004345;-0.56536865234375;-0.64459228515625;-0.39813232421875;0.32623291015625;2.9461145284967736;17.146509759518093;14.375184865887366;0.80712890625;0.16943359375;-0.5244140625;27.875;0.9375;-22.5625;
1441975128026346;-0.560302734375;-0.6505126953125;-0.3953857421875;0.32666015625;2.9779782943651627;17.131180691907296;14.43250278623309;0.79638671875;0.169921875;-0.52880859375;31.25;1.0;-25.8125;
1441975128049348;-0.55474853515625;-0.65692138671875;-0.39227294921875;0.32696533203125;3.014685930626235;17.115506659944316;14.493870147835766;0.77783203125;0.197265625;-0.52734375;35.5625;-0.5625;-27.8125;
1441975128064349;-0.54876708984375;-0.6636962890625;-0.389404296875;0.32684326171875;3.0554334531465503;17.09369041052864;14.56184029689922;0.76611328125;0.2177734375;-0.5341796875;39.0625;-1.625;-29.625;
1441975128086350;-0.542236328125;-0.6707763671875;-0.38677978515625;0.3262939453125;3.0999804982838004;17.06560415334268;14.636754211462312;0.76611328125;0.24609375;-0.54296875;39.375;-2.3125;-32.625;
1441975128109351;-0.53564453125;-0.67791748046875;-0.38446044921875;0.32525634765625;3.1483943306551603;17.033885716849202;14.713428301141331;0.7509765625;0.2724609375;-0.55419921875;39.0;-1.5;-35.625;
1441975128132352;-0.52874755859375;-0.68505859375;-0.3822021484375;0.32427978515625;3.1964036639336655;17.001982683553607;14.791323853568482;0.73095703125;0.28076171875;-0.55126953125;37.0625;-2.0625;-37.625;
1441975128146353;-0.521240234375;-0.69244384765625;-0.37969970703125;0.3236083984375;3.2441809747641126;16.971534404601133;14.872104920920052;0.7177734375;0.28076171875;-0.5615234375;36.9375;-0.625;-38.8125;
1441975128177355;-0.51287841796875;-0.70025634765625;-0.3770751953125;0.3232421875;3.2920047371022223;16.94008687582344;14.95914824299413;0.71484375;0.2783203125;-0.5546875;40.4375;0.0;-41.6875;
1441975128184355;-0.50396728515625;-0.70819091796875;-0.37445068359375;0.32293701171875;3.340414667716295;16.907709731073062;15.049522260159534;0.71142578125;0.28955078125;-0.55517578125;44.5625;1.6875;-44.9375;
1441975128206357;-0.49456787109375;-0.716064453125;-0.37237548828125;0.3226318359375;3.3870756231169143;16.87019211238076;15.144816121421222;0.7109375;0.3095703125;-0.56298828125;46.5;3.125;-46.875;
1441975128229358;-0.4847412109375;-0.723876953125;-0.37066650390625;0.32208251953125;3.4354072056993004;16.8286457632799;15.243651819024876;0.72314453125;0.32177734375;-0.564453125;45.0;4.875;-49.8125;
1441975128252359;-0.4742431640625;-0.73199462890625;-0.36883544921875;0.3214111328125;3.4882907687002813;16.786342732130205;15.346502572592382;0.72265625;0.32568359375;-0.5546875;43.4375;5.25;-52.875;
1441975128266360;-0.46295166015625;-0.74029541015625;-0.366943359375;0.32098388671875;3.541584328496478;16.743597801152355;15.453946511826423;0.7294921875;0.32470703125;-0.560546875;45.0625;4.9375;-57.4375;
1441975128289361;-0.45086669921875;-0.748779296875;-0.36505126953125;0.32073974609375;3.595927742659781;16.699862128892114;15.566198189210802;0.7373046875;0.33154296875;-0.556640625;47.75;6.1875;-61.0;
1441975128304362;-0.43798828125;-0.75726318359375;-0.36334228515625;0.320556640625;3.651257889691728;16.653498280136166;15.683518935440757;0.7509765625;0.341796875;-0.5673828125;49.9375;8.0;-64.875;
1441975128326364;-0.42425537109375;-0.76580810546875;-0.36175537109375;0.320556640625;3.707370412829061;16.60518873350451;15.806147953405194;0.759765625;0.3447265625;-0.5751953125;50.375;10.25;-69.25;
1441975128349365;-0.40948486328125;-0.7742919921875;-0.36016845703125;0.3211669921875;3.760266056410584;16.556004777689267;15.934864083843866;0.76513671875;0.3486328125;-0.5771484375;51.4375;12.75;-73.5625;
1441975128364366;-0.3936767578125;-0.78240966796875;-0.35888671875;0.32257080078125;3.8062619381529728;16.50345898598689;16.070800437765442;0.79638671875;0.3662109375;-0.5830078125;54.75;16.3125;-77.5;
1441975128388367;-0.37701416015625;-0.79010009765625;-0.35760498046875;0.3251953125;3.8418434254228613;16.45093352455558;16.211869807115267;0.841796875;0.4228515625;-0.59716796875;57.9375;22.125;-78.75;
1441975128409368;-0.3602294921875;-0.79693603515625;-0.3570556640625;0.3282470703125;3.8707905388402235;16.393558237038338;16.35475976073954;0.93896484375;0.50439453125;-0.66357421875;62.375;30.0625;-77.5625;
1441975128424369;-0.34326171875;-0.8031005859375;-0.35723876953125;0.3311767578125;3.900290025066611;16.330257327616298;16.499901651518663;1.01220703125;0.53564453125;-0.68505859375;58.375;34.25;-77.9375;
1441975128446370;-0.32598876953125;-0.80902099609375;-0.35748291015625;0.33380126953125;3.936017710723102;16.266330357441078;16.645491062595763;0.96728515625;0.4921875;-0.60009765625;53.1875;33.75;-81.1875;
1441975128469372;-0.3084716796875;-0.814697265625;-0.35821533203125;0.33587646484375;3.980207898321785;16.198963864478458;16.792069638212595;0.85400390625;0.36083984375;-0.48681640625;49.75;31.625;-88.25;
1441975128485373;-0.290771484375;-0.82061767578125;-0.357421875;0.338134765625;4.029018621147151;16.145637272320837;16.93214584752554;0.798828125;0.31591796875;-0.39794921875;46.5;28.375;-93.1875;
1441975128506374;-0.271728515625;-0.8270263671875;-0.35491943359375;0.341064453125;4.080438692580574;16.103674726457818;17.075094305870916;0.814453125;0.302734375;-0.41796875;53.1875;27.1875;-93.0625;
1441975128546376;-0.25146484375;-0.83404541015625;-0.35064697265625;0.3438720703125;4.141742522313872;16.07432840325795;17.218212493615173;0.82373046875;0.33154296875;-0.4306640625;66.25;29.125;-95.1875;
1441975128548376;-0.231201171875;-0.8408203125;-0.34564208984375;0.3465576171875;4.204589990182655;16.052623256931216;17.35626978658615;0.81982421875;0.36328125;-0.40966796875;79.875;25.9375;-97.5;
1441975128566377;-0.2115478515625;-0.84674072265625;-0.341064453125;0.349365234375;4.261918688530641;16.030346544489863;17.489914931831045;0.849609375;0.40185546875;-0.400390625;84.125;22.75;-95.6875;
1441975128589379;-0.193603515625;-0.8507080078125;-0.3392333984375;0.3519287109375;4.310996542774505;15.99137791392856;17.61901363950754;0.85205078125;0.453125;-0.41650390625;80.1875;24.8125;-90.6875;
1441975128604379;-0.179443359375;-0.85198974609375;-0.34173583984375;0.3538818359375;4.348307290469379;15.928970087131276;17.733623830467725;0.830078125;0.46728515625;-0.36376953125;61.4375;25.3125;-85.0625;
1441975128626381;-0.16876220703125;-0.851806640625;-0.3468017578125;0.35455322265625;4.385870923717644;15.857990643986506;17.827960523675976;0.8134765625;0.5654296875;-0.29052734375;32.25;22.3125;-69.0625;
1441975128649382;-0.16094970703125;-0.85205078125;-0.35223388671875;0.35223388671875;4.44711882568836;15.798867316521925;17.893094699878926;0.79638671875;0.64404296875;-0.28564453125;10.6875;15.4375;-54.5625;
1441975128664383;-0.15576171875;-0.8524169921875;-0.35662841796875;0.3492431640625;4.5050944039350895;15.757232704341625;17.933418252735045;0.78662109375;0.5986328125;-0.33740234375;-2.8125;-1.8125;-51.0;
1441975128686384;-0.15338134765625;-0.85443115234375;-0.3580322265625;0.3438720703125;4.577710431471886;15.752268979858366;17.93654203361252;0.7919921875;0.498046875;-0.26416015625;-4.8125;-15.875;-43.6875;
1441975128709385;-0.15777587890625;-0.8533935546875;-0.36419677734375;0.3380126953125;4.622777407764291;15.725696117678678;17.908410369973282;0.6787109375;0.40234375;-0.39111328125;-2.3125;-29.0625;-31.375;
1441975128724386;-0.16192626953125;-0.85113525390625;-0.37164306640625;0.33355712890625;4.651685270389345;15.684830623594491;17.89055402824452;0.72021484375;0.3515625;-0.4140625;-48.625;-36.0;-10.875;
1441975128746388;-0.16204833984375;-0.8519287109375;-0.3729248046875;0.33001708984375;4.690988939243989;15.682325926786204;17.88242485340548;0.78466796875;0.255859375;-0.318359375;-55.9375;-31.625;-17.875;
1441975128769389;-0.164306640625;-0.8521728515625;-0.37591552734375;0.32489013671875;4.7373650947191654;15.674015927434585;17.860671783657686;0.70068359375;0.283203125;-0.4833984375;-16.0625;-19.4375;-22.5;
1441975128784390;-0.1666259765625;-0.8524169921875;-0.37823486328125;0.32037353515625;4.776464481791775;15.669599917205739;17.838512862692017;0.71728515625;0.29150390625;-0.466796875;-30.125;-30.875;-18.625;
1441975128806391;-0.16729736328125;-0.8531494140625;-0.38043212890625;0.3154296875;4.828262307073066;15.663253676937297;17.82543151336048;0.71875;0.35009765625;-0.5185546875;-26.5;-26.625;-13.6875;
1441975128829392;-0.1676025390625;-0.853271484375;-0.38214111328125;0.31292724609375;4.8544265211353;15.655291153626564;17.820799621906268;0.689453125;0.40576171875;-0.51953125;-20.375;-25.25;-19.5625;
1441975128844393;-0.16632080078125;-0.85504150390625;-0.37969970703125;0.31158447265625;4.8766511368420336;15.674111303337469;17.817769953279857;0.63134765625;0.31884765625;-0.423828125;-15.625;-14.8125;-16.8125;
1441975128866394;-0.164306640625;-0.85723876953125;-0.375732421875;0.3115234375;4.88889793881631;15.701120010310007;17.818899762497487;0.5888671875;0.333984375;-0.46142578125;11.0625;-9.25;-13.5;
1441975128897396;-0.162353515625;-0.859130859375;-0.372314453125;0.31146240234375;4.900394227303272;15.723801406097216;17.82134560027291;0.59765625;0.47265625;-0.43994140625;28.5625;-5.375;-5.8125;
1441975128904397;-0.1619873046875;-0.8602294921875;-0.37115478515625;0.30999755859375;4.919212596389425;15.734626060889715;17.81602710299564;0.5830078125;0.59326171875;-0.49169921875;27.4375;-1.6875;-0.3125;
1441975128926398;-0.16455078125;-0.86004638671875;-0.37200927734375;0.30804443359375;4.928715244833197;15.736536246475355;17.79630526002706;0.5185546875;0.611328125;-0.51513671875;11.125;-5.1875;4.5625;
1441975128949399;-0.16796875;-0.859619140625;-0.37249755859375;0.30682373046875;4.926178698480526;15.741779059022967;17.77217635052732;0.50732421875;0.59912109375;-0.48828125;-7.0625;-10.75;15.625;
1441975128964400;-0.17413330078125;-0.860107421875;-0.37030029296875;0.3048095703125;4.921587854880532;15.774703578919787;17.720353965386018;0.5048828125;0.57080078125;-0.423828125;-5.0625;-11.5625;20.75;
1441975128986401;-0.18414306640625;-0.8592529296875;-0.36810302734375;0.30377197265625;4.888289697289037;15.813825177611744;17.64616972601976;0.43505859375;0.48388671875;-0.46142578125;0.125;-21.25;35.375;
1441975129009403;-0.1943359375;-0.85784912109375;-0.36749267578125;0.3023681640625;4.858501179497132;15.842408444106608;17.573759354860204;0.53173828125;0.494140625;-0.5400390625;-10.5625;-22.5625;55.25;
1441975129024404;-0.20440673828125;-0.856201171875;-0.36700439453125;0.30084228515625;4.830548384008112;15.86991920122947;17.50181370572129;0.63818359375;0.5712890625;-0.5576171875;-17.25;-25.25;53.3125;
1441975129046405;-0.21429443359375;-0.854248046875;-0.36712646484375;0.2994384765625;4.802053896145373;15.892610611317307;17.43272593978324;0.63671875;0.52685546875;-0.53564453125;-18.875;-26.0625;51.0;
1441975129069406;-0.224365234375;-0.85235595703125;-0.36676025390625;0.2977294921875;4.776946994841608;15.919921021949264;17.359835222333977;0.673828125;0.53271484375;-0.54443359375;-22.125;-24.5625;49.0;
1441975129084407;-0.236083984375;-0.85009765625;-0.36444091796875;0.298095703125;4.724662473531772;15.964965119785509;17.27400067658624;0.6904296875;0.4912109375;-0.56494140625;-21.875;-26.8125;48.0;
1441975129106408;-0.2484130859375;-0.845947265625;-0.36285400390625;0.30181884765625;4.630205815199774;16.004210150033362;17.191942250032124;0.8291015625;0.6064453125;-0.62158203125;-10.0625;-24.8125;65.9375;
1441975129129410;-0.26336669921875;-0.8397216796875;-0.36358642578125;0.30560302734375;4.519487090273248;16.033822289776055;17.096538890099623;1.14501953125;0.8623046875;-0.78515625;-8.8125;-9.3125;80.8125;
1441975129144410;-0.28192138671875;-0.8306884765625;-0.36920166015625;0.30706787109375;4.409076726744459;16.03773271624029;16.9840732384558;1.21142578125;0.8291015625;-0.810546875;-30.3125;-7.375;90.9375;
1441975129166412;-0.30364990234375;-0.82037353515625;-0.375;0.306884765625;4.300924705565282;16.051993145191922;16.84306204715841;0.9365234375;0.55810546875;-0.59619140625;-73.25;-12.9375;95.25;
1441975129189413;-0.32623291015625;-0.8106689453125;-0.3775634765625;0.30633544921875;4.201112736046567;16.098725291315496;16.67987490095405;0.7333984375;0.2177734375;-0.5244140625;-95.625;-19.9375;98.6875;
1441975129204414;-0.3460693359375;-0.80255126953125;-0.3778076171875;0.30572509765625;4.122120767594545;16.159700323713988;16.525220908504973;0.6259765625;0.01611328125;-0.5126953125;-87.875;-26.625;99.9375;
1441975129226415;-0.36370849609375;-0.79718017578125;-0.37115478515625;0.307373046875;4.053254643521761;16.274653056100846;16.361750210854233;0.59765625;-0.01220703125;-0.515625;-58.25;-29.875;101.125;
1441975129249416;-0.3779296875;-0.7930908203125;-0.36419677734375;0.3092041015625;4.00323371068934;16.38375008531997;16.221185871112503;0.7001953125;0.07568359375;-0.55029296875;-20.1875;-31.625;93.0;
1441975129264417;-0.39044189453125;-0.78875732421875;-0.35955810546875;0.3101806640625;3.964357023848808;16.46898419833847;16.09975170412584;0.8359375;0.20556640625;-0.587890625;-4.375;-29.75;80.625;
1441975129286419;-0.40289306640625;-0.78314208984375;-0.35797119140625;0.31036376953125;3.924154495501383;16.529873366686402;15.98709681836987;0.8720703125;0.31201171875;-0.56689453125;-8.8125;-26.75;73.25;
1441975129309420;-0.415283203125;-0.7760009765625;-0.35821533203125;0.31170654296875;3.8629467631908176;16.5794791737957;15.878753612689733;0.87109375;0.2763671875;-0.5380859375;-27.1875;-23.0;68.3125;
1441975129324421;-0.42626953125;-0.76873779296875;-0.358154296875;0.3148193359375;3.787717658099119;16.631604974716968;15.778189358691503;0.88623046875;0.2138671875;-0.47265625;-36.375;-14.5625;67.5;
1441975129346422;-0.436279296875;-0.7626953125;-0.35595703125;0.31829833984375;3.7243325128966047;16.700420843394276;15.675892744591287;0.869140625;0.1767578125;-0.4072265625;-27.875;-6.625;65.25;
1441975129369423;-0.4468994140625;-0.7567138671875;-0.35302734375;0.321044921875;3.673722672919813;16.77880676737214;15.562864146435082;0.76123046875;0.1728515625;-0.4267578125;-13.4375;-5.25;65.375;
1441975129384424;-0.4591064453125;-0.74871826171875;-0.35211181640625;0.3236083984375;3.6114005228106008;16.85097838273604;15.438260396744516;0.6904296875;0.19921875;-0.44873046875;-12.1875;-7.0;71.3125;
1441975129408425;-0.47198486328125;-0.73895263671875;-0.3536376953125;0.3258056640625;3.5382072942901046;16.909710746155177;15.311259113825452;0.69775390625;0.1650390625;-0.41455078125;-28.3125;-4.3125;78.5;
1441975129429427;-0.484619140625;-0.7293701171875;-0.356689453125;0.32562255859375;3.4851214189817616;16.950516671491624;15.192406835044505;0.7421875;0.15576171875;-0.40380859375;-44.6875;0.5625;80.25;
1441975129444428;-0.49700927734375;-0.71966552734375;-0.3599853515625;0.32501220703125;3.4360686105047926;16.989175951369834;15.074472035565515;0.73388671875;0.1923828125;-0.45263671875;-55.625;-1.75;73.875;
1441975129466429;-0.5091552734375;-0.70941162109375;-0.3634033203125;0.32476806640625;3.381770718585539;17.029902755811477;14.954596046237867;0.73974609375;0.15869140625;-0.43994140625;-58.75;-2.6875;70.4375;
1441975129489430;-0.52032470703125;-0.69952392578125;-0.36663818359375;0.324951171875;3.327047304572118;17.071156192401713;14.840330789101017;0.78076171875;0.13037109375;-0.42822265625;-59.0;-1.125;70.0625;
1441975129504431;-0.53045654296875;-0.68994140625;-0.3697509765625;0.3255615234375;3.2709799830204362;17.112173540545264;14.732240816421623;0.78466796875;0.12548828125;-0.458984375;-55.0625;3.6875;66.25;
1441975129526432;-0.53997802734375;-0.680419921875;-0.373046875;0.32611083984375;3.215534330757669;17.150803128196607;14.628077013676371;0.7734375;0.1259765625;-0.47509765625;-50.6875;8.4375;63.25;
1441975129549434;-0.5487060546875;-0.67120361328125;-0.376708984375;0.3265380859375;3.160929906185201;17.183708615966925;14.531669579941378;0.7431640625;0.10791015625;-0.48291015625;-50.875;11.75;59.8125;
1441975129564434;-0.55670166015625;-0.662353515625;-0.38031005859375;0.32684326171875;3.109280174904146;17.21423217518557;14.440956238069727;0.7119140625;0.09228515625;-0.4716796875;-50.8125;14.4375;54.8125;
1441975129586436;-0.56378173828125;-0.6544189453125;-0.38336181640625;0.3271484375;3.0643250761713743;17.244494095266354;14.357757135603828;0.68994140625;0.10107421875;-0.48193359375;-48.125;16.75;51.5625;
1441975129609437;-0.5699462890625;-0.6470947265625;-0.385986328125;0.32794189453125;3.0195534858787108;17.276301034115875;14.280382576540935;0.68310546875;0.10107421875;-0.49755859375;-42.5625;16.6875;47.0;
1441975129624438;-0.57501220703125;-0.64007568359375;-0.388671875;0.32958984375;2.9671261708425263;17.307382200931627;14.21034405389;0.68359375;0.109375;-0.48779296875;-35.3125;17.8125;44.0625;
1441975129646439;-0.57916259765625;-0.63323974609375;-0.39178466796875;0.33184814453125;2.9066350977166326;17.334809626120666;14.14784996391856;0.779296875;0.15380859375;-0.50927734375;-28.875;21.625;43.125;
1441975129670440;-0.5828857421875;-0.62640380859375;-0.39532470703125;0.334228515625;2.842152041317763;17.358943186220365;14.089112179888042;0.8662109375;0.20361328125;-0.53759765625;-24.375;26.4375;42.75;
1441975129687441;-0.5867919921875;-0.61944580078125;-0.39892578125;0.3359375;2.7830420152281525;17.3817525987161;14.02871595882287;0.921875;0.2177734375;-0.5390625;-24.3125;28.375;41.5;
1441975129708443;-0.5916748046875;-0.61151123046875;-0.40289306640625;0.337158203125;2.7240320454049782;17.408936389366133;13.955758577461312;0.91064453125;0.22021484375;-0.54052734375;-27.125;27.0625;41.4375;
1441975129729444;-0.5966796875;-0.60235595703125;-0.40814208984375;0.33856201171875;2.650787707400793;17.433644559332503;13.878246886453413;0.884765625;0.1533203125;-0.51708984375;-36.25;26.25;42.875;
1441975129744445;-0.600341796875;-0.5928955078125;-0.4139404296875;0.341796875;2.5549304591942863;17.462480984814103;13.803671445095603;0.94580078125;0.14111328125;-0.48193359375;-43.0625;30.1875;44.5;
1441975129766446;-0.60247802734375;-0.58392333984375;-0.4200439453125;0.3460693359375;2.447301260974539;17.48875046037797;13.739928921630817;1.185546875;0.22314453125;-0.55078125;-34.625;40.3125;49.0625;
1441975129789447;-0.6041259765625;-0.5755615234375;-0.4254150390625;0.35052490234375;2.344708671196912;17.521318522032086;13.675863512511087;1.43017578125;0.30029296875;-0.6376953125;-26.0625;48.0625;48.1875;
1441975129812449;-0.60693359375;-0.5667724609375;-0.43023681640625;0.35418701171875;2.2542225215764295;17.56681401812915;13.593545826119696;1.349609375;0.29443359375;-0.5859375;-20.4375;46.625;47.0;
1441975129826449;-0.61236572265625;-0.55596923828125;-0.43487548828125;0.35614013671875;2.178718936830426;17.63332494217525;13.4721441841968;1.0537109375;0.17138671875;-0.46484375;-27.5;41.5625;46.0;
1441975129849451;-0.61883544921875;-0.54345703125;-0.43963623046875;0.3583984375;2.098997731934767;17.725530399360338;13.317687244081334;0.74267578125;0.0087890625;-0.36376953125;-46.9375;35.5625;48.625;
1441975129864452;-0.62359619140625;-0.53277587890625;-0.4443359375;0.36053466796875;2.0247323660960976;17.80279956193252;13.188402287024612;0.68017578125;-0.12890625;-0.298828125;-55.75;35.6875;50.375;
1441975129886453;-0.62493896484375;-0.52740478515625;-0.44659423828125;0.36322021484375;1.9738931409698586;17.85497808251376;13.11825220468182;0.85546875;-0.1064453125;-0.3115234375;-47.0;33.0625;40.0625;
1441975129909454;-0.624267578125;-0.5264892578125;-0.44659423828125;0.36572265625;1.950848460751324;17.882996925614336;13.097014081207622;0.99658203125;-0.033203125;-0.33837890625;-15.0625;22.625;22.1875;
1441975129925455;-0.62286376953125;-0.52728271484375;-0.44647216796875;0.3670654296875;1.9400480108641875;17.88293501850321;13.107835975626639;1.0390625;-0.0126953125;-0.34130859375;7.5625;9.25;5.5625;
1441975129946456;-0.62164306640625;-0.52923583984375;-0.4459228515625;0.36700439453125;1.9471507448363368;17.86498483993037;13.136419738435034;1.048828125;-0.013671875;-0.3173828125;9.5;2.0625;-5.25;
1441975129969458;-0.620849609375;-0.53179931640625;-0.44476318359375;0.365966796875;1.9696051331301696;17.841574220511927;13.169799731604561;1.00048828125;-0.0126953125;-0.32958984375;8.4375;-4.625;-11.375;
1441975129985458;-0.62060546875;-0.5350341796875;-0.4434814453125;0.36334228515625;2.0089797606116826;17.803279548611147;13.214059737460303;1.01025390625;-0.0224609375;-0.34619140625;6.8125;-11.5625;-14.8125;
1441975130006460;-0.62078857421875;-0.5390625;-0.44195556640625;0.3587646484375;2.0689032736350925;17.74790405711971;13.271274061921098;0.97802734375;-0.02880859375;-0.3408203125;2.125;-19.6875;-19.75;
1441975130029461;-0.6214599609375;-0.5439453125;-0.440673828125;0.351806640625;2.1502338727459716;17.669950022994733;13.344315404894704;0.904296875;-0.03564453125;-0.3349609375;-3.375;-28.8125;-26.5625;
1441975130045462;-0.62213134765625;-0.54937744140625;-0.43951416015625;0.343505859375;2.2441425344307833;17.58197620000286;13.424531983095513;0.84375;-0.02783203125;-0.31689453125;-11.375;-38.875;-34.3125;
1441975130066463;-0.62255859375;-0.55535888671875;-0.43804931640625;0.33489990234375;2.345713777942586;17.49683313524825;13.504127538499535;0.83203125;-0.025390625;-0.294921875;-15.5625;-45.5;-41.1875;
1441975130089464;-0.6226806640625;-0.5618896484375;-0.43609619140625;0.3262939453125;2.4537477487026633;17.418532218320145;13.580719288992576;0.8359375;-0.005859375;-0.28662109375;-13.5625;-49.75;-43.0625;
1441975130105465;-0.62347412109375;-0.56866455078125;-0.43341064453125;0.31646728515625;2.5804846233559364;17.347433254925743;13.647154968475048;0.8388671875;0.05322265625;-0.30859375;-8.5625;-51.6875;-42.125;
1441975130126467;-0.62567138671875;-0.57373046875;-0.4312744140625;0.3056640625;2.70818910776369;17.285495442656874;13.69060024166436;0.8359375;0.130859375;-0.3740234375;-9.4375;-57.0;-38.6875;
1441975130149468;-0.628662109375;-0.57684326171875;-0.4307861328125;0.29412841796875;2.824601496570024;17.220614995630594;13.721745057841835;0.85498046875;0.16650390625;-0.37646484375;-21.125;-60.3125;-30.3125;
1441975130171469;-0.6318359375;-0.5792236328125;-0.43096923828125;0.28204345703125;2.938568080777193;17.15377161274936;13.748260893109205;0.87158203125;0.1572265625;-0.34130859375;-35.375;-59.5;-27.0625;
1441975130186470;-0.634521484375;-0.5819091796875;-0.4307861328125;0.270751953125;3.049318056032453;17.09444277706294;13.772898898130784;0.830078125;0.14794921875;-0.3349609375;-42.125;-58.0625;-27.375;
1441975130208471;-0.63690185546875;-0.58447265625;-0.42999267578125;0.26055908203125;3.1540123852911703;17.047525024099805;13.790566564535297;0.78271484375;0.14990234375;-0.31494140625;-36.4375;-56.3125;-27.9375;
1441975130225472;-0.6397705078125;-0.58648681640625;-0.4283447265625;0.25152587890625;3.253073903305728;17.0188323557603;13.792839393805453;0.74072265625;0.14306640625;-0.3115234375;-30.4375;-54.0625;-25.5625;
1441975130246473;-0.64300537109375;-0.58746337890625;-0.42681884765625;0.24359130859375;3.3381182175890567;16.999872325211943;13.784184634783484;0.74560546875;0.16259765625;-0.33984375;-25.5;-52.6875;-17.4375;
1441975130268475;-0.64630126953125;-0.58734130859375;-0.426025390625;0.23651123046875;3.406366295177206;16.982901805563024;13.770551599232009;0.79638671875;0.19921875;-0.36181640625;-23.6875;-49.5;-8.875;
1441975130285476;-0.649658203125;-0.58599853515625;-0.42620849609375;0.230224609375;3.456187364130393;16.965894934732326;13.752739333750533;0.869140625;0.2412109375;-0.3759765625;-24.75;-44.625;-2.25;
1441975130307477;-0.65350341796875;-0.58294677734375;-0.427490234375;0.224609375;3.4862249584915306;16.950115697972745;13.726040767672632;0.951171875;0.2802734375;-0.435546875;-27.5;-37.5;3.5625;
1441975130329478;-0.65802001953125;-0.5780029296875;-0.42974853515625;0.21990966796875;3.4946895814344754;16.938862944616663;13.68725944079299;1.02734375;0.2958984375;-0.47607421875;-33.4375;-30.5;11.1875;
1441975130345479;-0.66339111328125;-0.57122802734375;-0.4324951171875;0.21600341796875;3.4863094657199554;16.935774933451157;13.633388177871495;1.03466796875;0.27099609375;-0.48046875;-39.625;-22.9375;19.75;
1441975130374481;-0.6697998046875;-0.5626220703125;-0.43585205078125;0.2120361328125;3.467664594796445;16.936590272171035;13.565052177563107;0.96044921875;0.2021484375;-0.45361328125;-46.5;-17.125;28.0;
1441975130389482;-0.67645263671875;-0.552734375;-0.43963623046875;0.208984375;3.4333971856907577;16.943843540927812;13.487468426399248;0.8759765625;0.14892578125;-0.41943359375;-55.8125;-14.0625;35.8125;
1441975130411483;-0.68212890625;-0.54296875;-0.44287109375;0.20928955078125;3.3754845115230294;16.970562833413407;13.406399073212565;0.85205078125;0.1103515625;-0.38134765625;-57.9375;-9.375;41.25;
1441975130429484;-0.6864013671875;-0.53375244140625;-0.446044921875;0.21234130859375;3.2971950686902085;17.008398593512183;13.329425144208088;0.9794921875;0.1083984375;-0.4208984375;-42.25;-0.5;45.75;
1441975130449485;-0.69024658203125;-0.52490234375;-0.448486328125;0.21673583984375;3.2156527937681965;17.059507228071734;13.248047013088968;1.16064453125;0.197265625;-0.48681640625;-25.5625;8.6875;49.875;
1441975130480487;-0.694580078125;-0.5145263671875;-0.4522705078125;0.21990966796875;3.129547698206459;17.10355377982228;13.15997102118842;1.2255859375;0.271484375;-0.5615234375;-14.5;14.0625;56.3125;
1441975130486487;-0.70025634765625;-0.5010986328125;-0.45782470703125;0.22161865234375;3.032877312317146;17.145322238152197;13.051360103915918;1.20361328125;0.298828125;-0.55517578125;-26.625;17.9375;61.8125;
1441975130509488;-0.7071533203125;-0.484130859375;-0.46478271484375;0.222900390625;2.918674154516089;17.19789679790972;12.912369298273704;1.07958984375;0.23046875;-0.513671875;-48.9375;23.6875;70.4375;
1441975130531490;-0.714599609375;-0.46563720703125;-0.47174072265625;0.2237548828125;2.8051963450947603;17.26383252420072;12.75228969831323;0.96435546875;0.10400390625;-0.4345703125;-68.875;30.0;79.6875;
1441975130546491;-0.72222900390625;-0.44781494140625;-0.4776611328125;0.22308349609375;2.7165545218232827;17.3315676553186;12.58953292102455;0.82861328125;-0.0234375;-0.41748046875;-78.6875;33.4375;80.625;
1441975130568492;-0.72918701171875;-0.430908203125;-0.48260498046875;0.22320556640625;2.6353826681276953;17.412570979635742;12.423404088569411;0.71337890625;-0.02294921875;-0.455078125;-80.875;30.6875;77.3125;
1441975130591493;-0.7349853515625;-0.41552734375;-0.4866943359375;0.2244873046875;2.55952606274644;17.503689303713045;12.26122910836387;0.75830078125;-0.08203125;-0.44580078125;-72.6875;28.125;71.6875;
1441975130606494;-0.7388916015625;-0.40338134765625;-0.4898681640625;0.226806640625;2.4930870878589304;17.59062232658992;12.124548067393167;0.86328125;-0.1513671875;-0.447265625;-61.75;26.25;62.8125;
1441975130629495;-0.74127197265625;-0.39434814453125;-0.49224853515625;0.22967529296875;2.437345012855433;17.667933054862004;12.015497848997615;0.87744140625;-0.111328125;-0.4443359375;-42.0625;25.875;51.875;
1441975130651497;-0.74334716796875;-0.38616943359375;-0.49444580078125;0.232177734375;2.3887674286387783;17.740011126329588;11.914459460617548;0.87158203125;-0.04931640625;-0.45703125;-24.75;25.75;42.6875;
1441975130666497;-0.74554443359375;-0.3780517578125;-0.496826171875;0.2333984375;2.3476938458721843;17.80113411432973;11.819341369354325;0.9130859375;-0.015625;-0.48291015625;-21.875;24.9375;40.1875;
1441975130689499;-0.74755859375;-0.3702392578125;-0.49951171875;0.23370361328125;2.309805760382611;17.85050695774116;11.733534302972568;0.9345703125;0.02490234375;-0.49365234375;-26.375;23.375;39.25;
1441975130711500;-0.74945068359375;-0.36297607421875;-0.50201416015625;0.23370361328125;2.276958214077838;17.895321304485172;11.653789369957423;0.87841796875;0.029296875;-0.45751953125;-29.25;22.0;35.9375;
1441975130726501;-0.75128173828125;-0.35614013671875;-0.50433349609375;0.23333740234375;2.249086769777923;17.935424652803654;11.579454462145222;0.80126953125;0.0166015625;-0.427734375;-28.75;21.1875;31.875;
1441975130749502;-0.7532958984375;-0.34979248046875;-0.50592041015625;0.23297119140625;2.2307326791486566;17.977797639478855;11.505666187602099;0.7265625;0.03125;-0.4228515625;-27.75;20.875;30.625;
1441975130771503;-0.75604248046875;-0.34259033203125;-0.50726318359375;0.2318115234375;2.220486997774043;0.022375598159576196;11.422666387275571;0.69482421875;0.06591796875;-0.455078125;-24.625;19.75;32.375;
1441975130786504;-0.75933837890625;-0.33416748046875;-0.509033203125;0.229736328125;2.2111523323276545;0.06613754623525538;11.330802016240023;0.7177734375;0.0771484375;-0.49072265625;-30.0;18.0;36.5;
1441975130808506;-0.7626953125;-0.3248291015625;-0.51123046875;0.2269287109375;2.199965063545842;0.1073118606161419;11.234509627400323;0.76708984375;0.08740234375;-0.48779296875;-38.8125;16.6875;40.6875;
1441975130840507;-0.76617431640625;-0.31512451171875;-0.5135498046875;0.2236328125;2.1903219815456123;0.14611208535684617;11.136972344410083;0.8076171875;0.09423828125;-0.49658203125;-45.1875;17.625;42.6875;
1441975130849508;-0.76959228515625;-0.3052978515625;-0.51593017578125;0.2200927734375;2.181276544076451;0.18312738291062652;11.039846887883911;0.82421875;0.0771484375;-0.4912109375;-49.25;17.0625;42.3125;
1441975130868509;-0.77276611328125;-0.29583740234375;-0.5181884765625;0.2164306640625;2.1737826327169767;0.2160162737225487;10.948367802503697;0.82373046875;0.0478515625;-0.46240234375;-51.125;15.375;40.1875;
1441975130891510;-0.77581787109375;-0.2867431640625;-0.520263671875;0.2127685546875;2.16858220208097;0.24663645012066518;10.861037101261953;0.78466796875;0.03271484375;-0.43310546875;-50.25;14.1875;37.3125;
1441975130908511;-0.77862548828125;-0.2779541015625;-0.52227783203125;0.20916748046875;2.1634106198202327;0.27539074979814926;10.777444081046719;0.74560546875;0.03125;-0.41748046875;-49.0;13.0625;35.5625;
1441975130929512;-0.781005859375;-0.27001953125;-0.52435302734375;0.20562744140625;2.156664331734165;0.29682082909732044;10.705253212203035;0.763671875;0.0234375;-0.41796875;-47.125;12.875;34.0;
1441975130951514;-0.78289794921875;-0.26300048828125;-0.526611328125;0.20159912109375;2.14790966625632;0.30305531582749995;10.650357685023224;0.78759765625;0.029296875;-0.40966796875;-44.0625;12.75;29.9375;
1441975130967515;-0.7845458984375;-0.25616455078125;-0.52960205078125;0.19622802734375;2.1342862027733;0.28830487018785506;10.611286441348343;0.875;0.06494140625;-0.455078125;-42.0;13.75;26.0625;
1441975130988516;-0.78594970703125;-0.249755859375;-0.53253173828125;0.1907958984375;2.120234230575745;0.2689471097449567;10.578684421465669;0.986328125;0.1005859375;-0.43701171875;-47.5;11.8125;22.6875;
1441975131013517;-0.78753662109375;-0.24365234375;-0.534912109375;0.18548583984375;2.1123574791525095;0.2506040557679564;10.547234616306799;1.01611328125;0.0908203125;-0.43115234375;-46.25;10.8125;19.3125;
1441975131028518;-0.7890625;-0.23724365234375;-0.53759765625;0.1793212890625;2.1026401174843254;0.2230392334325086;10.520164672696902;0.994140625;0.02001953125;-0.412109375;-46.1875;6.6875;14.4375;
1441975131049519;-0.78997802734375;-0.23199462890625;-0.54052734375;0.17333984375;2.0878100904256063;0.18556378855435696;10.50875622226732;0.9716796875;0.013671875;-0.3935546875;-51.75;7.375;12.3125;
1441975131071521;-0.7899169921875;-0.2279052734375;-0.5438232421875;0.1685791015625;2.0622238307481227;0.1501002535751257;10.505476663348292;0.9775390625;0.03857421875;-0.38330078125;-46.75;8.0;7.75;
1441975131102522;-0.7891845703125;-0.2255859375;-0.54736328125;0.16375732421875;2.0329953785859964;0.09495206006842921;10.529159238148605;1.11181640625;0.06982421875;-0.419921875;-35.9375;13.1875;6.375;
1441975131108523;-0.788330078125;-0.22503662109375;-0.5506591796875;0.1573486328125;2.012630582610651;0.002067559847939812;10.591747623056115;1.30517578125;0.15673828125;-0.51318359375;-28.875;16.4375;2.625;
1441975131132524;-0.78826904296875;-0.22393798828125;-0.55340576171875;0.1495361328125;2.0063696108160243;17.89888603312433;10.65664341603641;1.3662109375;0.2705078125;-0.5068359375;-27.4375;10.125;-3.6875;
1441975131155525;-0.78912353515625;-0.22125244140625;-0.5557861328125;0.13970947265625;2.0130758463278235;17.788047746026052;10.714314840814357;1.2041015625;0.1923828125;-0.4169921875;-38.0;2.0625;-10.5;
1441975131168526;-0.7904052734375;-0.21856689453125;-0.557861328125;0.1280517578125;2.0324961175637526;17.657486234231467;10.784278275890912;0.93896484375;0.05615234375;-0.3193359375;-55.6875;-3.8125;-17.9375;
1441975131191527;-0.79144287109375;-0.217529296875;-0.55938720703125;0.1162109375;2.062719333024684;17.514554272575324;10.873221671433527;0.759765625;-0.0078125;-0.2578125;-66.125;-8.75;-27.625;
1441975131213529;-0.79248046875;-0.21978759765625;-0.559326171875;0.10418701171875;2.120728963307848;17.355229683069428;10.99250406803639;0.69140625;-0.04150390625;-0.25390625;-61.4375;-10.875;-38.625;
1441975131229530;-0.793701171875;-0.22589111328125;-0.55712890625;0.09320068359375;2.2114746964553698;17.20016007565836;11.128912342636653;0.7265625;-0.015625;-0.3310546875;-50.5;-16.375;-52.625;
1441975131251531;-0.794921875;-0.23480224609375;-0.55328369140625;0.083251953125;2.327040893819868;17.058942815943862;11.268448418623173;0.83935546875;0.05615234375;-0.42333984375;-29.75;-25.125;-62.4375;
1441975131267532;-0.796142578125;-0.24517822265625;-0.54827880859375;0.0743408203125;2.4579301829691462;16.939646058364396;11.39725909443623;0.95751953125;0.1025390625;-0.484375;-14.1875;-32.875;-70.6875;
1441975131288533;-0.79791259765625;-0.25616455078125;-0.54180908203125;0.06549072265625;2.6094757732880534;16.841615033999506;11.508451908320744;1.052734375;0.11279296875;-0.51123046875;-3.6875;-39.6875;-75.5625;
1441975131311534;-0.79986572265625;-0.26629638671875;-0.53497314453125;0.0570068359375;2.761944099745939;16.76515425930014;11.596352948750262;1.07373046875;0.08984375;-0.521484375;-1.125;-49.8125;-80.125;
1441975131335536;-0.8013916015625;-0.276611328125;-0.5279541015625;0.05096435546875;2.9034829935815853;16.715635983697737;11.668660008410491;1.08056640625;0.02001953125;-0.47607421875;-4.1875;-55.6875;-80.75;
1441975131348536;-0.8026123046875;-0.2889404296875;-0.5198974609375;0.04632568359375;3.0545480012704584;16.679516759742203;11.74300614269024;1.0556640625;-0.048828125;-0.43310546875;6.4375;-55.25;-80.0;
1441975131371538;-0.8040771484375;-0.3023681640625;-0.51031494140625;0.04107666015625;3.22806616807354;16.649585903119114;11.814786538817295;0.958984375;-0.01611328125;-0.43115234375;20.9375;-56.0;-82.625;
1441975131387539;-0.8057861328125;-0.31463623046875;-0.50067138671875;0.03387451171875;3.409633768341671;16.61583244159257;11.877809072211772;0.86279296875;0.08203125;-0.4521484375;26.625;-62.6875;-82.375;
1441975131409540;-0.8077392578125;-0.3243408203125;-0.49176025390625;0.0242919921875;3.589048886657242;16.574956001314707;11.926824955751542;0.837890625;0.134765625;-0.4306640625;15.625;-68.9375;-79.9375;
1441975131434541;-0.80975341796875;-0.332275390625;-0.48358154296875;0.01470947265625;3.755204337801363;16.53919896160745;11.962606341150321;0.8095703125;0.1630859375;-0.3984375;-2.5;-72.75;-73.8125;
1441975131447542;-0.81231689453125;-0.33868408203125;-0.474853515625;0.00616455078125;3.9143322594252723;16.52104015499312;11.978761992389625;0.78466796875;0.18359375;-0.35888671875;-7.6875;-71.625;-64.875;
1441975131468543;-0.81494140625;-0.3438720703125;-0.46661376953125;-0.00213623046875;4.062627962256444;16.506114790057783;11.986975975679789;0.7783203125;0.18603515625;-0.3955078125;-6.9375;-73.0;-54.9375;
1441975131492545;-0.8172607421875;-0.3477783203125;-0.45953369140625;-0.00885009765625;4.185148884109421;16.497728223127986;11.988916507320358;0.80224609375;0.2421875;-0.39892578125;-8.1875;-72.3125;-46.75;
1441975131507546;-0.819091796875;-0.3504638671875;-0.4541015625;-0.0142822265625;4.27956075122593;16.490515573868667;11.988598686034095;0.8271484375;0.248046875;-0.37158203125;-5.6875;-66.5;-37.875;
1441975131528547;-0.82073974609375;-0.35186767578125;-0.44976806640625;-0.0191650390625;4.355297301618042;16.483479747866298;11.983951046536891;0.83251953125;0.275390625;-0.33154296875;-4.0;-58.375;-29.125;
1441975131551548;-0.82305908203125;-0.3511962890625;-0.44580078125;-0.024658203125;4.42385662627561;16.476928876628687;11.966248907404628;0.80029296875;0.31640625;-0.3369140625;-5.625;-50.6875;-20.125;
1441975131567549;-0.8255615234375;-0.34808349609375;-0.4432373046875;-0.0301513671875;4.470073912020761;16.468771580197668;11.937965222481745;0.76953125;0.302734375;-0.3701171875;-15.625;-49.8125;-10.5;
1441975131588550;-0.828125;-0.34320068359375;-0.4420166015625;-0.033935546875;4.486913110104526;16.467904136366478;11.900554342992267;0.80078125;0.31591796875;-0.337890625;-23.5625;-47.0625;1.125;
1441975131611551;-0.8306884765625;-0.33612060546875;-0.4423828125;-0.0369873046875;4.476218879978527;16.468318925282766;11.853972192231694;0.8408203125;0.31201171875;-0.3525390625;-22.875;-39.0625;12.9375;
1441975131627552;-0.83294677734375;-0.32720947265625;-0.4444580078125;-0.04095458984375;4.44749765765319;16.45847357252017;11.80460644543322;0.87158203125;0.337890625;-0.39013671875;-28.0;-30.0;25.9375;
1441975131648554;-0.83489990234375;-0.3173828125;-0.44757080078125;-0.04449462890625;4.402423452591734;16.447904826539883;11.753337369626891;0.8916015625;0.33251953125;-0.3681640625;-40.0625;-24.5;31.375;
1441975131671555;-0.83673095703125;-0.3065185546875;-0.451416015625;-0.04754638671875;4.343120406189896;16.439376175901387;11.697358757271267;0.888671875;0.3291015625;-0.353515625;-42.25;-18.75;36.6875;
1441975131687556;-0.838623046875;-0.2945556640625;-0.45562744140625;-0.04931640625;4.26853819543559;16.44051857451922;11.632422267881903;0.8779296875;0.33251953125;-0.39111328125;-44.875;-10.625;43.5625;
1441975131708557;-0.84039306640625;-0.2822265625;-0.46014404296875;-0.0499267578125;4.183060039376292;16.449478449998352;11.563249297268381;0.8310546875;0.28759765625;-0.39111328125;-44.1875;-5.1875;51.6875;
1441975131731558;-0.8419189453125;-0.27044677734375;-0.46441650390625;-0.04925537109375;4.0948281606766175;16.467471932413563;11.493556957160363;0.8037109375;0.26416015625;-0.375;-40.5;-0.0625;56.5;
1441975131747559;-0.84271240234375;-0.25823974609375;-0.469970703125;-0.04827880859375;3.990377645660859;16.482785473731717;11.425951289804996;0.828125;0.330078125;-0.44091796875;-31.5625;4.9375;60.125;
1441975131768560;-0.8424072265625;-0.24578857421875;-0.47735595703125;-0.046875;3.863735050773581;16.492585955117377;11.364519889834027;0.9765625;0.4140625;-0.4853515625;-30.8125;10.75;64.5;
1441975131791562;-0.8416748046875;-0.23236083984375;-0.485107421875;-0.0484619140625;3.7437591148985905;16.483410562736093;11.305711031471441;1.294921875;0.603515625;-0.6328125;-28.75;20.75;70.25;
1441975131807563;-0.84173583984375;-0.21563720703125;-0.49200439453125;-0.0546875;3.6425689762293554;16.45893568072036;11.22915647827753;1.31103515625;0.61572265625;-0.6767578125;-46.875;23.0;67.6875;
1441975131830564;-0.8424072265625;-0.196533203125;-0.49774169921875;-0.06378173828125;3.556476227292464;16.429725667976115;11.135985059373217;0.92431640625;0.3564453125;-0.45849609375;-82.5;12.625;65.9375;
1441975131851565;-0.8441162109375;-0.178466796875;-0.50067138671875;-0.0709228515625;3.4928650860164727;16.429364866740613;11.027861888251788;0.69189453125;0.126953125;-0.41552734375;-105.9375;8.625;67.4375;
1441975131867566;-0.84619140625;-0.1646728515625;-0.501220703125;-0.07550048828125;3.4580857683017614;16.447008724163478;10.931625279997272;0.6455078125;0.05224609375;-0.486328125;-96.875;-0.0625;59.0625;
1441975131890567;-0.847900390625;-0.15423583984375;-0.50103759765625;-0.07958984375;3.440859659238199;16.4591403405919;10.85759349330539;0.74267578125;0.1328125;-0.5146484375;-67.875;-9.125;48.375;
1441975131911569;-0.849609375;-0.14501953125;-0.50006103515625;-0.08453369140625;3.43979034928816;16.463627488508706;10.79297338287127;0.87841796875;0.29345703125;-0.5546875;-50.0625;-12.0625;39.625;
1441975131927570;-0.85162353515625;-0.1353759765625;-0.4984130859375;-0.0902099609375;3.4474475629103174;16.46754354625994;10.724070310355403;0.83203125;0.30322265625;-0.56591796875;-50.125;-13.75;32.0625;
1441975131950571;-0.853515625;-0.125;-0.49676513671875;-0.09588623046875;3.451750557731997;16.47354870547671;10.649969139579554;0.75537109375;0.27587890625;-0.55810546875;-54.9375;-16.75;32.125;
1441975131971572;-0.85516357421875;-0.11505126953125;-0.49530029296875;-0.10089111328125;3.452541464162035;16.481706632450262;10.578368092907901;0.78369140625;0.2392578125;-0.57080078125;-58.3125;-17.1875;33.0;
1441975131987573;-0.8568115234375;-0.10626220703125;-0.49365234375;-0.1046142578125;3.4547521521422717;16.49636849999613;10.510623207854296;0.78759765625;0.2138671875;-0.60009765625;-55.6875;-13.25;31.375;
1441975132010574;-0.8582763671875;-0.0977783203125;-0.4921875;-0.10772705078125;3.45374545531046;16.5135037325542;10.444287810806262;0.77392578125;0.2099609375;-0.63037109375;-46.375;-10.6875;29.0625;
1441975132031576;-0.8594970703125;-0.08929443359375;-0.490966796875;-0.11102294921875;3.4505377899514498;16.52757937359952;10.380241571683325;0.7490234375;0.2080078125;-0.62744140625;-42.8125;-7.875;29.9375;
1441975132047576;-0.86090087890625;-0.0802001953125;-0.48968505859375;-0.1129150390625;3.441891208611054;16.556394847244892;10.304846414632536;0.69384765625;0.2080078125;-0.60888671875;-43.6875;-5.5625;30.8125;
1441975132070578;-0.86224365234375;-0.0711669921875;-0.48834228515625;-0.11407470703125;3.432149983272503;16.591258918564186;10.226775292237397;0.669921875;0.1650390625;-0.61083984375;-39.25;-4.75;36.125;
1441975132092579;-0.863525390625;-0.06292724609375;-0.4871826171875;-0.11468505859375;3.422416374110469;16.627045989389096;10.153509540770907;0.6904296875;0.158203125;-0.60791015625;-35.4375;-5.6875;37.0;
1441975132115580;-0.86419677734375;-0.05548095703125;-0.4866943359375;-0.11541748046875;3.4075093728961368;16.655145403214632;10.090810501666727;0.74169921875;0.1455078125;-0.6259765625;-31.3125;-4.6875;33.6875;
1441975132130581;-0.86431884765625;-0.0489501953125;-0.4871826171875;-0.11529541015625;3.38184070117398;16.68280629573048;10.036154296386313;0.78466796875;0.19287109375;-0.60302734375;-27.8125;-2.1875;32.0625;
1441975132151582;-0.8642578125;-0.0426025390625;-0.488037109375;-0.1148681640625;3.352106709186293;16.711443056898876;9.982663564442872;0.80419921875;0.25390625;-0.57666015625;-19.0;3.5625;33.875;
1441975132167583;-0.86444091796875;-0.03619384765625;-0.48828125;-0.1142578125;3.329293882967465;16.744869314240677;9.924849972542951;0.8095703125;0.2421875;-0.56982421875;-16.9375;5.0625;33.75;
1441975132190585;-0.8646240234375;-0.02947998046875;-0.4886474609375;-0.11370849609375;3.305336636579704;16.779471202953598;9.864375488150094;0.81201171875;0.22998046875;-0.5859375;-16.4375;2.75;33.9375;
1441975132211586;-0.86419677734375;-0.02130126953125;-0.48956298828125;-0.11468505859375;3.2735550893370506;16.805190265769372;9.800202456595937;0.8310546875;0.21728515625;-0.59375;-17.6875;3.0;34.5;
1441975132229587;-0.86346435546875;-0.0130615234375;-0.49078369140625;-0.1158447265625;3.2381921195746277;16.828989760472624;9.736985242842255;0.8369140625;0.19677734375;-0.580078125;-30.375;5.3125;36.9375;
1441975132257588;-0.86285400390625;-0.00555419921875;-0.4921875;-0.1153564453125;3.2004908561302075;16.865054484482442;9.671676354362972;0.82666015625;0.13818359375;-0.552734375;-33.0625;6.8125;34.1875;
1441975132271589;-0.86224365234375;0.00103759765625;-0.4935302734375;-0.114501953125;3.1657755647140227;16.90121367179283;9.611686509768067;0.77685546875;0.07958984375;-0.51611328125;-23.875;7.5625;32.6875;
1441975132287590;-0.86199951171875;0.00665283203125;-0.4940185546875;-0.11376953125;3.1446404055364354;16.934760031679783;9.557751123633;0.75390625;0.06396484375;-0.5166015625;-19.75;9.125;29.375;
1441975132311592;-0.862548828125;0.01190185546875;-0.49310302734375;-0.1131591796875;3.1430906794176248;16.97010563687556;9.502823512543706;0.6708984375;0.05126953125;-0.498046875;-17.25;6.1875;24.1875;
1441975132331593;-0.863037109375;0.0169677734375;-0.49200439453125;-0.11346435546875;3.1456955746037876;16.996177320715937;9.454005039362222;0.58740234375;0.05419921875;-0.47021484375;-16.0;-1.3125;22.8125;
1441975132353594;-0.86322021484375;0.02056884765625;-0.49151611328125;-0.1136474609375;3.144035783783566;17.014184145907475;9.42002196678406;0.58984375;0.03662109375;-0.43359375;-19.625;-4.75;18.1875;
1441975132370595;-0.863037109375;0.02227783203125;-0.49200439453125;-0.1126708984375;3.1331035780100196;17.031033578976647;9.400232453984637;0.64599609375;0.06787109375;-0.3935546875;-13.6875;-3.9375;12.875;
1441975132391596;-0.86248779296875;0.0235595703125;-0.4931640625;-0.11175537109375;3.114715212406829;17.043449178971944;9.386538695950826;0.748046875;0.14599609375;-0.40478515625;-0.0625;0.0625;11.5;
1441975132407597;-0.8612060546875;0.02484130859375;-0.49530029296875;-0.11163330078125;3.0841246725409777;17.045556548153485;9.379938520418023;0.8603515625;0.224609375;-0.4482421875;3.25;3.8125;13.0;
1441975132430598;-0.859375;0.02667236328125;-0.49822998046875;-0.1123046875;3.04295340451148;17.040789188605764;9.374714078942105;0.97119140625;0.29296875;-0.447265625;1.375;7.125;14.4375;
1441975132459600;-0.8570556640625;0.02960205078125;-0.50152587890625;-0.11431884765625;2.995429261715681;17.027512537161172;9.367781770947213;1.0419921875;0.3125;-0.44873046875;-4.125;10.6875;15.875;
1441975132467600;-0.85455322265625;0.03277587890625;-0.50518798828125;-0.1160888671875;2.942420339349383;17.016966721040262;9.35824619827104;1.005859375;0.2724609375;-0.40380859375;-14.875;12.75;16.0625;
1441975132491602;-0.85186767578125;0.0357666015625;-0.5093994140625;-0.11676025390625;2.881681723096105;17.015042495950137;9.345638021685362;0.880859375;0.197265625;-0.3251953125;-16.3125;14.6875;15.125;
1441975132511603;-0.84906005859375;0.03814697265625;-0.51397705078125;-0.11627197265625;2.816138251368383;17.020618765265155;9.333031203570172;0.8427734375;0.16845703125;-0.2861328125;-10.875;17.125;16.75;
1441975132527604;-0.8463134765625;0.03948974609375;-0.51837158203125;-0.11639404296875;2.7557505673747325;17.014290239818475;9.334062035699516;0.88134765625;0.18310546875;-0.30322265625;-3.0;20.125;18.25;
1441975132550605;-0.84356689453125;0.04071044921875;-0.5224609375;-0.11749267578125;2.7000951294265856;16.99729591688308;9.342090237619603;0.92529296875;0.2626953125;-0.32958984375;-0.875;20.625;15.9375;
1441975132571606;-0.84063720703125;0.0426025390625;-0.5263671875;-0.1204833984375;2.6468993995667676;16.963915504962653;9.355751691367113;0.955078125;0.302734375;-0.34423828125;-4.5;20.375;14.5625;
1441975132589607;-0.83734130859375;0.044921875;-0.530517578125;-0.1243896484375;2.5900742278903657;16.921164694391706;9.373225701818193;0.9833984375;0.30517578125;-0.345703125;-16.0;19.875;11.8125;
1441975132610609;-0.8341064453125;0.0474853515625;-0.53448486328125;-0.128173828125;2.534788887539379;16.88068995597128;9.387915475513857;1.0087890625;0.29345703125;-0.33642578125;-22.4375;21.6875;10.5;
1441975132631610;-0.8310546875;0.0499267578125;-0.5382080078125;-0.1314697265625;2.4824163164060105;16.844685739325215;9.400668433924896;1.00244140625;0.275390625;-0.33642578125;-23.4375;21.8125;10.5625;
1441975132647611;-0.828369140625;0.05133056640625;-0.5416259765625;-0.13385009765625;2.4359114463913305;16.812359166668145;9.417845956158791;0.9921875;0.25537109375;-0.3427734375;-21.375;20.8125;9.8125;
1441975132670612;-0.825927734375;0.0517578125;-0.5450439453125;-0.1348876953125;2.390726676910408;16.788039982340607;9.436695563607428;0.9833984375;0.22998046875;-0.33203125;-14.625;19.375;6.0;
1441975132691613;-0.823974609375;0.052001953125;-0.5477294921875;-0.13555908203125;2.3550438623677636;16.769233480361148;9.452156701126432;0.97509765625;0.20751953125;-0.3203125;-5.5;18.875;4.0625;
1441975132707614;-0.822265625;0.05181884765625;-0.5499267578125;-0.13720703125;2.3285773493354074;16.73742453284632;9.47823591175743;0.9755859375;0.19580078125;-0.3310546875;-3.4375;15.375;2.75;
1441975132730616;-0.8211669921875;0.05133056640625;-0.55108642578125;-0.139404296875;2.3175173432181;16.701284948507038;9.507408470348512;0.96435546875;0.2138671875;-0.30322265625;-6.375;11.6875;-1.3125;
1441975132751617;-0.8203125;0.05096435546875;-0.55157470703125;-0.14251708984375;2.316109992857114;16.65797798612412;9.539256606598068;0.951171875;0.203125;-0.3046875;-7.875;5.8125;-6.5;
1441975132767618;-0.81982421875;0.0499267578125;-0.5513916015625;-0.1463623046875;2.327064438358903;16.604621754280927;9.580725663199562;0.9453125;0.18017578125;-0.28271484375;-13.1875;1.125;-11.0625;
1441975132796619;-0.82000732421875;0.0477294921875;-0.5501708984375;-0.15057373046875;2.356378668842513;16.54506274171309;9.631424665951416;0.92822265625;0.169921875;-0.27001953125;-14.5625;-2.875;-18.0625;
1441975132812620;-0.820556640625;0.04486083984375;-0.5482177734375;-0.15570068359375;2.3998560442844314;16.475901501749075;9.69049636245171;0.90771484375;0.1943359375;-0.2685546875;-11.9375;-8.0;-24.75;
1441975132833621;-0.8216552734375;0.041748046875;-0.54510498046875;-0.16162109375;2.4610282233360548;16.405097953948136;9.748570490231453;0.9208984375;0.22265625;-0.259765625;-13.3125;-13.3125;-30.25;
1441975132850622;-0.823486328125;0.0380859375;-0.5406494140625;-0.16815185546875;2.5431230018642794;16.335345375186527;9.80493525224669;0.9267578125;0.2431640625;-0.27099609375;-16.25;-19.5625;-35.3125;
1441975132874624;-0.825927734375;0.03369140625;-0.53497314453125;-0.17510986328125;2.6445022250763843;16.26775689744627;9.859963485276463;0.92578125;0.24560546875;-0.2900390625;-17.1875;-26.6875;-41.625;
1441975132893625;-0.8287353515625;0.029052734375;-0.52850341796875;-0.18194580078125;2.7564304504456723;16.208798909991366;9.9075451479366;0.91650390625;0.28076171875;-0.298828125;-16.4375;-33.375;-46.9375;
1441975132910626;-0.831787109375;0.024169921875;-0.521484375;-0.18890380859375;2.8766834097952665;16.154459894986978;9.950759095740555;0.9072265625;0.27099609375;-0.30224609375;-14.9375;-38.375;-50.3125;
1441975132932627;-0.83526611328125;0.018798828125;-0.51336669921875;-0.1961669921875;3.012551300944354;16.10442618039231;9.989924272894806;0.88232421875;0.2666015625;-0.3115234375;-15.5625;-41.0625;-53.8125;
1441975132953628;-0.8389892578125;0.01263427734375;-0.50482177734375;-0.20294189453125;3.1556023167109672;16.06123818095814;10.027379588041445;0.85595703125;0.31591796875;-0.32958984375;-14.375;-46.125;-55.6875;
1441975132970629;-0.843017578125;0.0064697265625;-0.4952392578125;-0.2100830078125;3.3111308300865816;16.023030516731986;10.057793778637889;0.85595703125;0.34716796875;-0.34814453125;-9.125;-47.9375;-58.3125;
1441975132992630;-0.84674072265625;-2.44140625E-4;-0.4853515625;-0.218017578125;3.4737450396758662;15.979266455857973;10.09226271105293;0.85498046875;0.3681640625;-0.3486328125;-10.125;-54.9375;-61.125;
1441975133013632;-0.8504638671875;-0.00823974609375;-0.47564697265625;-0.224853515625;3.636944149174769;15.94230266116403;10.129991591636216;0.90234375;0.43212890625;-0.35791015625;-11.375;-56.8125;-65.375;
1441975133030633;-0.85443115234375;-0.0152587890625;-0.4647216796875;-0.23199462890625;3.8093236070229954;15.913819242815533;10.15315119734743;0.91796875;0.44775390625;-0.40380859375;-3.5;-53.625;-69.625;
1441975133052634;-0.85845947265625;-0.02166748046875;-0.452880859375;-0.23992919921875;3.9906359489934977;15.886417773902945;10.168604158623403;0.8525390625;0.4404296875;-0.4130859375;-7.625;-60.0625;-67.8125;
1441975133073635;-0.8621826171875;-0.02783203125;-0.44085693359375;-0.24822998046875;4.17289951779959;15.858302981522069;10.181674336392483;0.80615234375;0.4697265625;-0.40380859375;-12.25;-66.125;-67.0;
1441975133090636;-0.86602783203125;-0.0347900390625;-0.428466796875;-0.255615234375;4.3594086490704;15.837367462628164;10.194554195605829;0.77587890625;0.48291015625;-0.41455078125;-14.75;-66.4375;-67.25;
1441975133113637;-0.8695068359375;-0.04132080078125;-0.41680908203125;-0.26202392578125;4.532479225621956;15.821939193258899;10.204472929027832;0.7119140625;0.49609375;-0.4453125;-8.75;-64.75;-68.1875;
1441975133134639;-0.87200927734375;-0.04791259765625;-0.4071044921875;-0.2677001953125;4.68208687687006;15.80392698707036;10.221091923738035;0.63671875;0.48388671875;-0.41943359375;-5.4375;-60.375;-62.8125;
1441975133149639;-0.87286376953125;-0.05133056640625;-0.4007568359375;-0.27386474609375;4.782424455313673;15.776463689913307;10.232437067802408;0.6748046875;0.73779296875;-0.5791015625;-0.0625;-42.75;-48.5625;
1441975133173641;-0.87213134765625;-0.05328369140625;-0.39849853515625;-0.27911376953125;4.829951163767428;15.743033714380056;10.249167350711993;0.50732421875;0.58837890625;-0.6123046875;-20.125;-20.125;-31.75;
1441975133194642;-0.8726806640625;-0.05743408203125;-0.3983154296875;-0.27679443359375;4.844671829178786;15.752002350092894;10.268780313083512;0.37255859375;0.59521484375;-0.4970703125;-18.8125;1.125;-11.6875;
1441975133209643;-0.87255859375;-0.06402587890625;-0.40032958984375;-0.272705078125;4.84217582701261;15.7599123912439;10.309054117610366;0.51318359375;0.45263671875;-0.48291015625;21.0625;8.5;-13.5;
1441975133232644;-0.873291015625;-0.072265625;-0.400390625;-0.2681884765625;4.866280461668948;15.77519579031453;10.350311775192768;0.6123046875;0.38427734375;-0.3359375;36.5625;15.25;-25.375;
1441975133254645;-0.87451171875;-0.0771484375;-0.39642333984375;-0.268798828125;4.9322836629129165;15.776750323952143;10.365720006383896;0.5966796875;0.5126953125;-0.4521484375;45.0625;11.6875;-28.75;
1441975133269646;-0.87530517578125;-0.0810546875;-0.39019775390625;-0.274169921875;5.031686113460487;15.755490372955936;10.376871822652822;0.63330078125;0.58544921875;-0.4951171875;15.375;-16.9375;-28.375;
1441975133291648;-0.87603759765625;-0.084716796875;-0.38226318359375;-0.28167724609375;5.153951488628631;15.726366107167447;10.384008094675337;0.70947265625;0.66357421875;-0.51123046875;-7.9375;-33.75;-38.25;
1441975133314649;-0.87554931640625;-0.0849609375;-0.37640380859375;-0.29083251953125;5.243509752868362;15.684335537707428;10.381847931326805;0.70068359375;0.55615234375;-0.5009765625;-22.875;-44.375;-50.1875;
1441975133337650;-0.87774658203125;-0.089599609375;-0.36737060546875;-0.2943115234375;5.369041365316684;15.68562449227806;10.38071832211061;0.77099609375;0.40673828125;-0.41455078125;-44.375;-44.6875;-44.625;
1441975133352651;-0.8798828125;-0.09271240234375;-0.357421875;-0.29925537109375;5.500984123689685;15.682227383586628;10.370073811410087;0.69921875;0.5244140625;-0.60205078125;-3.6875;-46.1875;-51.75;
1441975133374652;-0.8812255859375;-0.0931396484375;-0.3482666015625;-0.30584716796875;5.616567572352832;15.66826320836406;10.350210348942628;0.6328125;0.50244140625;-0.5927734375;-14.25;-53.1875;-47.6875;
1441975133389653;-0.88165283203125;-0.09454345703125;-0.34075927734375;-0.3126220703125;5.720082856929959;15.645684715789672;10.342798676743366;0.6826171875;0.52880859375;-0.640625;-31.0625;-54.0625;-39.125;
1441975133411654;-0.88116455078125;-0.09600830078125;-0.3372802734375;-0.3172607421875;5.7762069751993765;15.623937220053232;10.346866285980298;0.6982421875;0.5634765625;-0.65234375;-32.4375;-43.0625;-42.4375;
1441975133434656;-0.8787841796875;-0.09503173828125;-0.33843994140625;-0.32293701171875;5.776538367122516;15.583615511610185;10.355893465346373;0.7060546875;0.5078125;-0.67236328125;-28.4375;-19.8125;-34.75;
1441975133449657;-0.87701416015625;-0.09027099609375;-0.34344482421875;-0.3238525390625;5.705264700150225;15.567443867146947;10.349084280886956;0.52294921875;0.55126953125;-0.5458984375;-38.25;5.4375;-7.75;
1441975133471658;-0.874755859375;-0.08587646484375;-0.35369873046875;-0.32000732421875;5.56815009725932;15.564609084025339;10.356333246036103;0.41796875;0.4443359375;-0.59033203125;-28.5;25.5;28.75;
1441975133494659;-0.87286376953125;-0.08807373046875;-0.36505126953125;-0.31170654296875;5.438526369754759;15.577393588342929;10.39858658982563;0.556640625;0.306640625;-0.50537109375;-9.0625;48.1875;35.4375;
1441975133509660;-0.87164306640625;-0.091552734375;-0.375732421875;-0.30133056640625;5.314709057544409;15.603285127091594;10.44207411991044;0.54931640625;0.40576171875;-0.41796875;34.1875;65.1875;18.75;
1441975133531661;-0.869384765625;-0.091796875;-0.386474609375;-0.2940673828125;5.183394026571561;15.61121008388675;10.473833458993065;0.53076171875;0.36865234375;-0.46875;45.6875;67.1875;16.375;
1441975133554663;-0.8675537109375;-0.0908203125;-0.39306640625;-0.29107666015625;5.101899478041709;15.60721986343916;10.490147808864648;0.58740234375;0.47021484375;-0.41748046875;27.6875;59.1875;28.0625;
1441975133569663;-0.8673095703125;-0.09222412109375;-0.3927001953125;-0.2918701171875;5.115122284535193;15.600686118564155;10.49895876530833;0.72705078125;0.607421875;-0.51611328125;7.5625;33.125;18.875;
1441975133593665;-0.86785888671875;-0.09478759765625;-0.38787841796875;-0.2957763671875;5.189418762391096;15.588552347835275;10.502104982203994;0.6845703125;0.6474609375;-0.6875;-5.3125;5.875;-8.5625;
1441975133614666;-0.866943359375;-0.0977783203125;-0.38330078125;-0.303466796875;5.275989121701357;15.548864794737087;10.516881747905595;0.51025390625;0.70703125;-0.7587890625;-15.125;-8.8125;-19.875;
1441975133629667;-0.8690185546875;-0.10296630859375;-0.37969970703125;-0.30023193359375;5.327027639829549;15.57672133942554;10.525570192514992;0.57373046875;0.5771484375;-0.55126953125;-32.9375;-17.6875;-39.8125;
1441975133651668;-0.87249755859375;-0.1085205078125;-0.3712158203125;-0.29876708984375;5.43472254861325;15.610473931592978;10.51983355666284;0.48193359375;0.384765625;-0.70068359375;18.125;0.125;-27.875;
1441975133674669;-0.87353515625;-0.1112060546875;-0.3641357421875;-0.303466796875;5.534669483316732;15.601157125323708;10.515863050721403;0.3974609375;0.72705078125;-0.92431640625;19.125;-16.9375;-24.0;
1441975133690670;-0.87530517578125;-0.1156005859375;-0.35626220703125;-0.305908203125;5.64313297555763;15.606810462548722;10.514775639529473;0.544921875;0.6943359375;-0.72607421875;-16.0625;-27.875;-30.4375;
1441975133712672;-0.87738037109375;-0.122314453125;-0.346923828125;-0.30816650390625;5.776864475161724;15.615396925249346;10.521430659176977;0.4638671875;0.54833984375;-0.77392578125;-6.9375;-24.9375;-38.8125;
1441975133734673;-0.87982177734375;-0.12811279296875;-0.340087890625;-0.30645751953125;5.867632765030294;15.64215272258061;10.526103690220069;0.44775390625;0.63818359375;-0.72412109375;6.0625;-31.5;-49.0625;
1441975133758674;-0.8797607421875;-0.13037109375;-0.33795166015625;-0.30816650390625;5.905585176131745;15.635326710864888;10.533980467658669;0.48486328125;0.5107421875;-0.705078125;19.125;-22.0625;-38.75;
1441975133772675;-0.87908935546875;-0.12615966796875;-0.34112548828125;-0.3082275390625;5.85373020116007;15.629692515636949;10.521659971781922;0.3955078125;0.63525390625;-0.5185546875;0.0625;-5.1875;-13.125;
1441975133794676;-0.8779296875;-0.11865234375;-0.3504638671875;-0.3040771484375;5.7102521991554145;15.635308078092054;10.506298263323774;0.35107421875;0.607421875;-0.5068359375;-9.6875;14.25;32.9375;
1441975133816678;-0.87738037109375;-0.11517333984375;-0.36285400390625;-0.2921142578125;5.529138705711831;15.675810230843595;10.512245398896972;0.46435546875;0.2666015625;-0.376953125;-8.375;34.5;51.625;
1441975133831678;-0.87646484375;-0.11981201171875;-0.3743896484375;-0.2781982421875;5.387474680793646;15.718927151993316;10.559420244085862;0.56201171875;0.3857421875;-0.3984375;42.5625;59.1875;54.6875;
1441975133854680;-0.87445068359375;-0.1207275390625;-0.38720703125;-0.26641845703125;5.221003832674494;15.7471765101856;10.594113516198362;0.53369140625;0.76611328125;-0.37255859375;86.125;71.0625;34.25;
1441975133876681;-0.87164306640625;-0.11669921875;-0.3978271484375;-0.26165771484375;5.077365865091165;15.743862364313644;10.60470907996468;0.47314453125;0.5224609375;-0.400390625;53.6875;76.875;43.3125;
1441975133891682;-0.87017822265625;-0.11456298828125;-0.40234375;-0.260498046875;5.017186211813769;15.736939394986418;10.60884061518579;0.54931640625;0.62109375;-0.4306640625;10.5625;54.6875;51.375;
1441975133914683;-0.86981201171875;-0.11712646484375;-0.400146484375;-0.26385498046875;5.063356322635661;15.71806211722518;10.622875923329097;0.68212890625;0.658203125;-0.53125;0.4375;21.125;22.625;
1441975133930684;-0.86907958984375;-0.1212158203125;-0.3944091796875;-0.2730712890625;5.173707877660166;15.671588531392091;10.643075497440279;0.61865234375;0.814453125;-0.6435546875;-4.0;-3.125;-11.75;
1441975133952685;-0.86956787109375;-0.12493896484375;-0.3897705078125;-0.2764892578125;5.250451310399071;15.661000661268297;10.65279488914409;0.5849609375;0.61083984375;-0.51904296875;-31.5;-26.5;-47.5625;
1441975133974687;-0.87261962890625;-0.13360595703125;-0.37969970703125;-0.27667236328125;5.393405131309754;15.68553296889969;10.662738876528701;0.650390625;0.34326171875;-0.52294921875;-12.8125;-23.25;-44.8125;
1441975133990688;-0.87384033203125;-0.1427001953125;-0.36810302734375;-0.28399658203125;5.579125409184525;15.667730376713765;10.683204111747099;0.59814453125;0.74267578125;-0.76171875;28.4375;-35.375;-51.125;
1441975134011689;-0.87542724609375;-0.15167236328125;-0.3555908203125;-0.29034423828125;5.769350249427716;15.659916925213349;10.69736633815284;0.60986328125;0.8251953125;-0.70654296875;-2.9375;-48.0625;-71.8125;
1441975134034690;-0.87664794921875;-0.16015625;-0.34320068359375;-0.296875;5.956254675795868;15.65083650283804;10.709670024822499;0.49072265625;0.6103515625;-0.646484375;-3.25;-52.3125;-75.6875;
1441975134050691;-0.87774658203125;-0.16717529296875;-0.33221435546875;-0.3021240234375;6.117282258314101;15.646596941598867;10.71700484677995;0.4697265625;0.6689453125;-0.642578125;-3.5625;-52.9375;-72.5625;
1441975134071692;-0.87774658203125;-0.17138671875;-0.324462890625;-0.3082275390625;6.2361132467712315;15.62929447446573;10.721334316855327;0.4873046875;0.642578125;-0.6396484375;-2.4375;-48.9375;-63.5625;
1441975134094694;-0.8773193359375;-0.17279052734375;-0.32012939453125;-0.313232421875;6.303800945336386;15.610664195154554;10.720402486812864;0.48828125;0.5810546875;-0.5380859375;-15.25;-40.5;-49.6875;
1441975134110694;-0.87713623046875;-0.1724853515625;-0.3182373046875;-0.31573486328125;6.330003031015561;15.601398156167718;10.715247388839117;0.49365234375;0.5478515625;-0.50341796875;-19.5625;-28.3125;-29.8125;
1441975134131696;-0.877197265625;-0.170654296875;-0.32012939453125;-0.314697265625;6.298832237706723;15.603784843099055;10.710221838734665;0.50830078125;0.5673828125;-0.4521484375;-8.9375;-19.375;-12.375;
1441975134154697;-0.87713623046875;-0.1688232421875;-0.32464599609375;-0.311279296875;6.233239929220089;15.61249465233831;10.711490954298638;0.5322265625;0.482421875;-0.44482421875;-0.3125;-1.125;5.125;
1441975134170698;-0.8763427734375;-0.16619873046875;-0.33184814453125;-0.30718994140625;6.134892509752539;15.61699554863889;10.717395371276188;0.5234375;0.52783203125;-0.4189453125;12.25;14.8125;16.75;
1441975134191699;-0.87445068359375;-0.16436767578125;-0.34002685546875;-0.30462646484375;6.036424730170898;15.607147349863396;10.734068004495354;0.57421875;0.53076171875;-0.443359375;8.9375;28.0;24.625;
1441975134221701;-0.8731689453125;-0.1646728515625;-0.34576416015625;-0.30169677734375;5.970843347794846;15.605034281594213;10.753579299981753;0.59033203125;0.62548828125;-0.4052734375;5.75;33.875;21.5625;
1441975134236702;-0.87213134765625;-0.1636962890625;-0.3487548828125;-0.3017578125;5.937098161543652;15.595029516589564;10.759793215893684;0.58251953125;0.62890625;-0.48486328125;11.375;28.125;8.8125;
1441975134251703;-0.8709716796875;-0.16448974609375;-0.3499755859375;-0.30322265625;5.934648398461422;15.580112638282532;10.771631405232775;0.52490234375;0.59326171875;-0.455078125;-3.625;10.25;6.5625;
1441975134274704;-0.87066650390625;-0.169677734375;-0.345458984375;-0.306396484375;6.016220446958742;15.569746199331096;10.788818824207004;0.58740234375;0.67822265625;-0.453125;-2.0;0.8125;-7.9375;
1441975134290705;-0.8709716796875;-0.17449951171875;-0.3369140625;-0.31231689453125;6.145546642749228;15.557015017982849;10.792066320649937;0.5244140625;0.81103515625;-0.6064453125;3.4375;-15.875;-36.125;
1441975134313706;-0.87066650390625;-0.1756591796875;-0.327880859375;-0.322021484375;6.275716285631461;15.525998828789769;10.77777282454876;0.40478515625;0.86669921875;-0.64697265625;-6.25;-35.375;-40.0625;
1441975134334707;-0.86962890625;-0.17803955078125;-0.31890869140625;-0.332275390625;6.413062097899528;15.489345308577716;10.771262662552187;0.388671875;0.81298828125;-0.71875;-38.625;-44.5;-33.5625;
1441975134358709;-0.87005615234375;-0.18280029296875;-0.30841064453125;-0.33843994140625;6.561251931832384;15.480668623109093;10.766982351012231;0.39208984375;0.68505859375;-0.61572265625;-41.75;-45.6875;-46.6875;
1441975134371709;-0.8707275390625;-0.18853759765625;-0.298583984375;-0.34246826171875;6.699722074190316;15.481810941145463;10.76824742720227;0.33740234375;0.6416015625;-0.6572265625;-16.875;-45.0;-52.75;
1441975134394711;-0.8714599609375;-0.19451904296875;-0.2901611328125;-0.34442138671875;6.817965379942849;15.490614417370061;10.77407122883323;0.328125;0.662109375;-0.5908203125;-0.5625;-40.6875;-52.375;
1441975134410712;-0.87176513671875;-0.20037841796875;-0.2838134765625;-0.3455810546875;6.912643369517826;15.497949066322862;10.78586224029953;0.33544921875;0.66552734375;-0.57470703125;10.125;-32.6875;-48.0;
1441975134432713;-0.87176513671875;-0.20611572265625;-0.2794189453125;-0.345703125;6.983953050144501;15.505747139836181;10.80288520184352;0.33544921875;0.65625;-0.533203125;12.375;-22.8125;-44.0625;
1441975134454714;-0.87200927734375;-0.21234130859375;-0.27630615234375;-0.3438720703125;7.03776517428897;15.521455784935803;10.825112557154938;0.341796875;0.60986328125;-0.49462890625;14.875;-13.25;-40.125;
1441975134470715;-0.87158203125;-0.21875;-0.2742919921875;-0.342529296875;7.083700431307716;15.530750773127702;10.852720902251932;0.3447265625;0.61083984375;-0.4873046875;24.8125;-5.0;-37.0;
1441975134494716;-0.87066650390625;-0.22412109375;-0.2734375;-0.34210205078125;7.116939077948252;15.531949314067388;10.879292885830415;0.34033203125;0.67138671875;-0.4697265625;23.6875;0.9375;-35.9375;
1441975134514718;-0.869873046875;-0.22821044921875;-0.27294921875;-0.3419189453125;7.141268160568785;15.531655663670273;10.900133101579373;0.33544921875;0.6806640625;-0.4384765625;17.0625;3.8125;-30.75;
1441975134530718;-0.8692626953125;-0.2301025390625;-0.27276611328125;-0.34228515625;7.153956217171332;15.528568374092144;10.910409403642802;0.29541015625;0.66796875;-0.51025390625;9.5625;5.4375;-21.9375;
1441975134554720;-0.86859130859375;-0.2308349609375;-0.27349853515625;-0.3428955078125;7.153193049434374;15.522160297960239;10.917453820760333;0.27978515625;0.6650390625;-0.49658203125;4.0;2.25;-10.4375;
1441975134574721;-0.86785888671875;-0.23138427734375;-0.2740478515625;-0.343994140625;7.155271712381961;15.513558016648835;10.923237009770219;0.349609375;0.72314453125;-0.5029296875;1.5625;1.6875;-5.875;
1441975134590722;-0.8670654296875;-0.2313232421875;-0.27386474609375;-0.3460693359375;7.165218044926084;15.501531618713367;10.92416207439457;0.34716796875;0.7490234375;-0.5537109375;-2.8125;0.6875;-5.0625;
1441975134611723;-0.86639404296875;-0.23028564453125;-0.27386474609375;-0.3485107421875;7.169989728944737;15.487614477052336;10.920442574821207;0.32958984375;0.7666015625;-0.556640625;-7.125;-4.4375;-4.375;
1441975134634724;-0.86572265625;-0.22943115234375;-0.27435302734375;-0.35028076171875;7.168317120229769;15.475975204430751;10.918941106208273;0.3388671875;0.7705078125;-0.55029296875;-10.6875;-6.75;-0.125;
1441975134658726;-0.86517333984375;-0.22930908203125;-0.274169921875;-0.35186767578125;7.17593576200773;15.46703211685745;10.919000852015483;0.33544921875;0.73876953125;-0.55126953125;-8.75;-2.75;0.5625;
1441975134671727;-0.8651123046875;-0.22894287109375;-0.27313232421875;-0.3531494140625;7.189064691626435;15.462748831244758;10.914497132087416;0.28271484375;0.74072265625;-0.548828125;-6.0625;-2.3125;-1.375;
1441975134694728;-0.864990234375;-0.22808837890625;-0.271728515625;-0.35504150390625;7.205611648072674;15.456042534175126;10.906696968959652;0.25830078125;0.73486328125;-0.57666015625;-4.625;-5.6875;0.375;
1441975134710729;-0.8648681640625;-0.22711181640625;-0.27020263671875;-0.357177734375;7.223634390141792;15.448366402554816;10.897941723309897;0.24365234375;0.71875;-0.56689453125;-8.0625;-9.125;1.0625;
1441975134731730;-0.864990234375;-0.22607421875;-0.2685546875;-0.35870361328125;7.2399719189743985;15.444597573016498;10.888052651816459;0.2275390625;0.72412109375;-0.54541015625;-8.375;-10.0;2.0;
1441975134754731;-0.8653564453125;-0.224853515625;-0.26702880859375;-0.35968017578125;7.2519755555129235;15.443910386945177;10.877097903748787;0.220703125;0.720703125;-0.55126953125;-5.1875;-10.0625;3.5625;
1441975134770732;-0.86602783203125;-0.22344970703125;-0.26556396484375;-0.36004638671875;7.260006804735328;15.446904350364736;10.864797244742611;0.21923828125;0.71044921875;-0.54736328125;-2.8125;-9.75;5.3125;
1441975134801734;-0.86663818359375;-0.22186279296875;-0.26470947265625;-0.36016845703125;7.260391348549584;15.44965341606164;10.853372016289887;0.224609375;0.7197265625;-0.55126953125;1.125;-9.5;7.875;
1441975134815735;-0.86712646484375;-0.22021484375;-0.2640380859375;-0.360595703125;7.259960109571393;15.450181134778104;10.842378424703012;0.26171875;0.75146484375;-0.5302734375;3.1875;-8.5;8.625;
1441975134830736;-0.86798095703125;-0.21875;-0.26336669921875;-0.35980224609375;7.2556664852999875;15.45775574853986;10.831568788937307;0.28515625;0.76708984375;-0.52392578125;2.5625;-9.125;8.0;
1441975134854737;-0.869384765625;-0.21649169921875;-0.26251220703125;-0.3583984375;7.2467340140271395;15.470215315492608;10.815191754708447;0.28271484375;0.74365234375;-0.53173828125;8.125;-7.3125;9.3125;
1441975134874738;-0.87017822265625;-0.2138671875;-0.261962890625;-0.3585205078125;7.239075238753701;15.472850132710086;10.799028575560957;0.28515625;0.69970703125;-0.546875;8.9375;-10.0625;13.0625;
1441975134890739;-0.871337890625;-0.2113037109375;-0.26092529296875;-0.35797119140625;7.23383560320267;15.480824599322363;10.781105469276998;0.296875;0.7451171875;-0.54248046875;1.5;-10.625;13.375;
1441975134920741;-0.87237548828125;-0.20843505859375;-0.26043701171875;-0.3575439453125;7.222361981912833;15.486791785717726;10.763350942284564;0.30029296875;0.75341796875;-0.53466796875;7.125;-12.8125;13.5625;
1441975134934742;-0.87335205078125;-0.20361328125;-0.260986328125;-0.3575439453125;7.192770276027195;15.488536249889684;10.738675729383774;0.2900390625;0.76318359375;-0.5537109375;4.6875;-9.9375;16.4375;
1441975134950742;-0.874755859375;-0.19671630859375;-0.2630615234375;-0.3563232421875;7.133586831857821;15.494893842086242;10.70660180597794;0.234375;0.71875;-0.52197265625;-2.0;-7.0625;30.25;
1441975134973744;-0.87646484375;-0.18829345703125;-0.26806640625;-0.3529052734375;7.030663142635858;15.508049860239252;10.673508053419756;0.203125;0.68994140625;-0.52490234375;-1.25;-1.3125;47.125;
1441975135001745;-0.8780517578125;-0.1802978515625;-0.2755126953125;-0.347412109375;6.8990474141433555;15.527241193881196;10.648462371530854;0.2626953125;0.63037109375;-0.505859375;3.625;9.8125;61.3125;
1441975135016746;-0.87860107421875;-0.17352294921875;-0.2830810546875;-0.34332275390625;6.777399928779375;15.536487457481858;10.631925148873254;0.3916015625;0.7060546875;-0.55126953125;13.0625;21.875;63.25;
1441975135033747;-0.8787841796875;-0.16644287109375;-0.2890625;-0.34149169921875;6.677675670744413;15.536832870039815;10.610705575643463;0.466796875;0.732421875;-0.54296875;7.75;22.6875;52.6875;
1441975135054748;-0.8800048828125;-0.15899658203125;-0.2938232421875;-0.3377685546875;6.581530593156659;15.553028675410534;10.58102086733118;0.380859375;0.66748046875;-0.55712890625;-7.1875;16.875;50.3125;
1441975135070749;-0.87982177734375;-0.15069580078125;-0.30181884765625;-0.33502197265625;6.452832071243146;15.554608877330988;10.558769745218678;0.35693359375;0.6416015625;-0.5927734375;2.6875;12.875;55.4375;
1441975135093751;-0.87939453125;-0.14190673828125;-0.31353759765625;-0.3291015625;6.274163630033669;15.565426850592571;10.542760688657715;0.39208984375;0.62548828125;-0.451171875;-3.3125;24.4375;61.875;
1441975135114752;-0.87896728515625;-0.132568359375;-0.32666015625;-0.3212890625;6.0724009781145565;15.584595346004681;10.525754946302719;0.4111328125;0.59375;-0.38671875;10.25;43.8125;76.375;
1441975135130753;-0.8785400390625;-0.121826171875;-0.33868408203125;-0.31427001953125;5.877190771482314;15.604227670477433;10.497358960795113;0.470703125;0.642578125;-0.47509765625;15.625;52.5625;85.9375;
1441975135153754;-0.8773193359375;-0.10980224609375;-0.34979248046875;-0.30987548828125;5.693144929472123;15.611774800520681;10.462200028936728;0.56494140625;0.67626953125;-0.5341796875;8.625;43.6875;88.375;
1441975135174755;-0.87567138671875;-0.09722900390625;-0.36083984375;-0.3060302734375;5.508370578767639;15.617212093543023;10.424314877608722;0.609375;0.6494140625;-0.52490234375;-8.3125;35.625;86.6875;
1441975135190756;-0.8739013671875;-0.0849609375;-0.3719482421875;-0.3013916015625;5.321480730772851;15.627971599047687;10.386513872979043;0.60546875;0.5341796875;-0.50634765625;-16.4375;35.8125;85.125;
1441975135213758;-0.87188720703125;-0.07257080078125;-0.383056640625;-0.29656982421875;5.133011638222415;15.641068685156668;10.346898165859702;0.61474609375;0.484375;-0.48828125;-13.3125;37.6875;84.375;
1441975135234759;-0.87005615234375;-0.05987548828125;-0.3929443359375;-0.29168701171875;4.954937834636078;15.660740825378284;10.299226011351335;0.638671875;0.4677734375;-0.50390625;-13.8125;39.0625;85.625;
1441975135250760;-0.86810302734375;-0.04669189453125;-0.4022216796875;-0.287353515625;4.782375777537623;15.681564955052487;10.245686185787033;0.66015625;0.48193359375;-0.50537109375;-12.9375;32.6875;86.25;
1441975135273761;-0.86572265625;-0.033935546875;-0.41162109375;-0.28289794921875;4.609727835862112;15.703344947781833;10.193751104587902;0.67724609375;0.4580078125;-0.53515625;-18.0625;30.8125;86.3125;
1441975135294762;-0.8634033203125;-0.02154541015625;-0.42095947265625;-0.27740478515625;4.436517407688965;15.73437250462833;10.138980906581317;0.69873046875;0.4296875;-0.50732421875;-17.125;32.3125;84.25;
1441975135310763;-0.861328125;-0.01025390625;-0.4290771484375;-0.27197265625;4.281724968095479;15.769670294367039;10.083814266442424;0.732421875;0.412109375;-0.49853515625;-10.6875;32.625;84.125;
1441975135333764;-0.85943603515625;9.765625E-4;-0.43609619140625;-0.26690673828125;4.140294292074371;15.809072166954621;10.022660375507554;0.73193359375;0.4287109375;-0.53125;-7.9375;30.3125;79.3125;
1441975135354766;-0.857421875;0.01385498046875;-0.4427490234375;-0.26202392578125;3.9962080429001077;15.85605283347708;9.94597514394747;0.73388671875;0.4384765625;-0.53076171875;-8.5625;25.5;78.1875;
1441975135376767;-0.85552978515625;0.0269775390625;-0.44891357421875;-0.25665283203125;3.8562917489453783;15.913657800547815;9.859631098534615;0.7705078125;0.3359375;-0.5224609375;-16.0625;20.625;80.1875;
1441975135393768;-0.85382080078125;0.0394287109375;-0.4547119140625;-0.25054931640625;3.7234940101446066;15.981346337775113;9.769140683822979;0.78662109375;0.314453125;-0.525390625;-14.5;17.9375;81.75;
1441975135415769;-0.85205078125;0.05120849609375;-0.46026611328125;-0.24432373046875;3.5978232695618355;16.053477411272553;9.677399978477208;0.794921875;0.287109375;-0.5166015625;-8.875;16.625;79.625;
1441975135436770;-0.8499755859375;0.06231689453125;-0.46551513671875;-0.23895263671875;3.4813385285339855;16.12124496733061;9.588829790039016;0.81298828125;0.26806640625;-0.5078125;-6.0625;15.9375;76.5625;
1441975135453771;-0.8477783203125;0.0732421875;-0.47027587890625;-0.234130859375;3.3734653809533923;16.189488635733543;9.497822078579919;0.81201171875;0.2900390625;-0.4501953125;-6.4375;14.0625;73.125;
1441975135474772;-0.84564208984375;0.0841064453125;-0.47442626953125;-0.2298583984375;3.2757200231652455;16.259234577272327;9.402900560772236;0.8330078125;0.275390625;-0.46044921875;-8.75;12.8125;70.4375;
1441975135498774;-0.84344482421875;0.0943603515625;-0.4783935546875;-0.22564697265625;3.1841213034476503;16.33051979106824;9.308575416390545;0.853515625;0.2744140625;-0.46484375;-11.25;10.5;68.375;
1441975135513775;-0.8409423828125;0.10382080078125;-0.483154296875;-0.220703125;3.086908151735562;16.406879759789998;9.215999349688255;0.87353515625;0.2607421875;-0.4384765625;-9.1875;8.9375;65.0;
1441975135534776;-0.83892822265625;0.1121826171875;-0.487060546875;-0.215576171875;3.005894497728551;16.487043980557168;9.124545103874993;0.8994140625;0.24560546875;-0.421875;-3.5;12.625;64.5625;
1441975135565778;-0.837158203125;0.11962890625;-0.48980712890625;-0.21209716796875;2.9448008939125065;16.55287003145203;9.0435676308458;0.87890625;0.24609375;-0.4697265625;0.75;12.6875;59.9375;
1441975135573778;-0.83526611328125;0.127685546875;-0.49212646484375;-0.2095947265625;2.888898123300783;16.615886438616993;8.958442481157054;0.861328125;0.33056640625;-0.47216796875;-2.625;9.5625;55.75;
1441975135603780;-0.83331298828125;0.135986328125;-0.494384765625;-0.206787109375;2.834261432234382;16.686239130109126;8.866157921383337;0.87353515625;0.2734375;-0.47900390625;-10.5;7.875;52.9375;
1441975135624781;-0.83148193359375;0.14288330078125;-0.49700927734375;-0.20306396484375;2.780872856255133;16.760203333239986;8.78019560788268;0.8857421875;0.1953125;-0.455078125;-11.9375;6.1875;50.9375;
1441975135632781;-0.829833984375;0.1484375;-0.49981689453125;-0.198974609375;2.730938774635999;16.832536438497474;8.703170860766095;0.904296875;0.2001953125;-0.44873046875;-2.0;7.5;47.9375;
1441975135654783;-0.82818603515625;0.1544189453125;-0.5020751953125;-0.19561767578125;2.6878991571318904;16.90287487854026;8.622898237919953;0.89306640625;0.23876953125;-0.46044921875;5.25;10.625;46.375;
1441975135676784;-0.82635498046875;0.1610107421875;-0.50384521484375;-0.19354248046875;2.649924483868537;16.965765890323322;8.541763291130458;0.869140625;0.27587890625;-0.4716796875;1.4375;9.5625;48.6875;
1441975135709786;-0.824462890625;0.167236328125;-0.50537109375;-0.1922607421875;2.61606347715208;17.019425107753378;8.46784299337876;0.8857421875;0.2421875;-0.46240234375;-7.8125;7.625;46.25;
1441975135714786;-0.82281494140625;0.17230224609375;-0.50701904296875;-0.190673828125;2.5848612871548315;17.070181562751596;8.403127316403301;0.87548828125;0.203125;-0.4423828125;-11.125;6.8125;40.4375;
1441975135736787;-0.8214111328125;0.1759033203125;-0.5087890625;-0.18853759765625;2.5562549165036597;17.118205144582124;8.349633798285263;0.8798828125;0.16162109375;-0.42822265625;-6.875;7.125;33.6875;
1441975135752788;-0.8203125;0.178955078125;-0.5103759765625;-0.18634033203125;2.532464605374046;17.164226328552438;8.300726479247855;0.8798828125;0.169921875;-0.41845703125;1.0;7.375;29.125;
1441975135775790;-0.81927490234375;0.1829833984375;-0.5108642578125;-0.18536376953125;2.5192785016664243;17.20395567478511;8.248176752003852;0.8837890625;0.1943359375;-0.43359375;3.5625;7.25;28.375;
1441975135804791;-0.8182373046875;0.187255859375;-0.5111083984375;-0.18524169921875;2.5085055795997744;17.236113742268152;8.198539544755242;0.87939453125;0.18701171875;-0.4619140625;-6.1875;4.3125;27.9375;
1441975135812792;-0.81732177734375;0.19049072265625;-0.51153564453125;-0.1846923828125;2.497815496189976;17.266004022235936;8.157372349176043;0.89013671875;0.12548828125;-0.44677734375;-13.0625;2.25;22.875;
1441975135836793;-0.8167724609375;0.1927490234375;-0.5118408203125;-0.18402099609375;2.4912635404414694;17.290358668594386;8.126406305475344;0.8974609375;0.1005859375;-0.44921875;-7.75;3.5;17.9375;
1441975135864795;-0.8162841796875;0.1942138671875;-0.5123291015625;-0.1832275390625;2.483799130978809;17.310544289985927;8.103541224681816;0.8798828125;0.1083984375;-0.43896484375;-3.625;2.625;13.875;
1441975135872795;-0.81597900390625;0.19598388671875;-0.51220703125;-0.182861328125;2.4830677296747994;17.327677954506726;8.08032134470644;0.8662109375;0.13916015625;-0.42431640625;0.1875;3.5625;12.9375;
1441975135901797;-0.81573486328125;0.19757080078125;-0.51190185546875;-0.1832275390625;2.4839707733227514;17.334931180938376;8.064651563686022;0.86376953125;0.12841796875;-0.45703125;-3.25;2.3125;11.875;
1441975135910797;-0.81549072265625;0.19854736328125;-0.511962890625;-0.18310546875;2.4818803537482736;17.34360286506665;8.052363263546265;0.865234375;0.12353515625;-0.4326171875;-6.5625;0.8125;8.3125;
1441975135941799;-0.8155517578125;0.19879150390625;-0.51177978515625;-0.18304443359375;2.484049774727518;17.345921524396413;8.04917466308212;0.87109375;0.0869140625;-0.42724609375;-2.6875;1.8125;4.8125;
1441975135978801;-0.8155517578125;0.19873046875;-0.51177978515625;-0.18316650390625;2.4839457942932035;17.34407761932049;8.050775242596885;0.86669921875;0.09521484375;-0.4248046875;-0.875;1.0625;1.375;
1441975135981801;-0.81561279296875;0.1988525390625;-0.51129150390625;-0.1842041015625;2.488083332933719;17.332659299386354;8.057080043972007;0.87255859375;0.12841796875;-0.39892578125;0.0625;0.5;0.0;
1441975136000803;-0.81549072265625;0.198974609375;-0.5108642578125;-0.18585205078125;2.490007499960132;17.3143578486229;8.06769422806066;0.890625;0.11669921875;-0.41796875;-5.25;-0.375;-1.6875;
1441975136015803;-0.8153076171875;0.1982421875;-0.5108642578125;-0.18719482421875;2.4879186884625666;17.293613518856873;8.085794996929401;0.9248046875;0.0986328125;-0.39892578125;-8.5625;-1.0625;-4.6875;
1441975136030804;-0.815185546875;0.197021484375;-0.5111083984375;-0.1884765625;2.484151195981627;17.27013608017384;8.109170630653333;0.958984375;0.0908203125;-0.390625;-4.625;0.0625;-8.1875;
1441975136052806;-0.81494140625;0.19537353515625;-0.511474609375;-0.19024658203125;2.4784507811331693;17.23787579910233;8.141086023341975;0.982421875;0.10107421875;-0.400390625;-2.4375;2.0625;-9.9375;
1441975136075807;-0.814697265625;0.19415283203125;-0.5113525390625;-0.19268798828125;2.4771878843434076;17.2006717477864;8.173003980787877;0.98388671875;0.1494140625;-0.400390625;-2.1875;3.6875;-10.3125;
1441975136104808;-0.814208984375;0.193603515625;-0.51129150390625;-0.195556640625;2.473612589748945;17.16343047824985;8.20037264100431;0.94091796875;0.17529296875;-0.4033203125;-6.5;3.3125;-9.25;
1441975136112809;-0.8135986328125;0.193115234375;-0.51153564453125;-0.197998046875;2.466764804750747;17.13149699693632;8.224106881386456;0.9052734375;0.14013671875;-0.3828125;-11.8125;3.5625;-9.125;
1441975136136810;-0.81298828125;0.19171142578125;-0.51239013671875;-0.19952392578125;2.4551957083252294;17.103263829983895;8.25214117361484;0.8798828125;0.10986328125;-0.36767578125;-10.375;5.25;-9.3125;
1441975136166812;-0.8125;0.1895751953125;-0.51361083984375;-0.200439453125;2.4418082868807143;17.076472902313917;8.284644450395934;0.88623046875;0.115234375;-0.3583984375;-2.8125;7.3125;-10.0;
1441975136172812;-0.81219482421875;0.1871337890625;-0.51483154296875;-0.20098876953125;2.430123380918169;17.051473032572414;8.318237042615467;0.8984375;0.12109375;-0.35205078125;3.0;8.0625;-11.125;
1441975136195814;-0.811767578125;0.1846923828125;-0.51605224609375;-0.20166015625;2.417913582009021;17.024637851340966;8.353033741565227;0.9033203125;0.12646484375;-0.36474609375;5.375;8.625;-11.6875;
1441975136217815;-0.8114013671875;0.1824951171875;-0.51715087890625;-0.2025146484375;2.4072857615772465;16.99732193064755;8.386537845253825;0.890625;0.14208984375;-0.35400390625;5.5625;9.125;-11.0;
1441975136232816;-0.81097412109375;0.1800537109375;-0.51824951171875;-0.2034912109375;2.396824929759063;16.966344328377264;8.424116311691108;0.8896484375;0.13037109375;-0.35302734375;3.1875;8.125;-11.5;
1441975136257817;-0.8106689453125;0.1773681640625;-0.51934814453125;-0.20416259765625;2.387673369559653;16.93694080430729;8.462444218778572;0.88720703125;0.130859375;-0.33349609375;3.25;7.75;-12.875;
1441975136285819;-0.81048583984375;0.1746826171875;-0.52020263671875;-0.205078125;2.382015380648629;16.90471557708219;8.502480458416546;0.88232421875;0.12255859375;-0.3388671875;5.4375;8.5;-14.125;
1441975136308820;-0.81011962890625;0.17242431640625;-0.52105712890625;-0.2064208984375;2.375185206170297;16.87031110549778;8.541084207121655;0.87548828125;0.14697265625;-0.34130859375;4.6875;7.4375;-13.75;
