1441975647466057;0.09765625;-0.65301513671875;-0.7373046875;-0.1431884765625;10.932854916126763;13.109759742555218;17.745871905388807;-1.716796875;-0.12939453125;-0.03271484375;-235.875;62.6875;213.875;
1441975647497058;0.08349609375;-0.6396484375;-0.75543212890625;-0.1151123046875;10.58667071034164;12.997682847257142;17.79999812922999;-1.56884765625;-0.62646484375;0.01025390625;-258.875;42.875;208.875;
1441975647512059;0.066650390625;-0.642578125;-0.75787353515625;-0.091552734375;10.263046705736649;13.01209227694379;17.844003264677724;-1.2314453125;-0.4521484375;-0.0693359375;-128.1875;20.5625;201.1875;
1441975647528060;0.052001953125;-0.6480712890625;-0.7564697265625;-0.0718994140625;9.989526365674061;13.048262580800884;17.879650727641206;-0.90087890625;-0.15771484375;-0.11572265625;2.375;11.3125;182.4375;
1441975647548061;0.03985595703125;-0.65087890625;-0.75616455078125;-0.05572509765625;9.763140686660432;13.065821843632564;17.906369590596846;-0.771484375;0.06982421875;-0.109375;27.0625;9.625;153.4375;
1441975647571063;0.031494140625;-0.65679931640625;-0.7523193359375;-0.0418701171875;9.587601262103082;13.109005117940471;17.937713187334715;-0.74560546875;0.05810546875;-0.01513671875;13.25;6.6875;128.125;
1441975647587064;0.0318603515625;-0.66668701171875;-0.74383544921875;-0.03704833984375;9.555391976741817;13.185169365965567;17.963640118790796;-0.7255859375;0.22119140625;0.01025390625;39.0625;16.375;103.3125;
1441975647609065;0.03717041015625;-0.67669677734375;-0.73431396484375;-0.0386962890625;9.614005924809064;13.265160200353247;17.98120167926336;-0.68701171875;0.4130859375;-0.0205078125;69.25;17.4375;63.5625;
1441975647625066;0.0465087890625;-0.68475341796875;-0.72601318359375;-0.04449462890625;9.738012541900389;13.332308420522649;17.997362149376702;-0.6923828125;0.58984375;0.00146484375;75.0625;15.875;16.125;
1441975647646067;0.0606689453125;-0.68865966796875;-0.7205810546875;-0.053955078125;9.930756082412678;13.371609882925885;0.016843432715889582;-0.62451171875;0.7509765625;0.0029296875;62.375;17.5;-24.5;
1441975647668068;0.0784912109375;-0.6903076171875;-0.71649169921875;-0.0635986328125;10.155237968261568;13.398466819890208;0.05038006209971895;-0.541015625;0.8623046875;0.099609375;40.875;23.25;-67.5;
1441975647685069;0.102294921875;-0.6893310546875;-0.7132568359375;-0.0758056640625;10.45014561898392;13.414657823343216;0.09733708854965449;-0.501953125;0.9375;0.1884765625;23.3125;37.625;-105.625;
1441975647706070;0.13092041015625;-0.68621826171875;-0.7095947265625;-0.092041015625;10.818651739321842;13.427743398191534;0.14798662113230646;-0.53466796875;0.97900390625;0.173828125;8.1875;51.1875;-141.4375;
1441975647728072;0.1639404296875;-0.6806640625;-0.7052001953125;-0.112060546875;11.256650716038864;13.4389294304513;0.20220188089406277;-0.654296875;1.1015625;0.08447265625;-0.25;53.875;-178.0625;
1441975647745073;0.20025634765625;-0.66925048828125;-0.70306396484375;-0.13311767578125;11.7371355519781;13.422503256568957;0.2612164782450049;-0.78564453125;1.1376953125;-0.037109375;-8.625;55.25;-212.875;
1441975647766074;0.23736572265625;-0.65313720703125;-0.7027587890625;-0.1527099609375;12.221097414785566;13.383982535342131;0.3237611716449784;-1.0556640625;1.0634765625;-0.0791015625;-43.0625;58.5625;-231.1875;
1441975647788075;0.2735595703125;-0.63690185546875;-0.69989013671875;-0.17266845703125;12.70696183523998;13.359284958238568;0.38442156527428867;-1.232421875;1.0419921875;0.001953125;-70.125;61.625;-231.8125;
1441975647805076;0.31005859375;-0.6207275390625;-0.69342041015625;-0.1943359375;13.21625466063549;13.356330282327454;0.4478497724570978;-1.11181640625;1.07470703125;0.03662109375;-59.4375;60.375;-236.5625;
1441975647828077;0.34490966796875;-0.60205078125;-0.68719482421875;-0.2154541015625;13.71727421382437;13.343041878920593;0.5048529762508649;-1.23876953125;1.09326171875;-0.041015625;-44.75;60.375;-248.9375;
1441975647849079;0.37738037109375;-0.58209228515625;-0.68109130859375;-0.234375;14.189359860906595;13.325498969868601;0.5609677107649133;-1.42041015625;0.98388671875;0.01953125;-53.6875;53.125;-243.9375;
1441975647865080;0.4091796875;-0.5611572265625;-0.67388916015625;-0.252197265625;14.656192083100052;13.31581763735819;0.6252648955420413;-1.36767578125;0.98583984375;0.07080078125;-60.1875;50.0;-232.4375;
1441975647893081;0.43951416015625;-0.539306640625;-0.6661376953125;-0.268798828125;15.110057327947308;13.310362804638821;0.6941081291975875;-1.38427734375;0.943359375;0.08203125;-61.625;52.5;-231.5;
1441975647911082;0.46820068359375;-0.52001953125;-0.65576171875;-0.283447265625;15.534749267187438;13.357540168460302;0.8016244412805738;-1.4296875;0.71337890625;0.14013671875;-63.75;51.75;-223.0;
1441975647925083;0.4937744140625;-0.5047607421875;-0.64208984375;-0.298583984375;15.930834537724829;13.477013374562752;0.9500114828866963;-1.4326171875;0.634765625;0.11328125;-48.1875;61.875;-209.0625;
1441975647949084;0.51605224609375;-0.49041748046875;-0.62835693359375;-0.313720703125;16.29734312495758;13.63276344901614;1.1233199923040278;-1.4736328125;0.62939453125;0.02783203125;-17.3125;63.4375;-197.6875;
1441975647971086;0.53656005859375;-0.47412109375;-0.61651611328125;-0.32745361328125;16.64328928563777;13.810423214277913;1.3298674365920753;-1.4169921875;0.6435546875;-0.0712890625;-8.875;51.5625;-187.5625;
1441975647985086;0.5556640625;-0.45758056640625;-0.604736328125;-0.3408203125;16.97237496808324;14.086667044336698;1.633717699393024;-1.314453125;0.5712890625;-0.07080078125;-21.8125;40.25;-181.125;
1441975648015088;0.573486328125;-0.44146728515625;-0.59197998046875;-0.35479736328125;17.28148287926978;14.61481734563179;2.180667857598325;-1.2490234375;0.50537109375;-0.03515625;-20.875;36.5625;-176.9375;
1441975648029089;0.58935546875;-0.42596435546875;-0.57861328125;-0.369384765625;17.533231001885984;15.750190749224341;3.324830434720733;-1.20703125;0.42919921875;-0.02685546875;-12.375;34.6875;-176.4375;
1441975648045090;0.60321044921875;-0.41119384765625;-0.5650634765625;-0.38446044921875;17.62249575135531;17.961704685328833;5.536018167399479;-1.15625;0.40234375;0.01513671875;-2.9375;30.875;-173.6875;
1441975648067091;0.61505126953125;-0.3968505859375;-0.5521240234375;-0.39923095703125;17.4895779334039;1.823129032765583;7.3935024424852465;-1.09228515625;0.333984375;9.765625E-4;6.125;24.8125;-168.0625;
1441975648089092;0.6241455078125;-0.384033203125;-0.5394287109375;-0.41473388671875;17.269382777071574;2.7194407738272814;8.272569997737483;-1.04638671875;0.24951171875;0.01904296875;9.375;18.1875;-159.375;
1441975648105093;0.6312255859375;-0.3726806640625;-0.5272216796875;-0.4298095703125;17.037390347088536;3.174564099413506;8.70341653102622;-1.0224609375;0.1845703125;0.017578125;22.375;10.5625;-148.9375;
1441975648128095;0.63671875;-0.36279296875;-0.5162353515625;-0.44329833984375;16.823820082206886;3.435487256628103;8.939543582717604;-0.998046875;0.1318359375;0.0029296875;28.875;6.8125;-136.5625;
1441975648148096;0.63916015625;-0.35565185546875;-0.50836181640625;-0.45452880859375;16.668441842819544;3.615526974061246;9.093217337226836;-0.9765625;0.0771484375;0.017578125;29.0625;4.5;-119.9375;
1441975648165097;0.63983154296875;-0.3504638671875;-0.5023193359375;-0.4642333984375;16.550016783356167;3.755132889031011;9.205103094524167;-0.9267578125;0.021484375;0.02490234375;29.75;0.9375;-99.9375;
1441975648195098;0.6383056640625;-0.34783935546875;-0.49853515625;-0.4722900390625;16.479136872001405;3.8744368730964664;9.293727657894232;-0.888671875;-0.0458984375;0.04541015625;30.0;-2.0625;-76.5625;
1441975648211099;0.6348876953125;-0.3477783203125;-0.49676513671875;-0.47882080078125;16.45262575057378;3.981947845229444;9.367376911804413;-0.88330078125;-0.08203125;0.0556640625;32.375;-6.1875;-50.0625;
1441975648225100;0.6297607421875;-0.3499755859375;-0.497314453125;-0.48333740234375;16.472517112986292;4.083751997765752;9.435982406232641;-0.88037109375;-0.1123046875;0.03466796875;35.6875;-11.25;-25.4375;
1441975648249101;0.62310791015625;-0.35443115234375;-0.500244140625;-0.4857177734375;16.539109044545842;4.184538628524705;9.505277046021689;-0.87548828125;-0.140625;0.03369140625;34.6875;-14.875;0.3125;
1441975648268103;0.615234375;-0.36090087890625;-0.5054931640625;-0.485595703125;16.65099709834458;4.285690273676704;9.57927912937969;-0.8291015625;-0.11279296875;0.0380859375;32.9375;-17.8125;23.8125;
1441975648285104;0.6064453125;-0.3690185546875;-0.51287841796875;-0.48272705078125;16.804651076891265;4.39096916256411;9.664049379933152;-0.77783203125;-0.08251953125;0.0380859375;28.5;-19.5;46.625;
1441975648307105;0.596923828125;-0.378173828125;-0.522216796875;-0.47747802734375;16.99179218313211;4.522290766284205;9.78227707158019;-0.767578125;-0.04931640625;0.03857421875;21.9375;-19.9375;67.875;
1441975648328106;0.58636474609375;-0.3880615234375;-0.5323486328125;-0.471435546875;17.194402961993475;4.729823139465467;9.976349416583158;-0.81005859375;-0.03955078125;0.02685546875;14.9375;-22.125;86.125;
1441975648345107;0.57403564453125;-0.3992919921875;-0.5433349609375;-0.46466064453125;17.414586883182007;5.127696995873486;10.356572035206122;-0.8408203125;-0.05029296875;0.01904296875;15.75;-25.875;101.125;
1441975648384109;0.56048583984375;-0.41131591796875;-0.5550537109375;-0.456787109375;17.62888113480775;6.053864664279459;11.26489080062737;-0.80224609375;-0.02294921875;0.01318359375;20.1875;-29.3125;114.5;
1441975648388109;0.5462646484375;-0.423583984375;-0.56732177734375;-0.44769287109375;17.740620039116834;8.458719162009096;13.654734721005749;-0.76708984375;0.01806640625;-0.005859375;21.0;-31.25;125.25;
1441975648411111;0.5316162109375;-0.4354248046875;-0.5799560546875;-0.43768310546875;17.607830619885487;10.773692956841474;15.958831840706619;-0.7890625;0.06689453125;-0.02099609375;18.125;-32.25;132.5625;
1441975648427112;0.51641845703125;-0.44683837890625;-0.592529296875;-0.42730712890625;17.362986466772366;11.631997497039832;16.807247353977903;-0.84375;0.08349609375;-0.03466796875;13.875;-33.8125;136.8125;
1441975648465114;0.50018310546875;-0.4583740234375;-0.6048583984375;-0.4169921875;17.087003491924293;11.99776909404406;17.159294432507707;-0.919921875;0.06787109375;-0.03759765625;12.8125;-36.0625;139.0;
1441975648471114;0.48272705078125;-0.47039794921875;-0.61651611328125;-0.40704345703125;16.79836863982506;12.19685568049277;17.337087713514624;-0.93603515625;0.033203125;-0.033203125;16.8125;-39.0;142.6875;
1441975648487115;0.46466064453125;-0.48321533203125;-0.62677001953125;-0.3973388671875;16.509419067443773;12.340417108251398;17.45079652372586;-0.88818359375;0.01416015625;-0.0146484375;24.3125;-40.6875;145.1875;
1441975648508116;0.44647216796875;-0.49652099609375;-0.6353759765625;-0.38787841796875;16.227208182552417;12.45848770026016;17.53192417638406;-0.861328125;0.0361328125;-0.00830078125;32.625;-37.8125;145.1875;
1441975648531118;0.42864990234375;-0.50970458984375;-0.642822265625;-0.3785400390625;15.954211799383687;12.557145010145488;17.59129023044366;-0.86767578125;0.06689453125;-0.00439453125;40.1875;-33.5;142.375;
1441975648549119;0.41156005859375;-0.52203369140625;-0.64959716796875;-0.36907958984375;15.691894123931208;12.637270514915818;17.63506392703032;-0.86572265625;0.1103515625;0.00537109375;42.125;-30.0625;138.125;
1441975648568120;0.39581298828125;-0.5330810546875;-0.65570068359375;-0.359619140625;15.447273887834395;12.702563009242015;17.669547859398186;-0.84716796875;0.15869140625;0.02099609375;39.4375;-26.4375;132.6875;
1441975648591121;0.38189697265625;-0.54241943359375;-0.661376953125;-0.3502197265625;15.22473408525122;12.753361384537083;17.698287404306175;-0.8359375;0.2001953125;0.03564453125;33.5;-22.5;124.3125;
1441975648607122;0.3701171875;-0.54974365234375;-0.666748046875;-0.34112548828125;15.02853670390999;12.789370917017843;17.722471135171233;-0.83837890625;0.23876953125;0.05078125;25.1875;-18.3125;113.375;
1441975648628123;0.36181640625;-0.5546875;-0.6710205078125;-0.33343505859375;14.88089865567296;12.813879304143146;17.74469992087515;-0.83837890625;0.2490234375;0.068359375;14.75;-14.0;101.1875;
1441975648652125;0.3558349609375;-0.55804443359375;-0.67474365234375;-0.32666015625;14.764637565991892;12.830367601748957;17.76590950218166;-0.8251953125;0.25537109375;0.0908203125;6.375;-8.5625;87.875;
1441975648667125;0.35198974609375;-0.56011962890625;-0.67791748046875;-0.3206787109375;14.676663703178969;12.842020334686323;17.788244501096;-0.80419921875;0.2509765625;0.10400390625;-0.1875;-3.625;73.75;
1441975648688127;0.35015869140625;-0.56134033203125;-0.6802978515625;-0.31561279296875;14.616538584849735;12.852988181252613;17.813098250554177;-0.77587890625;0.25927734375;0.111328125;-5.0625;1.3125;59.3125;
1441975648711128;0.3505859375;-0.5615234375;-0.68170166015625;-0.31170654296875;14.589083223118234;12.863096015532594;17.84024995587272;-0.7431640625;0.29052734375;0.1064453125;-8.3125;6.375;43.875;
1441975648727129;0.353271484375;-0.5604248046875;-0.68231201171875;-0.30926513671875;14.596167766787458;12.868929620457465;17.86655315800742;-0.72216796875;0.314453125;0.09326171875;-11.625;10.8125;26.125;
1441975648748130;0.3580322265625;-0.557861328125;-0.68218994140625;-0.30853271484375;14.638251438163344;12.867833637547086;17.88876487639518;-0.7255859375;0.33984375;0.0810546875;-15.625;13.625;7.6875;
1441975648772131;0.36468505859375;-0.553955078125;-0.68145751953125;-0.3095703125;14.713420945652928;12.859357189365182;17.90560261130683;-0.73095703125;0.34228515625;0.06787109375;-20.0;14.5;-10.25;
1441975648787132;0.372802734375;-0.5489501953125;-0.67987060546875;-0.312255859375;14.817835107115984;12.84564210837112;17.916936606418638;-0.73876953125;0.32080078125;0.05419921875;-23.25;14.4375;-26.0625;
1441975648810134;0.3818359375;-0.54345703125;-0.6771240234375;-0.31689453125;14.948352098009021;12.829483677706737;17.920271846671742;-0.7421875;0.30322265625;0.04541015625;-24.3125;13.6875;-40.9375;
1441975648831135;0.3916015625;-0.53778076171875;-0.6729736328125;-0.323486328125;15.103548154295245;12.813339198799374;17.915969531195262;-0.7509765625;0.2939453125;0.04833984375;-19.8125;13.5625;-54.625;
1441975648847136;0.40203857421875;-0.53179931640625;-0.66741943359375;-0.33197021484375;15.282957418329579;12.795307983297182;17.902629737885658;-0.7705078125;0.2890625;0.04638671875;-13.25;12.8125;-68.4375;
1441975648870137;0.4127197265625;-0.5255126953125;-0.66070556640625;-0.34210205078125;15.480576858857345;12.771707924314745;17.87695975080146;-0.79052734375;0.27734375;0.03466796875;-7.3125;11.625;-81.375;
1441975648899139;0.42327880859375;-0.5189208984375;-0.65301513671875;-0.35382080078125;15.692142194362086;12.737035923801661;17.83325681307179;-0.8134765625;0.24951171875;0.033203125;-1.5;9.4375;-91.1875;
1441975648907139;0.43267822265625;-0.5125732421875;-0.6448974609375;-0.36639404296875;15.900311188905551;12.688165613744212;17.767788836600367;-0.8427734375;0.2236328125;0.0400390625;4.5;6.25;-98.9375;
1441975648930140;0.4415283203125;-0.5062255859375;-0.635986328125;-0.3798828125;16.112447663078193;12.622255468868149;17.678993336785798;-0.87841796875;0.1982421875;0.033203125;11.5;3.5625;-104.6875;
1441975648951142;0.4495849609375;-0.5;-0.62664794921875;-0.39398193359375;16.32180299582498;12.531322523726898;17.559822232012923;-0.9111328125;0.1630859375;0.0341796875;17.625;0.9375;-108.125;
1441975648967143;0.45672607421875;-0.4940185546875;-0.6168212890625;-0.4085693359375;16.52553288747907;12.4073080249261;17.401754364260324;-0.94189453125;0.13720703125;0.0400390625;22.3125;-2.5;-108.875;
1441975648990144;0.46282958984375;-0.4886474609375;-0.6065673828125;-0.4232177734375;16.71766597578691;12.246451976830201;17.201058895920337;-0.974609375;0.10400390625;0.0419921875;28.0625;-5.1875;-108.0625;
1441975649019146;0.46844482421875;-0.483642578125;-0.595458984375;-0.4383544921875;16.90573822404837;12.026846211152728;16.935570574859828;-1.01806640625;0.0693359375;0.0419921875;34.0625;-6.6875;-104.8125;
1441975649027146;0.472412109375;-0.47967529296875;-0.58441162109375;-0.453125;17.06635792160242;11.738463878498415;16.595156247053573;-1.041015625;0.0166015625;0.0537109375;40.6875;-8.5625;-97.5625;
1441975649050147;0.474609375;-0.47705078125;-0.57354736328125;-0.4671630859375;17.193673759614573;11.386032720249935;16.184676631495126;-1.03369140625;-0.029296875;0.0693359375;47.5;-10.0;-88.3125;
1441975649071148;0.475341796875;-0.4757080078125;-0.56341552734375;-0.47998046875;17.285072811901617;10.991888008274259;15.730387600136895;-1.03564453125;-0.0546875;0.07080078125;54.25;-10.6875;-77.125;
1441975649087149;0.4749755859375;-0.47528076171875;-0.5545654296875;-0.49090576171875;17.34243285555369;10.603737796492219;15.285562535770552;-1.0419921875;-0.05810546875;0.07568359375;56.9375;-10.8125;-65.0;
1441975649112151;0.47412109375;-0.4754638671875;-0.54754638671875;-0.4993896484375;17.37396226038164;10.280424151700432;14.914745364017543;-1.0263671875;-0.0380859375;0.07421875;54.125;-9.75;-52.6875;
1441975649131152;0.4732666015625;-0.47589111328125;-0.5426025390625;-0.505126953125;17.389999318425527;10.056858755404923;14.65684521195947;-1.00341796875;0.00927734375;0.076171875;45.25;-8.0;-41.375;
1441975649153153;0.47296142578125;-0.4761962890625;-0.53973388671875;-0.50830078125;17.399430253225106;9.925632308936214;14.506522509471539;-1.0029296875;0.05908203125;0.06884765625;32.375;-5.6875;-30.25;
1441975649170154;0.4730224609375;-0.476318359375;-0.5384521484375;-0.5093994140625;17.405670409536448;9.872005000314838;14.445892533510394;-1.01318359375;0.091796875;0.06201171875;17.875;-3.625;-20.5625;
1441975649191155;0.47320556640625;-0.476806640625;-0.53814697265625;-0.50909423828125;17.41209704918458;9.891711679864995;14.464721632714443;-1.0146484375;0.099609375;0.06884765625;6.25;-1.1875;-11.75;
1441975649209156;0.47332763671875;-0.4776611328125;-0.53863525390625;-0.5076904296875;17.417332514363913;9.977153562588397;14.5534873904901;-1.009765625;0.11962890625;0.0634765625;0.1875;1.125;-5.1875;
1441975649230158;0.4735107421875;-0.47869873046875;-0.53948974609375;-0.505615234375;17.42237893034999;10.09919323957254;14.681478916556692;-0.9892578125;0.142578125;0.0615234375;-3.5625;2.9375;-0.125;
1441975649254159;0.4735107421875;-0.479736328125;-0.5408935546875;-0.503173828125;17.421708324471698;10.245880651907507;14.836218545511425;-0.9833984375;0.13720703125;0.052734375;-6.375;4.0;4.3125;
1441975649267160;0.4730224609375;-0.481201171875;-0.5423583984375;-0.5006103515625;17.416351993412615;10.419927165003333;15.016222353576927;-0.96484375;0.12939453125;0.05615234375;-7.8125;3.8125;8.1875;
1441975649290161;0.4720458984375;-0.48297119140625;-0.5439453125;-0.49810791015625;17.404394077346108;10.605490924569372;15.205643271467833;-0.9541015625;0.1240234375;0.05126953125;-5.875;3.25;11.9375;
1441975649311162;0.4705810546875;-0.4852294921875;-0.54541015625;-0.4957275390625;17.38747606153101;10.800440173619451;15.400948774144869;-0.951171875;0.11572265625;0.0595703125;-3.25;2.8125;15.125;
1441975649327163;0.46844482421875;-0.48785400390625;-0.54681396484375;-0.4935302734375;17.36300163251455;10.994266732382263;15.591463893067685;-0.939453125;0.109375;0.0537109375;0.1875;2.4375;18.375;
1441975649350164;0.4656982421875;-0.49102783203125;-0.54803466796875;-0.49163818359375;17.332455831373007;11.184187280230052;15.773340718243134;-0.92236328125;0.09765625;0.0625;4.0625;2.0;21.5;
1441975649371166;0.4622802734375;-0.49481201171875;-0.54913330078125;-0.48980712890625;17.294630513999987;11.37644617464883;15.953354521054777;-0.9150390625;0.09521484375;0.06787109375;9.125;1.875;24.1875;
1441975649387167;0.45855712890625;-0.498779296875;-0.5504150390625;-0.4879150390625;17.249993738546877;11.555280188884169;16.119237404832273;-0.91357421875;0.10986328125;0.0703125;13.3125;1.6875;26.5;
1441975649410168;0.454833984375;-0.5028076171875;-0.55194091796875;-0.48553466796875;17.2001861743425;11.727834766359749;16.280768054173002;-0.91259765625;0.1279296875;0.076171875;14.0625;1.4375;28.4375;
1441975649431169;0.451416015625;-0.5064697265625;-0.55377197265625;-0.48284912109375;17.148083606126736;11.876937846852236;16.422523832339408;-0.91845703125;0.14794921875;0.0693359375;12.0625;1.875;29.625;
1441975649447170;0.448486328125;-0.50946044921875;-0.55596923828125;-0.4798583984375;17.095742890267445;11.998159915242256;16.541657987634096;-0.91845703125;0.16455078125;0.07177734375;8.375;2.1875;29.625;
1441975649469171;0.446044921875;-0.511962890625;-0.558349609375;-0.4766845703125;17.04508701859496;12.099320257615988;16.64458884193924;-0.93505859375;0.16455078125;0.07958984375;3.4375;2.4375;29.25;
1441975649500173;0.4439697265625;-0.51416015625;-0.56072998046875;-0.4735107421875;16.996983730327017;12.185278706650037;16.734248265962954;-0.9560546875;0.158203125;0.0849609375;-0.4375;2.875;29.125;
1441975649506173;0.44219970703125;-0.51611328125;-0.56298828125;-0.4703369140625;16.95192507918672;12.260831709173305;16.814735314186834;-0.96533203125;0.1494140625;0.0830078125;-2.125;3.0625;28.5;
1441975649529175;0.4405517578125;-0.5177001953125;-0.56536865234375;-0.46728515625;16.907642215726877;12.319595497563402;16.87984175919333;-0.978515625;0.140625;0.07373046875;-3.4375;2.875;28.0625;
1441975649551176;0.43927001953125;-0.51898193359375;-0.56768798828125;-0.46417236328125;16.866805107472814;12.371390140422642;16.939918290109794;-0.982421875;0.130859375;0.0849609375;-5.25;2.6875;27.875;
1441975649567177;0.438232421875;-0.51995849609375;-0.57012939453125;-0.461181640625;16.827984057108292;12.411756740789823;16.99014771866451;-0.98486328125;0.12353515625;0.07568359375;-6.9375;2.4375;27.5;
1441975649590178;0.4371337890625;-0.5208740234375;-0.5723876953125;-0.45831298828125;16.79029818574603;12.447439313079604;17.034827810983415;-0.986328125;0.111328125;0.07666015625;-8.25;2.0625;27.125;
1441975649612179;0.43597412109375;-0.52178955078125;-0.57464599609375;-0.45550537109375;16.752158727333285;12.47935303946528;17.07539407598434;-0.9794921875;0.10791015625;0.07373046875;-7.75;1.5;27.0625;
1441975649626180;0.434814453125;-0.522705078125;-0.5767822265625;-0.452880859375;16.71540354344093;12.507561957886637;17.11137917730645;-0.97314453125;0.11474609375;0.0712890625;-7.0;1.0625;26.6875;
1441975649649182;0.43365478515625;-0.5234375;-0.578857421875;-0.450439453125;16.680225092148603;12.52879444786157;17.140220645493688;-0.9755859375;0.119140625;0.06787109375;-6.6875;0.6875;26.0;
1441975649671183;0.43255615234375;-0.52423095703125;-0.58074951171875;-0.4482421875;16.64749088314776;12.548465470862602;17.166263152041846;-0.97412109375;0.12109375;0.07666015625;-6.625;0.125;25.1875;
1441975649687184;0.4315185546875;-0.52484130859375;-0.58251953125;-0.44622802734375;16.617305446023728;12.56310643658587;17.187106962258138;-0.9794921875;0.1337890625;0.06689453125;-5.4375;-0.4375;23.5625;
1441975649716185;0.43072509765625;-0.525146484375;-0.58416748046875;-0.4444580078125;16.591781958242382;12.571527762638818;17.20225941802828;-0.97998046875;0.14599609375;0.0654296875;-5.3125;-1.125;21.4375;
1441975649733186;0.43017578125;-0.525146484375;-0.585693359375;-0.44293212890625;16.570953051819398;12.574162871760631;17.212153707153288;-0.98486328125;0.14990234375;0.056640625;-6.1875;-1.8125;18.8125;
1441975649747187;0.42974853515625;-0.52490234375;-0.58697509765625;-0.4420166015625;16.556100968724685;12.567938297574479;17.21176456039729;-0.97607421875;0.15380859375;0.0576171875;-7.0;-2.75;16.0625;
1441975649769188;0.429443359375;-0.524658203125;-0.587646484375;-0.44158935546875;16.548267637377037;12.561724958045357;17.208568884660888;-0.9697265625;0.14697265625;0.06005859375;-5.75;-3.625;13.125;
1441975649792190;0.42926025390625;-0.52435302734375;-0.5880126953125;-0.441650390625;16.545683122180666;12.551829907402858;17.19991182451735;-0.970703125;0.142578125;0.056640625;-2.9375;-3.9375;9.875;
1441975649807191;0.42901611328125;-0.52410888671875;-0.58819580078125;-0.4420166015625;16.544932738840977;12.540280724715135;17.18782947326791;-0.96875;0.14990234375;0.05810546875;-1.25;-4.0625;6.6875;
1441975649829192;0.42919921875;-0.523681640625;-0.58795166015625;-0.44268798828125;16.552145244213587;12.52818024876741;17.174834435724325;-0.95068359375;0.1630859375;0.06396484375;0.1875;-4.0;4.0;
1441975649851193;0.4298095703125;-0.5228271484375;-0.587646484375;-0.44354248046875;16.56514078976329;12.509808871935725;17.157321320196743;-0.96484375;0.15625;0.052734375;0.25;-3.9375;0.625;
1441975649868194;0.43060302734375;-0.52166748046875;-0.5872802734375;-0.44451904296875;16.58132192926553;12.486162164962138;17.13541785544322;-0.970703125;0.15478515625;0.0595703125;-1.375;-3.8125;-2.0625;
1441975649889195;0.43182373046875;-0.52044677734375;-0.58660888671875;-0.4456787109375;16.60374248774611;12.463639762482838;17.11461967133863;-0.9658203125;0.15966796875;0.06396484375;-2.4375;-3.5625;-4.875;
1441975649911197;0.4332275390625;-0.5191650390625;-0.58563232421875;-0.44708251953125;16.63071771920524;12.439722341579625;17.091540699162685;-0.96484375;0.154296875;0.06103515625;-2.25;-2.625;-7.625;
1441975649928198;0.434814453125;-0.517822265625;-0.58447265625;-0.4486083984375;16.66093117130692;12.41474111277494;17.067216773065674;-0.96728515625;0.150390625;0.060546875;-1.5625;-2.0625;-10.0;
1441975649956199;0.4366455078125;-0.51641845703125;-0.5831298828125;-0.45025634765625;16.694862449004752;12.388793815278751;17.041916964576842;-0.9658203125;0.154296875;0.05517578125;-1.4375;-1.625;-12.0;
1441975649971200;0.43853759765625;-0.5150146484375;-0.58160400390625;-0.45196533203125;16.730637939943236;12.362529910321204;17.01577720900695;-0.96435546875;0.14306640625;0.0546875;-1.3125;-1.3125;-13.5625;
1441975649988201;0.44049072265625;-0.5135498046875;-0.58001708984375;-0.4537353515625;16.767594004273008;12.333546323743107;16.986917687808603;-0.9697265625;0.1435546875;0.0546875;-1.0;-0.75;-14.875;
1441975650009202;0.44256591796875;-0.51202392578125;-0.57843017578125;-0.45550537109375;16.805554929539053;12.302339051797407;16.95635689384625;-0.97412109375;0.1435546875;0.0576171875;-1.0;-0.25;-16.0;
1441975650039204;0.4447021484375;-0.51043701171875;-0.5767822265625;-0.45721435546875;16.8442113957276;12.26985461728629;16.924879303172112;-0.970703125;0.14306640625;0.05224609375;-1.5;-0.375;-16.75;
1441975650048204;0.4466552734375;-0.5089111328125;-0.5750732421875;-0.4591064453125;16.88214871039877;12.232583112392938;16.887209016566864;-0.97265625;0.130859375;0.04541015625;-1.6875;-0.4375;-16.9375;
1441975650071206;0.448486328125;-0.5076904296875;-0.57318115234375;-0.4610595703125;16.919680534480747;12.199043274227508;16.851334654140206;-0.9765625;0.126953125;0.05810546875;-0.5;-0.25;-17.25;
1441975650091207;0.45013427734375;-0.5067138671875;-0.5711669921875;-0.46307373046875;16.95607030969185;12.167274349180344;16.815477563531076;-0.9794921875;0.1279296875;0.05859375;1.4375;0.1875;-17.25;
1441975650108208;0.45166015625;-0.50579833984375;-0.5692138671875;-0.46490478515625;16.990169696952435;12.136912592163617;16.78121897194423;-0.97119140625;0.12939453125;0.05419921875;3.3125;0.375;-17.0;
1441975650129209;0.453125;-0.50494384765625;-0.5673828125;-0.46673583984375;17.02263644476201;12.104299801523794;16.74470252343422;-0.970703125;0.12744140625;0.0546875;3.375;0.5625;-16.3125;
1441975650152210;0.45440673828125;-0.5042724609375;-0.56561279296875;-0.4683837890625;17.0521085269437;12.076222888492605;16.712381779964858;-0.978515625;0.1171875;0.05615234375;3.3125;0.375;-15.0625;
1441975650168211;0.4554443359375;-0.50372314453125;-0.56402587890625;-0.46990966796875;17.07755965823916;12.048985074169725;16.68073073842968;-0.970703125;0.11083984375;0.0576171875;3.6875;0.5625;-13.4375;
1441975650190212;0.456298828125;-0.5032958984375;-0.56256103515625;-0.47125244140625;17.099782890344716;12.025365457647702;16.65270742508211;-0.97314453125;0.11279296875;0.06298828125;3.8125;0.6875;-11.9375;
1441975650211214;0.45697021484375;-0.503173828125;-0.561279296875;-0.4722900390625;17.117702889178556;12.013177557501363;16.636117025838505;-0.97119140625;0.11181640625;0.06201171875;4.0;0.6875;-10.3125;
1441975650228215;0.45745849609375;-0.50311279296875;-0.56005859375;-0.4732666015625;17.133376503190547;12.001883716458773;16.620078516732463;-0.96923828125;0.12109375;0.05810546875;4.3125;0.9375;-8.6875;
1441975650249216;0.457763671875;-0.503173828125;-0.55914306640625;-0.47393798828125;17.14426308757925;11.99716104518725;16.61149189867983;-0.97802734375;0.119140625;0.05908203125;4.25;1.0;-7.25;
1441975650272217;0.4580078125;-0.50341796875;-0.55828857421875;-0.4744873046875;17.153542384314058;11.99948938361232;16.609777983058688;-0.97412109375;0.13037109375;0.06982421875;3.6875;1.125;-5.6875;
1441975650288218;0.4581298828125;-0.50372314453125;-0.55755615234375;-0.474853515625;17.160327856546886;12.00626291591395;16.612866986505402;-0.96826171875;0.126953125;0.0595703125;3.75;1.25;-4.4375;
1441975650316220;0.45819091796875;-0.50408935546875;-0.5570068359375;-0.47509765625;17.16482892866516;12.015839444533416;16.61928183945761;-0.970703125;0.13134765625;0.06201171875;3.6875;1.375;-3.25;
1441975650331221;0.458251953125;-0.50439453125;-0.556640625;-0.47515869140625;17.167602012766114;12.02670081938216;16.628211928749007;-0.974609375;0.1376953125;0.0615234375;3.0625;1.375;-2.4375;
1441975650348222;0.4583740234375;-0.50457763671875;-0.556396484375;-0.47509765625;17.169870642243644;12.036520643929256;16.637330612792997;-0.9775390625;0.13818359375;0.0654296875;2.0;1.4375;-1.625;
1441975650369223;0.45831298828125;-0.50482177734375;-0.5562744140625;-0.47509765625;17.169794475327176;12.044170189269847;16.64375010821272;-0.9755859375;0.1279296875;0.064453125;0.625;1.125;-0.5625;
1441975650393224;0.4581298828125;-0.505126953125;-0.55609130859375;-0.47515869140625;17.169214230318115;12.051755094484342;16.64923162262436;-0.98291015625;0.1259765625;0.0703125;1.25;0.6875;0.3125;
1441975650408225;0.457763671875;-0.50555419921875;-0.55609130859375;-0.47509765625;17.16521974994365;12.062820039034559;16.65819315009495;-0.97607421875;0.11572265625;0.068359375;2.125;0.625;1.4375;
1441975650430226;0.45733642578125;-0.5059814453125;-0.55621337890625;-0.47491455078125;17.15948402248844;12.075230298006488;16.66902869922478;-0.97216796875;0.12548828125;0.07275390625;2.25;0.4375;2.1875;
1441975650451227;0.4569091796875;-0.50634765625;-0.556396484375;-0.47467041015625;17.15324029055281;12.086710365629092;16.6794626828796;-0.97607421875;0.126953125;0.07373046875;1.6875;0.3125;3.0625;
1441975650468228;0.45648193359375;-0.5067138671875;-0.55682373046875;-0.47418212890625;17.144503471358227;12.101604365980293;16.694712990078823;-0.96826171875;0.12548828125;0.07568359375;1.125;0.5;3.4375;
1441975650489230;0.4561767578125;-0.507080078125;-0.5572509765625;-0.4736328125;17.136552879620066;12.11852109632329;16.71250916904555;-0.95849609375;0.13818359375;0.08056640625;0.0;0.875;4.0625;
1441975650519231;0.45587158203125;-0.50738525390625;-0.5577392578125;-0.47296142578125;17.12789535351009;12.135787362983846;16.731362077586812;-0.9521484375;0.13134765625;0.078125;-0.75;1.25;4.4375;
1441975650528232;0.45562744140625;-0.50799560546875;-0.5579833984375;-0.4722900390625;17.120775043151948;12.163657129337196;16.759410108228927;-0.94677734375;0.13427734375;0.0849609375;-1.25;1.6875;4.9375;
1441975650549233;0.45538330078125;-0.50848388671875;-0.55804443359375;-0.471923828125;17.116125903277716;12.182661288434737;16.77754047338322;-0.95361328125;0.13525390625;0.0703125;0.0;2.3125;4.6875;
1441975650571234;0.4547119140625;-0.50927734375;-0.557861328125;-0.47198486328125;17.110402663926724;12.198858886559911;16.788828332900422;-0.96630859375;0.10986328125;0.0673828125;1.125;1.4375;5.0;
1441975650596236;0.45355224609375;-0.51043701171875;-0.55743408203125;-0.4722900390625;17.102405787203914;12.217596372976562;16.79880307609052;-0.97705078125;0.091796875;0.0703125;5.4375;0.625;6.3125;
1441975650609236;0.4521484375;-0.5118408203125;-0.557373046875;-0.47222900390625;17.08804376301758;12.244870602141338;16.818014655400418;-0.9658203125;0.0947265625;0.07958984375;9.0;0.375;7.375;
1441975650632238;0.45086669921875;-0.5130615234375;-0.557861328125;-0.4715576171875;17.069115033494253;12.275432702071384;16.844726708218275;-0.95751953125;0.1318359375;0.07568359375;8.625;0.3125;8.1875;
1441975650655239;0.450439453125;-0.51361083984375;-0.558349609375;-0.47076416015625;17.058187167905245;12.2977106998975;16.86788820394475;-0.96044921875;0.19091796875;0.07861328125;3.875;1.1875;7.0;
1441975650669240;0.4501953125;-0.513671875;-0.5587158203125;-0.470458984375;17.052459159904597;12.30000570046619;16.871240121682522;-0.984375;0.17626953125;0.06298828125;-0.8125;0.75;4.75;
1441975650691241;0.44927978515625;-0.5146484375;-0.55804443359375;-0.47119140625;17.04993742157479;12.308083145212354;16.8698400454723;-0.98095703125;0.12353515625;0.07861328125;-0.5;0.125;4.5625;
1441975650707242;0.44757080078125;-0.5166015625;-0.55633544921875;-0.47265625;17.04843809761722;12.328980992498193;16.871088842555857;-0.974609375;0.09521484375;0.08837890625;9.75;0.8125;4.6875;
1441975650729243;0.44537353515625;-0.51898193359375;-0.5546875;-0.47406005859375;17.041306263721793;12.356906118463161;16.8770836943472;-0.98876953125;0.07958984375;0.07421875;20.0625;0.4375;5.6875;
1441975650752245;0.44342041015625;-0.52044677734375;-0.55438232421875;-0.47454833984375;17.025847909940744;12.369564401875909;16.877636696251887;-1.0107421875;0.10888671875;0.06005859375;22.125;-0.9375;7.0625;
1441975650775246;0.442138671875;-0.52099609375;-0.5552978515625;-0.47412109375;17.006322959043523;12.371728762110584;16.878397997662212;-0.98583984375;0.140625;0.072265625;12.1875;-2.6875;8.1875;
1441975650789247;0.44140625;-0.52099609375;-0.5565185546875;-0.473388671875;16.989374435743965;12.368344724362938;16.878525325167033;-0.95703125;0.1640625;0.0791015625;1.3125;-2.5625;8.3125;
1441975650811248;0.44085693359375;-0.52093505859375;-0.55731201171875;-0.4730224609375;16.978324743049622;12.36211970690178;16.874232219224357;-0.95703125;0.1787109375;0.08935546875;-3.1875;-1.625;6.125;
1441975650834249;0.44049072265625;-0.5208740234375;-0.557861328125;-0.47283935546875;16.971084761710955;12.356186353803496;16.86952807625172;-0.9599609375;0.18115234375;0.08251953125;-2.1875;-1.625;3.4375;
1441975650850250;0.4403076171875;-0.520751953125;-0.55816650390625;-0.4727783203125;16.96759177910232;12.35031184442431;16.864531743961166;-0.94189453125;0.1826171875;0.08203125;-1.0625;-1.1875;1.125;
1441975650871251;0.440673828125;-0.5205078125;-0.5582275390625;-0.47259521484375;16.97005948466672;12.350403671651735;16.86708131874266;-0.9306640625;0.1904296875;0.0791015625;-1.0;-0.5625;-1.1875;
1441975650887252;0.44183349609375;-0.519287109375;-0.55859375;-0.472412109375;16.979203546211465;12.331132084416684;16.856234704124063;-0.95654296875;0.2060546875;0.05419921875;-2.9375;-0.3125;-4.1875;
1441975650912254;0.443603515625;-0.5172119140625;-0.5594482421875;-0.47198486328125;16.99104663353298;12.296388228211878;16.836233613702376;-0.95361328125;0.18212890625;0.048828125;-9.125;-1.0625;-6.625;
1441975650933255;0.4454345703125;-0.51513671875;-0.5601806640625;-0.4716796875;17.004563637649568;12.260113660011639;16.814171301419393;-0.94189453125;0.15771484375;0.06005859375;-14.9375;-1.3125;-7.5;
1441975650947256;0.44732666015625;-0.51336669921875;-0.56085205078125;-0.4710693359375;17.017196668220315;12.23758768139154;16.805854301712593;-0.94384765625;0.15380859375;0.07373046875;-14.5;-0.375;-7.9375;
1441975650970257;0.44964599609375;-0.51129150390625;-0.56182861328125;-0.469970703125;17.030202699047578;12.217595790926802;16.804456760852897;-0.94775390625;0.1806640625;0.06591796875;-14.75;0.875;-8.4375;
1441975650993258;0.45281982421875;-0.508544921875;-0.56298828125;-0.46844482421875;17.04896320153163;12.194250165326432;16.80584436999141;-0.9716796875;0.203125;0.0517578125;-19.1875;1.375;-10.0;
1441975651021260;0.4561767578125;-0.50537109375;-0.56414794921875;-0.46722412109375;17.07113808731858;12.154336203665197;16.791530666647382;-0.9912109375;0.177734375;0.0380859375;-25.0;1.5;-10.25;
1441975651036261;0.45892333984375;-0.5028076171875;-0.56488037109375;-0.4664306640625;17.09133922828362;12.119000869547687;16.77582586699126;-0.9794921875;0.11767578125;0.05517578125;-26.0;1.75;-9.1875;
1441975651051262;0.4608154296875;-0.50140380859375;-0.56512451171875;-0.46575927734375;17.105930791288205;12.108858469044687;16.777775477578118;-0.9658203125;0.0888671875;0.07177734375;-19.5625;2.375;-6.875;
1441975651074263;0.4625244140625;-0.5003662109375;-0.56561279296875;-0.464599609375;17.114993295792395;12.115943976229586;16.797482136774406;-0.97509765625;0.107421875;0.0654296875;-11.9375;3.25;-4.5;
1441975651091264;0.464599609375;-0.49884033203125;-0.56683349609375;-0.462646484375;17.120385278761592;12.124268782822211;16.82527950881887;-0.9990234375;0.1328125;0.04736328125;-12.5625;3.125;-2.375;
1441975651111265;0.46661376953125;-0.4967041015625;-0.56890869140625;-0.46038818359375;17.11959569203307;12.114572323013059;16.839974629256133;-1.00537109375;0.126953125;0.03271484375;-19.5625;2.1875;0.25;
1441975651135267;0.46826171875;-0.4949951171875;-0.5709228515625;-0.4581298828125;17.115321629441937;12.113981102932032;16.86132151976566;-0.98876953125;0.09619140625;0.06396484375;-24.3125;1.4375;4.0;
1441975651158268;0.468994140625;-0.49420166015625;-0.57257080078125;-0.45611572265625;17.10491551141689;12.128299758155446;16.89058671279334;-0.9658203125;0.078125;0.068359375;-21.375;1.625;7.3125;
1441975651171269;0.4691162109375;-0.494140625;-0.57427978515625;-0.45391845703125;17.08674753738145;12.159482335855676;16.933565122967014;-0.9658203125;0.08837890625;0.0712890625;-14.375;1.8125;10.0;
1441975651194270;0.46917724609375;-0.494140625;-0.5762939453125;-0.4512939453125;17.064188059050807;12.196244987298734;16.98389596133644;-0.970703125;0.11279296875;0.05810546875;-11.375;1.0625;12.625;
1441975651218271;0.4691162109375;-0.4940185546875;-0.5784912109375;-0.44866943359375;17.039507478297203;12.225115859545436;17.026874157442037;-0.9697265625;0.12744140625;0.0439453125;-12.9375;0.1875;14.875;
1441975651247273;0.46868896484375;-0.49395751953125;-0.58062744140625;-0.4464111328125;17.01336799813207;12.243970470885955;17.057387865890107;-0.96923828125;0.1171875;0.0478515625;-14.0625;-0.5625;16.4375;
1441975651261274;0.46771240234375;-0.49456787109375;-0.582275390625;-0.444580078125;16.985895426458587;12.26919675817714;17.088133992260843;-0.9697265625;0.1015625;0.06640625;-10.875;-1.1875;17.5625;
1441975651278275;0.46636962890625;-0.4957275390625;-0.5836181640625;-0.4429931640625;16.956895409980646;12.300712789482878;17.12094549413284;-0.97119140625;0.10693359375;0.06787109375;-4.9375;-1.375;18.1875;
1441975651291275;0.46478271484375;-0.4970703125;-0.58489990234375;-0.44134521484375;16.925494534698796;12.33421752865637;17.15454834091549;-0.9716796875;0.1220703125;0.06201171875;-0.4375;-1.25;18.5;
1441975651314277;0.46343994140625;-0.498291015625;-0.5863037109375;-0.4395751953125;16.894926943366286;12.366060438758849;17.188223681977057;-0.97314453125;0.142578125;0.06640625;0.4375;-1.125;18.5;
1441975651330278;0.4625244140625;-0.4991455078125;-0.58782958984375;-0.43756103515625;16.866870695433327;12.394980460543982;17.222319945804937;-0.96875;0.1552734375;0.0625;-1.3125;-0.8125;17.75;
1441975651351279;0.4619140625;-0.4996337890625;-0.58935546875;-0.435546875;16.842199224650226;12.417601609843755;17.252059806099272;-0.96142578125;0.15966796875;0.06005859375;-4.5625;-0.1875;16.625;
1441975651367280;0.461669921875;-0.49993896484375;-0.59075927734375;-0.43365478515625;16.822179461453864;12.437755587764379;17.28018170232174;-0.95263671875;0.1630859375;0.07177734375;-6.625;0.8125;14.8125;
1441975651390281;0.461669921875;-0.50006103515625;-0.59185791015625;-0.431884765625;16.807073221449063;12.456788821895142;17.30720644630106;-0.9462890625;0.16748046875;0.07177734375;-7.25;1.5625;12.6875;
1441975651411282;0.46197509765625;-0.5;-0.5927734375;-0.430419921875;16.79736230887972;12.471385569852831;17.32975379780698;-0.958984375;0.17138671875;0.0654296875;-7.375;2.125;10.125;
1441975651427283;0.46258544921875;-0.49969482421875;-0.593505859375;-0.4290771484375;16.792477905258824;12.483596843766717;17.350618600575416;-0.95947265625;0.1748046875;0.06982421875;-7.5;2.4375;7.4375;
1441975651458285;0.4635009765625;-0.4990234375;-0.59405517578125;-0.4281005859375;16.79391376254823;12.487636857484757;17.36364097807308;-0.955078125;0.17724609375;0.0654296875;-8.375;2.75;4.625;
1441975651471286;0.464599609375;-0.49835205078125;-0.59423828125;-0.42742919921875;16.800458996799733;12.49233184764477;17.375891197283536;-0.94873046875;0.16650390625;0.0673828125;-8.5625;2.8125;2.0625;
1441975651487287;0.46575927734375;-0.4976806640625;-0.59417724609375;-0.42706298828125;16.810388970577435;12.495487285150668;17.385173925193776;-0.95263671875;0.16259765625;0.0634765625;-7.125;2.8125;-0.3125;
1441975651510288;0.46710205078125;-0.49664306640625;-0.5941162109375;-0.4268798828125;16.823758498114685;12.490468546643974;17.38733333983909;-0.96533203125;0.16552734375;0.06103515625;-6.125;2.9375;-2.5;
1441975651531289;0.4686279296875;-0.49542236328125;-0.59393310546875;-0.4268798828125;16.84074323740869;12.481840540895323;17.386044726306555;-0.9609375;0.16455078125;0.0673828125;-6.875;2.75;-4.625;
1441975651554291;0.47015380859375;-0.4942626953125;-0.59356689453125;-0.4271240234375;16.859778120639135;12.472287499650147;17.382401542349946;-0.95751953125;0.16015625;0.06640625;-7.1875;2.4375;-6.5;
1441975651570291;0.47174072265625;-0.49310302734375;-0.59295654296875;-0.42755126953125;16.881658934914626;12.462708858798523;17.377679121985636;-0.953125;0.15966796875;0.07568359375;-6.0;3.125;-7.8125;
1441975651591293;0.473388671875;-0.491943359375;-0.59228515625;-0.42791748046875;16.90413642806313;12.455119117991094;17.375131852063173;-0.95068359375;0.15869140625;0.07373046875;-4.8125;3.5625;-9.25;
1441975651614294;0.4752197265625;-0.4906005859375;-0.59173583984375;-0.42822265625;16.92756615591815;12.44482974346397;17.371446557254462;-0.95849609375;0.16455078125;0.06689453125;-5.0625;3.5;-10.1875;
1441975651630295;0.477294921875;-0.4888916015625;-0.59136962890625;-0.42840576171875;16.952353310588684;12.428765214139004;17.36462278069029;-0.9619140625;0.166015625;0.0673828125;-6.875;3.5625;-10.9375;
1441975651651296;0.4793701171875;-0.4871826171875;-0.59088134765625;-0.42864990234375;16.97818781371197;12.412467061691729;17.357049973717626;-0.9599609375;0.154296875;0.064453125;-9.125;3.4375;-11.375;
1441975651674297;0.481201171875;-0.48565673828125;-0.59039306640625;-0.4290771484375;17.002294497545876;12.393820165148384;17.345347932921513;-0.9609375;0.14697265625;0.06298828125;-8.9375;3.125;-11.625;
1441975651690298;0.48284912109375;-0.4842529296875;-0.5897216796875;-0.4296875;17.02654027435177;12.374084433550351;17.330643927653192;-0.9638671875;0.15234375;0.06787109375;-6.8125;2.9375;-11.75;
1441975651719300;0.48431396484375;-0.4830322265625;-0.58905029296875;-0.43035888671875;17.048999693127552;12.354746954187725;17.31509825105938;-0.96533203125;0.1474609375;0.06640625;-5.25;2.5625;-11.75;
1441975651734301;0.48565673828125;-0.48193359375;-0.58837890625;-0.43109130859375;17.07033677669189;12.335027604813705;17.298280967764267;-0.97412109375;0.14892578125;0.06884765625;-4.125;2.1875;-11.5;
1441975651750302;0.48681640625;-0.48089599609375;-0.587646484375;-0.43182373046875;17.090436506198444;12.314908046053533;17.28023100786562;-0.97412109375;0.150390625;0.06787109375;-3.0625;1.9375;-11.125;
1441975651773303;0.48785400390625;-0.47998046875;-0.5869140625;-0.4326171875;17.10940992105321;12.294434000731227;17.260937903137236;-0.9765625;0.14404296875;0.06591796875;-2.1875;1.625;-10.5;
1441975651794304;0.48883056640625;-0.47918701171875;-0.5863037109375;-0.43328857421875;17.12619028731618;12.276824691060046;17.244669751663892;-0.97509765625;0.13623046875;0.06689453125;-1.5625;1.3125;-9.6875;
1441975651810305;0.489501953125;-0.47857666015625;-0.5858154296875;-0.433837890625;17.1387081287188;12.261514043085938;17.230029539990284;-0.97412109375;0.13623046875;0.060546875;-1.375;1.0625;-8.5625;
1441975651833306;0.49005126953125;-0.47808837890625;-0.58538818359375;-0.434326171875;17.14923628011511;12.248401597144365;17.217237945062745;-0.9736328125;0.13916015625;0.06640625;-0.875;0.875;-7.1875;
1441975651854308;0.49041748046875;-0.477783203125;-0.58502197265625;-0.434814453125;17.157353854527308;12.237227535163848;17.2054966999642;-0.97314453125;0.1396484375;0.06591796875;-0.5;0.75;-6.0;
1441975651870309;0.490478515625;-0.47772216796875;-0.584716796875;-0.43524169921875;17.161706680525132;12.229991664493594;17.196484941706714;-0.97705078125;0.13134765625;0.0625;0.375;0.3125;-4.5625;
1441975651893310;0.49029541015625;-0.47784423828125;-0.58441162109375;-0.4356689453125;17.16360763565004;12.225149388278302;17.188657949317424;-0.9677734375;0.1318359375;0.06689453125;1.5625;0.0;-3.0;
1441975651914311;0.48992919921875;-0.4781494140625;-0.58428955078125;-0.4359130859375;17.16159596923186;12.225418634499123;17.185942410498207;-0.95849609375;0.13671875;0.06640625;2.8125;-0.1875;-1.8125;
1441975651930312;0.4896240234375;-0.478515625;-0.58416748046875;-0.43609619140625;17.15965888337112;12.229382960352124;17.187082652386938;-0.95751953125;0.14794921875;0.06787109375;3.125;-0.375;-1.0;
1441975651953313;0.48919677734375;-0.478759765625;-0.58416748046875;-0.4361572265625;17.155827548217324;12.230201881513976;17.18583233389301;-0.96484375;0.150390625;0.05859375;2.5625;-0.4375;-0.4375;
1441975651974315;0.4888916015625;-0.47906494140625;-0.584228515625;-0.4361572265625;17.152124907874146;12.234517993721957;17.18856157057251;-0.96142578125;0.15576171875;0.0654296875;1.9375;-0.5;-0.25;
1441975651990315;0.48858642578125;-0.47930908203125;-0.584228515625;-0.43621826171875;17.14924848325595;12.23653139796995;17.188827174218325;-0.96240234375;0.15673828125;0.068359375;1.6875;-0.125;-0.3125;
1441975652013317;0.48828125;-0.4794921875;-0.58428955078125;-0.436279296875;17.146129011872805;12.236165700279287;17.18706317529436;-0.94677734375;0.1513671875;0.0693359375;1.4375;-0.125;-0.3125;
1441975652034318;0.4881591796875;-0.47979736328125;-0.5843505859375;-0.43603515625;17.14294715467579;12.247882328918005;17.19843022020832;-0.95068359375;0.1533203125;0.07421875;1.5;0.1875;-0.1875;
1441975652050319;0.48834228515625;-0.4794921875;-0.58477783203125;-0.43548583984375;17.14027937855359;12.24903059198003;17.20382887401916;-0.9521484375;0.166015625;0.06591796875;0.0625;1.0;-0.4375;
1441975652073320;0.48870849609375;-0.47894287109375;-0.58551025390625;-0.43475341796875;17.13697656886645;12.24599297280823;17.207649893498584;-0.93408203125;0.15625;0.076171875;-4.125;1.25;-0.625;
1441975652095321;0.4892578125;-0.47845458984375;-0.58612060546875;-0.433837890625;17.13507418605859;12.252054215646165;17.221108321864445;-0.923828125;0.15771484375;0.08251953125;-6.6875;1.5;-0.5625;
1441975652110322;0.489990234375;-0.47784423828125;-0.58685302734375;-0.43267822265625;17.133191962466856;12.260760987806458;17.2391492949732;-0.927734375;0.16259765625;0.078125;-7.125;2.5;-0.5;
1441975652133324;0.49102783203125;-0.47674560546875;-0.5880126953125;-0.43115234375;17.130827359918648;12.262779594148622;17.255074911430395;-0.93359375;0.16357421875;0.06689453125;-9.3125;2.8125;-0.625;
1441975652154325;0.492431640625;-0.475341796875;-0.58929443359375;-0.4293212890625;17.130230901224554;12.265954878268738;17.275332407596558;-0.93505859375;0.16748046875;0.07666015625;-13.6875;2.8125;-0.4375;
1441975652170326;0.4940185546875;-0.47381591796875;-0.5906982421875;-0.4273681640625;17.130120524875082;12.269041920299115;17.297057406718565;-0.9384765625;0.16162109375;0.06982421875;-17.125;3.375;-0.5;
1441975652199327;0.49554443359375;-0.47216796875;-0.5921630859375;-0.4254150390625;17.129498172858398;12.26757994692534;17.314613855746813;-0.94921875;0.16015625;0.0703125;-18.5;3.4375;-0.6875;
1441975652214328;0.4970703125;-0.47052001953125;-0.593505859375;-0.4234619140625;17.129706916692964;12.267691455403055;17.333428981380624;-0.94677734375;0.16064453125;0.0712890625;-18.8125;3.125;-0.75;
1441975652230329;0.49847412109375;-0.46893310546875;-0.59490966796875;-0.42156982421875;17.128606108519094;12.265922479104852;17.34982413339839;-0.943359375;0.15673828125;0.06494140625;-18.6875;2.75;-0.625;
1441975652260331;0.499755859375;-0.46759033203125;-0.59619140625;-0.4197998046875;17.12709595031267;12.267938075229763;17.368223711450472;-0.93701171875;0.15283203125;0.0693359375;-17.9375;2.625;-0.25;
1441975652274332;0.5009765625;-0.4661865234375;-0.5975341796875;-0.41790771484375;17.124408436765773;12.269628357104759;17.386876760603034;-0.9375;0.1630859375;0.06005859375;-16.5625;2.25;-0.3125;
1441975652290333;0.50213623046875;-0.46490478515625;-0.598876953125;-0.4161376953125;17.121342256386168;12.270994161185984;17.404277458665568;-0.93798828125;0.1669921875;0.0615234375;-16.625;2.0625;0.0;
1441975652313334;0.5030517578125;-0.46392822265625;-0.599853515625;-0.4146728515625;17.119092339148352;12.27549542490506;17.421327746247492;-0.92333984375;0.15869140625;0.0615234375;-16.0;2.0;0.125;
1441975652334335;0.50341796875;-0.4632568359375;-0.600830078125;-0.41357421875;17.11310041599258;12.273707271130446;17.428564844806782;-0.91796875;0.14794921875;0.06494140625;-12.5;2.0625;0.9375;
1441975652356336;0.50341796875;-0.4630126953125;-0.60162353515625;-0.4127197265625;17.105110790394424;12.275713734032886;17.436072582633113;-0.90966796875;0.138671875;0.06884765625;-8.6875;0.6875;2.375;
1441975652373337;0.503173828125;-0.4630126953125;-0.6024169921875;-0.41180419921875;17.094188180864492;12.282333717689019;17.446995161825917;-0.9072265625;0.146484375;0.06103515625;-5.625;-0.5;2.9375;
1441975652394339;0.50286865234375;-0.462890625;-0.6033935546875;-0.410888671875;17.081973727305567;12.282804872532694;17.452466614990502;-0.90966796875;0.15673828125;0.0537109375;-4.625;-1.125;4.0625;
1441975652410339;0.50238037109375;-0.4627685546875;-0.60430908203125;-0.41021728515625;17.06976237202268;12.277076548278062;17.45034569360788;-0.90966796875;0.142578125;0.0556640625;-4.8125;-2.0;5.1875;
1441975652433341;0.50128173828125;-0.46331787109375;-0.60498046875;-0.40997314453125;17.054023819798882;12.27550064190489;17.446720067710157;-0.87646484375;0.099609375;0.06787109375;-3.375;-2.25;7.5;
1441975652454342;0.4991455078125;-0.46490478515625;-0.60552978515625;-0.4100341796875;17.028954443554976;12.283201812559353;17.44516425464616;-0.8330078125;0.0791015625;0.06689453125;2.1875;-3.375;10.25;
1441975652470343;0.49609375;-0.46728515625;-0.6060791015625;-0.41021728515625;16.994730256076128;12.297432011659993;17.444903059050958;-0.802734375;0.09130859375;0.068359375;9.6875;-4.5625;13.5625;
1441975652493344;0.49249267578125;-0.47003173828125;-0.60662841796875;-0.41058349609375;16.955831056933818;12.310734785131702;17.44056589926642;-0.76953125;0.08984375;0.05419921875;14.5;-6.9375;17.9375;
1441975652514345;0.4879150390625;-0.47357177734375;-0.6072998046875;-0.41094970703125;16.90599187403165;12.33019836341601;17.43768184588349;-0.712890625;0.05859375;0.048828125;17.8125;-9.0;21.5625;
1441975652530346;0.48236083984375;-0.47796630859375;-0.60821533203125;-0.41119384765625;16.843695103796325;12.356954898263236;17.437876504551397;-0.64990234375;0.0537109375;0.05712890625;22.625;-10.3125;26.9375;
1441975652553348;0.4759521484375;-0.48291015625;-0.60919189453125;-0.411376953125;16.772325674436196;12.386141912584575;17.436885830930528;-0.587890625;0.056640625;0.0595703125;26.8125;-11.125;32.125;
1441975652574349;0.46844482421875;-0.4891357421875;-0.61016845703125;-0.41119384765625;16.686606911166713;12.433049932222486;17.447839993831415;-0.5537109375;0.0625;0.06689453125;30.875;-12.375;36.3125;
1441975652590350;0.46075439453125;-0.49566650390625;-0.6114501953125;-0.41009521484375;16.592287755289206;12.488983773005879;17.46998590121105;-0.537109375;0.107421875;0.07666015625;36.4375;-11.8125;41.125;
1441975652612351;0.4527587890625;-0.5013427734375;-0.6136474609375;-0.40887451171875;16.492079075005563;12.51847260315987;17.470273993144065;-0.5419921875;0.1396484375;0.05712890625;34.625;-11.0;45.0625;
1441975652634352;0.4442138671875;-0.506591796875;-0.61676025390625;-0.4071044921875;16.3808184874226;12.535079675497359;17.461621918141162;-0.552734375;0.12939453125;0.064453125;29.5625;-16.125;48.0625;
1441975652650353;0.435546875;-0.51202392578125;-0.6199951171875;-0.40472412109375;16.26437829333377;12.558131810862989;17.460669917365273;-0.537109375;0.16064453125;0.07421875;25.125;-19.3125;50.375;
1441975652672354;0.42742919921875;-0.5167236328125;-0.62359619140625;-0.40185546875;16.150058012840685;12.575229908170138;17.459936889046883;-0.52294921875;0.20166015625;0.0771484375;24.3125;-17.5625;52.0;
1441975652694356;0.41986083984375;-0.5201416015625;-0.62786865234375;-0.3988037109375;16.03928029242995;12.575493731441536;17.45014998491139;-0.5322265625;0.23095703125;0.0771484375;17.75;-17.125;49.75;
1441975652710357;0.4127197265625;-0.522216796875;-0.6329345703125;-0.3955078125;15.930185190530347;12.55938015877899;17.432180560289687;-0.55419921875;0.25048828125;0.09423828125;9.4375;-18.75;47.375;
1441975652732358;0.40655517578125;-0.524169921875;-0.63751220703125;-0.3919677734375;15.830869123209617;12.552661837337666;17.426064145098028;-0.56787109375;0.27294921875;0.12548828125;1.5;-19.4375;44.9375;
1441975652755359;0.40069580078125;-0.52642822265625;-0.64111328125;-0.3890380859375;15.74175726223886;12.552655513891803;17.421989260085706;-0.57861328125;0.2841796875;0.1337890625;0.0;-14.4375;42.125;
1441975652770360;0.3958740234375;-0.52874755859375;-0.6436767578125;-0.3865966796875;15.669218174369657;12.560253420346141;17.423800192588832;-0.59912109375;0.2890625;0.15625;5.0625;-11.0;38.0;
1441975652792361;0.392333984375;-0.5296630859375;-0.64715576171875;-0.38311767578125;15.600703256615958;12.559464355479642;17.430812573539335;-0.6357421875;0.24853515625;0.1064453125;6.3125;-10.0625;35.25;
1441975652815363;0.389404296875;-0.5286865234375;-0.65203857421875;-0.379150390625;15.532180733452428;12.536745434346006;17.428844282298158;-0.6875;0.33056640625;0.1025390625;-7.375;-8.125;30.625;
1441975652830364;0.38726806640625;-0.527099609375;-0.65673828125;-0.37542724609375;15.474087021798798;12.510802347927687;17.426513132638554;-0.77197265625;0.39599609375;0.15576171875;-20.5;-9.4375;28.3125;
1441975652852365;0.3865966796875;-0.5250244140625;-0.66058349609375;-0.37225341796875;15.436881875096084;12.48675293461506;17.427586170128578;-0.90234375;0.45166015625;0.16064453125;-24.0;-9.625;23.75;
1441975652875366;0.38690185546875;-0.52056884765625;-0.665771484375;-0.36895751953125;15.405997372260614;12.436484391330696;17.416648162934763;-1.056640625;0.4130859375;0.10205078125;-26.375;-10.4375;21.5;
1441975652896367;0.38623046875;-0.51611328125;-0.671142578125;-0.36627197265625;15.368709324927021;12.37930339575077;17.39477980882539;-1.0712890625;0.330078125;0.1474609375;-39.9375;-12.6875;22.75;
1441975652912368;0.38385009765625;-0.51287841796875;-0.67578125;-0.36468505859375;15.322995634819405;12.327229028109834;17.364148027725253;-0.99267578125;0.26806640625;0.158203125;-36.125;-17.75;25.25;
1441975652935370;0.38092041015625;-0.5115966796875;-0.678955078125;-0.36370849609375;15.278729342087466;12.2971475719993;17.34196532870399;-0.953125;0.302734375;0.197265625;-22.9375;-21.125;24.1875;
1441975652964371;0.37939453125;-0.51092529296875;-0.680908203125;-0.36260986328125;15.251157416757302;12.283812995633712;17.335457371191573;-1.00244140625;0.3857421875;0.166015625;-10.4375;-20.75;21.5;
1441975652981372;0.3787841796875;-0.50787353515625;-0.6842041015625;-0.361328125;15.228295567923322;12.24525928835628;17.317985088632835;-1.1025390625;0.41162109375;0.11279296875;-9.9375;-16.375;18.375;
1441975652996373;0.3770751953125;-0.50531005859375;-0.6873779296875;-0.36065673828125;15.198170836687414;12.206145292570831;17.293199155400792;-1.11279296875;0.369140625;0.16552734375;-23.125;-17.0625;17.125;
1441975653016374;0.373291015625;-0.50531005859375;-0.689208984375;-0.361083984375;15.157051965973338;12.186647548339014;17.2671651269141;-1.06689453125;0.29345703125;0.208984375;-15.3125;-19.1875;21.9375;
1441975653032375;0.36962890625;-0.5067138671875;-0.6900634765625;-0.361328125;15.118740726558716;12.18634658854886;17.254100860521564;-1.0390625;0.33837890625;0.22509765625;5.0625;-21.8125;23.25;
1441975653063377;0.3663330078125;-0.50787353515625;-0.69110107421875;-0.3609619140625;15.080315971774471;12.18740454027109;17.246598040717767;-1.048828125;0.388671875;0.18994140625;11.125;-18.125;22.4375;
1441975653078378;0.36260986328125;-0.50933837890625;-0.69183349609375;-0.36126708984375;15.042314390890466;12.188059204743508;17.23356688490427;-1.1337890625;0.501953125;0.20361328125;6.125;-16.5;19.5;
1441975653092378;0.35845947265625;-0.51043701171875;-0.693115234375;-0.36138916015625;14.997383351919435;12.183404461081906;17.21730287387171;-1.18701171875;0.48681640625;0.23046875;11.9375;-18.4375;21.5;
1441975653115380;0.3543701171875;-0.51153564453125;-0.69488525390625;-0.36041259765625;14.945300806174354;12.182956055691069;17.210242912845107;-1.12060546875;0.5068359375;0.2578125;9.5625;-18.9375;20.9375;
1441975653136381;0.35015869140625;-0.51409912109375;-0.696044921875;-0.35870361328125;14.889510798255932;12.20148172080806;17.2178026021778;-1.03271484375;0.5322265625;0.27685546875;6.0625;-14.5;22.625;
1441975653152382;0.34716796875;-0.51593017578125;-0.69744873046875;-0.35626220703125;14.841011892384241;12.218235606380848;17.232249646350084;-1.0546875;0.625;0.24658203125;9.875;-10.6875;23.4375;
1441975653175383;0.34442138671875;-0.51837158203125;-0.69769287109375;-0.35491943359375;14.804830088677523;12.23960435597297;17.243305963812347;-1.1064453125;0.705078125;0.2548828125;1.75;-6.25;19.5625;
1441975653196384;0.34100341796875;-0.52142333984375;-0.69671630859375;-0.35565185546875;14.777908033915157;12.25955319742318;17.23912148998709;-1.16943359375;0.7275390625;0.2275390625;8.0625;-7.5;14.625;
1441975653212385;0.33929443359375;-0.52288818359375;-0.6964111328125;-0.355712890625;14.762143312053503;12.269690154271625;17.2388572386442;-1.14013671875;0.7158203125;0.21484375;19.5;-12.9375;7.4375;
1441975653235387;0.338623046875;-0.52392578125;-0.69610595703125;-0.35552978515625;14.755094485333773;12.279286903911814;17.24303927135996;-1.01025390625;0.658203125;0.23291015625;7.8125;-5.5;2.6875;
1441975653256388;0.336181640625;-0.525390625;-0.6959228515625;-0.35589599609375;14.733722778395604;12.28604680410243;17.236733440913177;-1.04296875;0.64404296875;0.23095703125;3.9375;-2.0625;1.3125;
1441975653272389;0.33355712890625;-0.52728271484375;-0.69549560546875;-0.3564453125;14.71215287375695;12.296144549070243;17.230618107510672;-1.12646484375;0.72412109375;0.2724609375;10.1875;-8.875;4.625;
1441975653295390;0.33062744140625;-0.53076171875;-0.6934814453125;-0.35797119140625;14.698139958633632;12.320776094923119;17.225595821586598;-1.05517578125;0.65087890625;0.240234375;13.25;-9.75;6.625;
1441975653316391;0.32757568359375;-0.53497314453125;-0.69085693359375;-0.359619140625;14.685565690097553;12.353123613909295;17.223513018479903;-1.0234375;0.62841796875;0.20263671875;26.3125;-9.125;3.9375;
1441975653332392;0.32476806640625;-0.5369873046875;-0.69024658203125;-0.3602294921875;14.663541360485262;12.364244465799285;17.216754178828523;-1.00439453125;0.62451171875;0.1669921875;30.5625;-8.875;4.25;
1441975653355394;0.320556640625;-0.5401611328125;-0.689697265625;-0.36029052734375;14.624132713472065;12.384476269657975;17.213375375867425;-0.98779296875;0.60888671875;0.2158203125;15.5;-9.75;8.1875;
1441975653376395;0.31646728515625;-0.54412841796875;-0.68841552734375;-0.36041259765625;14.588463564432887;12.413895165317363;17.214712504184345;-0.96630859375;0.6416015625;0.23095703125;21.875;-10.125;14.5;
1441975653399396;0.3123779296875;-0.54815673828125;-0.68682861328125;-0.3609619140625;14.556409544528009;12.442925630255521;17.213205908659607;-0.90673828125;0.62109375;0.19775390625;26.5;-7.8125;14.1875;
1441975653415397;0.30859375;-0.55157470703125;-0.68505859375;-0.36236572265625;14.533465308999867;12.464551140641325;17.20383181017025;-0.9111328125;0.66845703125;0.22998046875;29.375;-6.3125;9.375;
1441975653436398;0.304931640625;-0.55438232421875;-0.68365478515625;-0.3638916015625;14.51152721677078;12.47949063781807;17.19066421159672;-0.9150390625;0.60986328125;0.18603515625;27.625;-11.25;7.75;
1441975653452399;0.30108642578125;-0.55804443359375;-0.6822509765625;-0.36407470703125;14.47959932892722;12.50653990462536;17.19055574875243;-0.8779296875;0.55712890625;0.173828125;24.25;-13.25;8.5625;
1441975653475400;0.29791259765625;-0.5609130859375;-0.681640625;-0.36334228515625;14.44613493982826;12.528946425051807;17.19532044857291;-0.83935546875;0.6025390625;0.154296875;24.6875;-8.3125;12.1875;
1441975653496402;0.2943115234375;-0.56353759765625;-0.68072509765625;-0.364013671875;14.418308708049638;12.543988788661732;17.1869596092239;-0.8076171875;0.5693359375;0.13671875;16.0625;-6.1875;15.0625;
1441975653512403;0.2886962890625;-0.56829833984375;-0.6776123046875;-0.366943359375;14.392262146198245;12.57180677203158;17.165406378565276;-0.76513671875;0.5712890625;0.15673828125;20.1875;-10.4375;8.75;
1441975653535404;0.28460693359375;-0.5718994140625;-0.67266845703125;-0.37359619140625;14.410650466337467;12.585638497196937;17.121109047881394;-0.74755859375;0.67529296875;0.1591796875;42.6875;-17.1875;-0.9375;
1441975653556405;0.28204345703125;-0.57330322265625;-0.66680908203125;-0.38372802734375;14.468995598371418;12.573773989450832;17.04918682706425;-0.6591796875;0.59814453125;0.2080078125;50.125;-18.25;-25.1875;
1441975653572406;0.2860107421875;-0.58551025390625;-0.6502685546875;-0.390625;14.603166376772105;12.717079259779558;17.09768842996435;-0.7607421875;0.60693359375;0.3505859375;52.3125;-20.3125;-46.6875;
1441975653595407;0.2943115234375;-0.5728759765625;-0.64227294921875;-0.41558837890625;14.867019615911353;12.543397280643251;16.889023066463835;-0.6455078125;0.6103515625;-0.99462890625;58.6875;-17.875;-67.8125;
1441975653616408;0.292724609375;-0.56591796875;-0.64276123046875;-0.4254150390625;14.906414415422171;12.426524008349611;16.76050365586251;-1.99658203125;0.04541015625;0.63623046875;7.1875;-64.75;-143.125;
1441975653632409;0.3031005859375;-0.56341552734375;-0.64105224609375;-0.424072265625;15.004117069146506;12.434618354077326;16.80610097285434;-0.3779296875;0.8115234375;0.537109375;1.375;-28.1875;-77.625;
1441975653655411;0.29949951171875;-0.55810546875;-0.65557861328125;-0.4112548828125;14.839232711132949;12.391847703792333;16.849326402607637;-1.67724609375;0.740234375;0.16357421875;-35.6875;27.8125;-27.125;
1441975653678412;0.29876708984375;-0.55487060546875;-0.66693115234375;-0.39776611328125;14.711887383283319;12.385950206172591;16.92496104723269;-1.04248046875;0.88330078125;0.326171875;-81.25;-5.4375;67.4375;
1441975653692413;0.302001953125;-0.5594482421875;-0.66552734375;-0.39111328125;14.709010783610129;12.467012396316317;17.017695942542485;-0.46728515625;0.6494140625;0.38623046875;-65.875;29.1875;52.0625;
1441975653715414;0.29962158203125;-0.56781005859375;-0.66436767578125;-0.38275146484375;14.637962380524337;12.574985157133309;17.11516899040371;-1.11669921875;0.48828125;0.2763671875;6.5;47.4375;31.0625;
1441975653739415;0.29144287109375;-0.57672119140625;-0.668701171875;-0.36798095703125;14.450098815219388;12.674583178231904;17.22102976314595;-1.32275390625;0.619140625;0.111328125;23.0625;28.625;63.8125;
1441975653752416;0.27960205078125;-0.5863037109375;-0.67266845703125;-0.3544921875;14.235200200131828;12.759137836751188;17.293866604592246;-1.1240234375;0.59521484375;0.23193359375;12.9375;28.875;109.875;
1441975653775418;0.26275634765625;-0.5987548828125;-0.67376708984375;-0.34429931640625;14.00258868180634;12.848030448756404;17.32812259443991;-1.15234375;0.74755859375;0.28857421875;26.8125;13.5625;116.8125;
1441975653798419;0.24688720703125;-0.61083984375;-0.67437744140625;-0.33343505859375;13.775780532290565;12.934340584148405;17.363673436866883;-1.0947265625;0.9423828125;0.28125;63.0;-6.0625;117.8125;
1441975653812420;0.2333984375;-0.62091064453125;-0.67626953125;-0.32061767578125;13.553919001215734;13.006280484720243;17.407680272392064;-1.0029296875;0.9091796875;0.17626953125;59.375;-1.25;115.4375;
1441975653835421;0.22100830078125;-0.6285400390625;-0.6798095703125;-0.30657958984375;13.330290289570339;13.056467037228282;17.44943085996309;-1.08837890625;1.11669921875;0.1484375;39.375;9.0;113.625;
1441975653858422;0.20953369140625;-0.63330078125;-0.686279296875;-0.29010009765625;13.09170279637733;13.080912555093795;17.494031700934098;-1.0830078125;1.0439453125;0.0732421875;19.75;9.8125;116.3125;
1441975653879424;0.19793701171875;-0.6396484375;-0.6907958984375;-0.2730712890625;12.851705470999065;13.1201944389806;17.543908107456147;-0.91552734375;1.0810546875;0.18310546875;-5.0;15.0625;122.375;
1441975653895424;0.18927001953125;-0.64508056640625;-0.69476318359375;-0.2557373046875;12.636368751396468;13.157156987545925;17.6032778543416;-0.69091796875;1.140625;0.12939453125;6.75;21.5;121.25;
1441975653918426;0.1826171875;-0.64898681640625;-0.69970703125;-0.2364501953125;12.422508509834717;13.184195719431676;17.67410670332475;-0.60791015625;1.15869140625;0.07470703125;0.0625;33.0;109.1875;
1441975653939427;0.17626953125;-0.6524658203125;-0.703857421875;-0.21893310546875;12.22599117822028;13.206266415499556;17.734817234939587;-0.62548828125;1.11279296875;0.01416015625;-15.4375;44.25;111.0625;
1441975653955428;0.17022705078125;-0.6563720703125;-0.7071533203125;-0.20050048828125;12.026001209939304;13.232753517906197;17.800503516698992;-0.54248046875;1.11279296875;0.1015625;-11.4375;40.25;100.5;
1441975653978429;0.16558837890625;-0.65863037109375;-0.71148681640625;-0.1807861328125;11.827591079438314;13.246998907200426;17.872681891347334;-0.4443359375;1.146484375;0.01611328125;-9.0625;45.4375;101.6875;
1441975653999430;0.1617431640625;-0.65997314453125;-0.7158203125;-0.16107177734375;11.636793743129962;13.254736772926954;17.94530926678206;-0.41259765625;1.03662109375;-0.021484375;-22.6875;53.0;102.5;
1441975654015431;0.15740966796875;-0.66180419921875;-0.71875;-0.1441650390625;11.464740005552635;13.264562640479934;0.0035029333115570663;-0.3798828125;0.92724609375;0.01611328125;-29.9375;54.3125;95.375;
1441975654038433;0.1534423828125;-0.663330078125;-0.720947265625;-0.1295166015625;11.3143573815137;13.27238543888635;0.05239061100218674;-0.3212890625;0.8974609375;0.0400390625;-17.3125;44.4375;84.1875;
1441975654059434;0.1507568359375;-0.66815185546875;-0.7196044921875;-0.11474609375;11.173103708434596;13.30916727485426;0.11200030284165444;-0.296875;0.7998046875;0.09814453125;-9.6875;39.8125;75.75;
1441975654075435;0.148193359375;-0.6748046875;-0.71588134765625;-0.1014404296875;11.042910718320273;13.36100458496266;0.16749749335389646;-0.3388671875;0.89013671875;0.0517578125;13.375;49.6875;73.0625;
1441975654106436;0.14532470703125;-0.6785888671875;-0.71453857421875;-0.0889892578125;10.91732691928247;13.388115917232517;0.21266790559797016;-0.3818359375;0.94970703125;0.0078125;29.4375;46.75;70.0;
1441975654119437;0.142578125;-0.6796875;-0.7154541015625;-0.07647705078125;10.793686988195194;13.393324529246138;0.25442413568255984;-0.39794921875;1.015625;0.0166015625;10.4375;38.875;67.375;
1441975654157439;0.13824462890625;-0.682861328125;-0.71441650390625;-0.06512451171875;10.664602610414356;13.412616734235579;0.28677324333911347;-0.38134765625;0.9287109375;0.013671875;-9.625;36.625;68.9375;
1441975654158439;0.132568359375;-0.68853759765625;-0.7109375;-0.05487060546875;10.530931359265807;13.450149365255932;0.3110753479068655;-0.3154296875;0.876953125;0.0439453125;10.875;29.0;68.8125;
1441975654180441;0.12701416015625;-0.6923828125;-0.7088623046875;-0.04498291015625;10.40254707797458;13.473476369567084;0.33177405782263597;-0.28515625;0.951171875;-0.01708984375;28.25;20.875;69.25;
1441975654210442;0.12237548828125;-0.6949462890625;-0.70770263671875;-0.035888671875;10.28899754508318;13.487643067802187;0.35144108863064644;-0.244140625;0.90478515625;-0.033203125;15.4375;18.25;65.5625;
1441975654232444;0.11761474609375;-0.69781494140625;-0.70599365234375;-0.0301513671875;10.201259636857857;13.504225309308236;0.35696134899794896;-0.26318359375;0.88916015625;-0.03662109375;6.875;18.1875;60.8125;
1441975654239444;0.11260986328125;-0.70074462890625;-0.70404052734375;-0.02728271484375;10.134828194810696;13.52134645738321;0.34971049098141144;-0.27490234375;0.82080078125;0.00439453125;15.5625;5.25;50.875;
1441975654263445;0.1080322265625;-0.702392578125;-0.703125;-0.02642822265625;10.089592438025416;13.529005090293591;0.33505115815226366;-0.255859375;0.79345703125;0.05615234375;22.9375;-6.125;39.75;
1441975654291447;0.1043701171875;-0.70465087890625;-0.70147705078125;-0.0233154296875;10.032769959914338;13.543132912071565;0.333808126858576;-0.2197265625;0.7392578125;0.08837890625;16.9375;-12.8125;28.125;
1441975654315448;0.1015625;-0.70611572265625;-0.7005615234375;-0.0191650390625;9.97503484038456;13.551625411495976;0.3396358765580166;-0.2021484375;0.78857421875;0.01708984375;16.375;-0.25;32.3125;
1441975654321449;0.09906005859375;-0.7071533203125;-0.699951171875;-0.01678466796875;9.934611927936865;13.557093505376232;0.33930258275576647;-0.19677734375;0.7568359375;0.017578125;9.6875;6.375;33.25;
1441975654346450;0.09619140625;-0.707275390625;-0.7001953125;-0.0152587890625;9.899163448225517;13.555068104092783;0.3334307921424328;-0.18603515625;0.67919921875;0.0126953125;7.1875;0.6875;25.5;
1441975654367451;0.0931396484375;-0.70733642578125;-0.70062255859375;-0.01446533203125;9.868273548214477;13.55192676421347;0.3237685296395632;-0.1962890625;0.6552734375;0.009765625;0.5;-5.4375;24.125;
1441975654390453;0.08990478515625;-0.70794677734375;-0.70037841796875;-0.0146484375;9.843417219310055;13.55365852812409;0.3098358471445523;-0.15869140625;0.572265625;-0.01416015625;-1.75;-9.125;20.5;
1441975654398453;0.08734130859375;-0.70843505859375;-0.70025634765625;-0.0166015625;9.838499652303;13.554650232958583;0.2914848461087576;-0.1162109375;0.5224609375;-0.04541015625;1.125;-13.75;15.3125;
1441975654426455;0.08599853515625;-0.7083740234375;-0.7003173828125;-0.0211181640625;9.8647768749378;13.553024657675275;0.2677112061581522;-0.10595703125;0.50244140625;-0.041015625;1.4375;-18.5625;5.0625;
1441975654451456;0.08587646484375;-0.70782470703125;-0.70062255859375;-0.02783203125;9.919113414452047;13.548592397446825;0.2398977706592452;-0.1123046875;0.45751953125;-0.03466796875;0.0;-24.0625;-9.9375;
1441975654471457;0.08734130859375;-0.70538330078125;-0.70245361328125;-0.03790283203125;10.014650962979204;13.53002226590412;0.20378609190643007;-0.10107421875;0.4775390625;-0.04638671875;-2.6875;-28.1875;-24.9375;
1441975654480458;0.0904541015625;-0.70294189453125;-0.7034912109375;-0.05328369140625;10.166378091371971;13.513368161341484;0.15275632569035935;-0.10205078125;0.4580078125;-0.0185546875;-13.5;-36.4375;-46.0625;
1441975654509460;0.097412109375;-0.70245361328125;-0.70123291015625;-0.07342529296875;10.387244158219046;13.517147681535501;0.09998613802353493;-0.16064453125;0.392578125;0.01025390625;-6.25;-50.6875;-70.1875;
1441975654542461;0.115966796875;-0.70269775390625;-0.6915283203125;-0.12091064453125;10.928668416707229;13.543709709326485;17.987110421161784;-0.33447265625;0.34765625;-0.015625;26.875;-53.5;-123.1875;
1441975654563463;0.12890625;-0.69970703125;-0.6873779296875;-0.1463623046875;11.245708682146587;13.538113860588885;17.935465347988792;-0.32275390625;0.40966796875;-0.001953125;31.6875;-57.6875;-139.8125;
1441975654586464;0.14404296875;-0.6954345703125;-0.6826171875;-0.17242431640625;11.587694487450749;13.527639843106002;17.88836442821798;-0.27978515625;0.39599609375;0.0458984375;13.6875;-50.1875;-155.875;
1441975654615466;0.18450927734375;-0.677490234375;-0.67230224609375;-0.23468017578125;12.447325235008062;13.451253362280527;17.772009261755016;-0.40234375;0.4951171875;0.00341796875;-5.375;-47.4375;-198.0625;
1441975654638467;0.20819091796875;-0.66668701171875;-0.6632080078125;-0.26904296875;12.940921113998773;13.409466052606987;17.705587839616186;-0.54833984375;0.3916015625;0.06689453125;-11.8125;-51.3125;-226.4375;
1441975654660468;0.2322998046875;-0.65765380859375;-0.6485595703125;-0.304931640625;13.461504916683346;13.390754108720373;17.636908975488762;-0.67626953125;0.33642578125;0.1162109375;-0.375;-46.375;-242.875;
1441975654684470;0.25830078125;-0.64776611328125;-0.630126953125;-0.341552734375;14.017351870884438;13.377416400052123;17.56986255090435;-0.78125;0.36279296875;0.072265625;27.9375;-41.375;-256.875;
1441975654704471;0.28515625;-0.63525390625;-0.610107421875;-0.37811279296875;14.592407374406333;13.344810617090442;17.490724863042736;-0.962890625;0.36083984375;-0.00439453125;35.6875;-34.8125;-274.1875;
1441975654720472;0.3115234375;-0.61895751953125;-0.5906982421875;-0.41363525390625;15.163332534017487;13.259395157396964;17.373909136809072;-1.21728515625;0.25244140625;-0.04296875;30.1875;-34.6875;-281.5625;
1441975654735472;0.33599853515625;-0.60137939453125;-0.570556640625;-0.447265625;15.710832929067726;13.12315011948218;17.207496439497024;-1.40478515625;0.08837890625;0.01708984375;14.4375;-41.75;-278.8125;
1441975654757474;0.35772705078125;-0.5838623046875;-0.54888916015625;-0.47955322265625;16.22850445851718;12.908506967400594;16.953436128112212;-1.38525390625;-0.017578125;0.072265625;14.375;-42.375;-270.625;
1441975654781475;0.37677001953125;-0.56640625;-0.525634765625;-0.5108642578125;16.709854711932362;12.525429842442634;16.520643423844085;-1.37109375;-0.0859375;0.1201171875;24.5625;-43.0625;-261.5625;
1441975654795476;0.3936767578125;-0.548583984375;-0.50140380859375;-0.54107666015625;17.124176514780213;11.72928381515719;15.669356725415401;-1.43505859375;-0.11572265625;0.09375;35.1875;-45.3125;-255.0625;
1441975654817477;0.40863037109375;-0.53125;-0.4771728515625;-0.5684814453125;17.36766624345906;10.131962247566697;14.01701039691107;-1.509765625;-0.173828125;0.12255859375;41.125;-47.5;-249.3125;
1441975654840478;0.421875;-0.5150146484375;-0.453369140625;-0.59271240234375;17.32029830475812;8.187578931181099;12.01889759653315;-1.4892578125;-0.11083984375;0.115234375;42.0625;-42.6875;-236.9375;
1441975654869480;0.43145751953125;-0.50006103515625;-0.4300537109375;-0.61553955078125;17.06320724871552;7.081338544952783;10.849013568159222;-1.537109375;-0.068359375;0.052734375;41.5;-37.125;-222.0;
1441975654877481;0.43701171875;-0.486572265625;-0.40570068359375;-0.6385498046875;16.740194039906335;6.576274791724597;10.259582724461723;-1.65234375;-0.0888671875;0.0712890625;52.625;-39.1875;-204.5;
1441975654908482;0.44287109375;-0.4718017578125;-0.38092041015625;-0.66046142578125;16.38571054878174;6.2891512559891805;9.892971943894318;-1.5400390625;0.15234375;0.04052734375;73.625;-43.0;-199.125;
1441975654921483;0.45294189453125;-0.45281982421875;-0.35919189453125;-0.6788330078125;16.007358243502452;6.090308339508807;9.656830090238088;-1.41064453125;0.25439453125;-0.01953125;67.375;-43.75;-204.75;
1441975654945484;0.46722412109375;-0.42962646484375;-0.34002685546875;-0.6939697265625;15.60572197456981;5.930425132654688;9.499971814589975;-1.3232421875;0.2294921875;-0.02197265625;25.1875;-48.5;-208.375;
1441975654960485;0.47930908203125;-0.40716552734375;-0.32000732421875;-0.7086181640625;15.209892550028396;5.826458042649789;9.388133912133307;-1.2568359375;0.00341796875;0.083984375;-15.0;-53.625;-210.8125;
1441975654981487;0.4876708984375;-0.38739013671875;-0.29803466796875;-0.72344970703125;14.833333420728081;5.764609108988766;9.291815428536744;-1.16748046875;-0.1240234375;0.142578125;-4.125;-50.125;-204.75;
1441975654997487;0.4930419921875;-0.36834716796875;-0.2762451171875;-0.73822021484375;14.470641907002083;5.740835400218374;9.221543180122984;-1.11865234375;-0.1484375;0.12841796875;21.5;-41.625;-197.4375;
1441975655020489;0.496337890625;-0.3499755859375;-0.25537109375;-0.7523193359375;14.126623095535242;5.739514246945888;9.168713812949564;-1.166015625;-0.2734375;0.13134765625;34.5625;-44.6875;-187.625;
1441975655041490;0.498779296875;-0.3319091796875;-0.2353515625;-0.76531982421875;13.79682329331202;5.746155880149949;9.124713512301826;-1.03466796875;-0.240234375;0.1552734375;40.5;-45.9375;-176.8125;
1441975655058491;0.5009765625;-0.314208984375;-0.21710205078125;-0.776611328125;13.487710904833335;5.754855988855574;9.090516210811579;-0.93359375;-0.2236328125;0.16064453125;39.5;-46.0;-168.3125;
1441975655080492;0.5030517578125;-0.2969970703125;-0.2003173828125;-0.78656005859375;13.196710741317556;5.763975804946165;9.062855851170008;-0.93798828125;-0.2158203125;0.189453125;32.5;-46.25;-158.0625;
1441975655101493;0.50469970703125;-0.28192138671875;-0.18414306640625;-0.794921875;12.93516301023003;5.769680394210351;9.030332795156728;-0.8203125;-0.21923828125;0.22998046875;26.5625;-45.625;-147.375;
1441975655117494;0.5064697265625;-0.2681884765625;-0.16912841796875;-0.8018798828125;12.696988809998595;5.771836883758531;8.998503640026948;-0.68994140625;-0.16015625;0.18212890625;25.8125;-35.5625;-135.3125;
1441975655140496;0.50848388671875;-0.25433349609375;-0.15576171875;-0.80780029296875;12.470008255922094;5.7734719801521335;8.975608171143199;-0.68505859375;-0.21826171875;0.140625;21.0;-31.25;-124.5625;
1441975655161497;0.5084228515625;-0.241943359375;-0.14288330078125;-0.81396484375;12.262683177634674;5.787650275262369;8.95436519173341;-0.6669921875;-0.27978515625;0.18212890625;14.625;-34.125;-116.3125;
1441975655177498;0.50732421875;-0.23358154296875;-0.133056640625;-0.81878662109375;12.116368463838313;5.803898632989755;8.936008831401917;-0.517578125;-0.27197265625;0.17431640625;25.1875;-30.5625;-105.5625;
1441975655208500;0.50628662109375;-0.22601318359375;-0.124755859375;-0.8228759765625;11.98834791165929;5.818992093525601;8.922227049036376;-0.44384765625;-0.18408203125;0.22021484375;19.125;-21.5;-89.75;
1441975655221500;0.50689697265625;-0.218994140625;-0.11822509765625;-0.8253173828125;11.877173415111237;5.821712594823508;8.912175169579083;-0.35205078125;-0.11572265625;0.2373046875;12.375;-18.875;-77.75;
1441975655237501;0.50701904296875;-0.2132568359375;-0.11309814453125;-0.82745361328125;11.78784862879001;5.8268266707413865;8.905726756963892;-0.31787109375;-0.1494140625;0.20166015625;0.625;-18.4375;-65.9375;
1441975655260503;0.50628662109375;-0.2100830078125;-0.1090087890625;-0.82928466796875;11.73090863422186;5.834539154982522;8.897050570474855;-0.27880859375;-0.16943359375;0.19384765625;2.125;-16.3125;-52.5625;
1441975655281504;0.5069580078125;-0.20819091796875;-0.105712890625;-0.82977294921875;11.691476696567237;5.83025509704679;8.885430090443368;-0.26904296875;-0.06396484375;0.14013671875;5.8125;-8.75;-41.5625;
1441975655297505;0.5081787109375;-0.20684814453125;-0.102783203125;-0.8297119140625;11.659654384859225;5.821298133914433;8.872862916224886;-0.25439453125;-0.02734375;0.10546875;-4.1875;-3.3125;-35.625;
1441975655320506;0.50860595703125;-0.2060546875;-0.10028076171875;-0.8299560546875;11.63612797864864;5.817635928096169;8.862006700781823;-0.19482421875;0.00634765625;0.07958984375;-7.5625;0.0;-30.125;
1441975655341507;0.50616455078125;-0.206787109375;-0.098876953125;-0.8314208984375;11.635617323645672;5.8330698171652715;8.856325432679016;-0.146484375;-0.04736328125;0.0634765625;-1.125;1.25;-21.5;
1441975655357508;0.5045166015625;-0.2098388671875;-0.09954833984375;-0.83160400390625;11.670733026594199;5.840404790755672;8.851893686076096;-0.080078125;0.02734375;0.02978515625;15.1875;3.25;-7.75;
1441975655380509;0.5062255859375;-0.215087890625;-0.10333251953125;-0.8287353515625;11.745925824583843;5.8214702715587014;8.849821206159675;-0.07177734375;0.10595703125;-0.03564453125;8.375;8.5;6.5625;
1441975655401511;0.507080078125;-0.22344970703125;-0.1094970703125;-0.8251953125;11.867419254600597;5.804607537563074;8.85005429294818;-0.1591796875;0.06982421875;-0.03125;-18.0;12.9375;21.875;
1441975655417511;0.5072021484375;-0.2359619140625;-0.11956787109375;-0.82025146484375;12.055502024114746;5.787657982432306;8.856199509051002;-0.24951171875;0.04296875;-0.02001953125;-17.1875;19.25;39.5625;
1441975655439513;0.50909423828125;-0.25238037109375;-0.1339111328125;-0.81195068359375;12.310328381852258;5.75104494175868;8.864831860369272;-0.36572265625;0.10009765625;-0.037109375;-20.8125;25.5;63.9375;
1441975655463514;0.5076904296875;-0.26934814453125;-0.14923095703125;-0.8046875;12.579987257793942;5.737122918574674;8.882278408380028;-0.4775390625;0.013671875;-0.0556640625;-38.5;34.0;92.75;
1441975655477515;0.50274658203125;-0.28948974609375;-0.1668701171875;-0.7972412109375;12.900399446252013;5.743755285393217;8.907789984524932;-0.62353515625;0.005859375;-0.091796875;-22.5;39.0625;120.3125;
1441975655499516;0.50042724609375;-0.3114013671875;-0.18798828125;-0.78570556640625;13.264394489100948;5.72591506939105;8.936670714110685;-0.75634765625;0.19287109375;-0.12841796875;-8.3125;43.25;142.5;
1441975655521517;0.49578857421875;-0.33770751953125;-0.21240234375;-0.77142333984375;13.702063814801539;5.714055523894258;8.969918521616519;-0.87060546875;0.18798828125;-0.13330078125;-36.0625;49.9375;162.3125;
1441975655545519;0.486572265625;-0.3687744140625;-0.23980712890625;-0.75482177734375;14.219267115749599;5.726557536389146;9.014732498423044;-1.1337890625;0.228515625;-0.10205078125;-35.4375;62.125;194.125;
1441975655559520;0.4781494140625;-0.4017333984375;-0.27105712890625;-0.73248291015625;14.796460328589372;5.725065802548935;9.069741313951376;-1.39599609375;0.390625;-0.17041015625;-21.625;71.6875;228.875;
1441975655583521;0.46575927734375;-0.43572998046875;-0.30517578125;-0.70721435546875;15.422608264407312;5.769764306521192;9.16979658932679;-1.72119140625;0.40478515625;-0.18212890625;-46.5625;81.875;255.375;
1441975655597522;0.44720458984375;-0.4718017578125;-0.33819580078125;-0.68048095703125;16.08339657017853;5.907003271160306;9.334852757771905;-2.0390625;0.2998046875;-0.1611328125;-42.8125;79.0;286.0;
1441975655619523;0.4248046875;-0.510009765625;-0.37322998046875;-0.648193359375;16.80271112999073;6.248240804871008;9.705034721005115;-2.306640625;0.365234375;-0.10107421875;-15.625;92.375;323.6875;
1441975655633524;0.4078369140625;-0.54205322265625;-0.41839599609375;-0.60406494140625;17.49015419024399;7.693783924919833;11.272555202483026;-2.48876953125;0.64501953125;-0.23681640625;-16.1875;103.125;358.3125;
1441975655656525;0.37603759765625;-0.57623291015625;-0.46160888671875;-0.5599365234375;17.293741500437182;12.219137112188886;15.859104881124258;-2.9951171875;-0.009765625;-0.06298828125;-108.3125;102.0625;390.8125;
1441975655679526;0.3277587890625;-0.62060546875;-0.48956298828125;-0.5174560546875;16.440370517637344;13.341627028953091;16.91010482318427;-3.10009765625;-0.5439453125;0.21533203125;-45.375;78.1875;435.125;
1441975655695527;0.28106689453125;-0.657470703125;-0.51806640625;-0.469482421875;15.529864640909047;13.654033536369854;17.18811555978078;-2.7705078125;0.16162109375;0.04443359375;88.8125;95.125;458.5;
