1441975880182367;-0.15386962890625;0.7218017578125;0.672607421875;0.0533447265625;10.650022157207381;13.767603923152857;0.4511688133358413;-2.0615234375;-0.388671875;-0.0859375;-70.5;11.875;188.1875;
1441975880205369;-0.1461181640625;0.7156982421875;0.68194580078125;0.03662109375;10.457915542621333;13.699036360646332;0.4734336612526239;-1.56201171875;-0.208984375;-0.10400390625;-66.625;19.4375;142.875;
1441975880219369;-0.1470947265625;0.708740234375;0.68939208984375;0.02655029296875;10.391408197521699;13.641686836824817;0.5100678081673843;-1.205078125;-0.22119140625;-0.0380859375;-75.4375;30.8125;115.0;
1441975880242371;-0.14947509765625;0.704833984375;0.693115234375;0.018798828125;10.351685364790093;13.613099337582376;0.5474373833212777;-0.94287109375;-0.1728515625;0.05322265625;-63.0625;42.125;96.625;
1441975880265372;-0.15313720703125;0.70166015625;0.69561767578125;0.0147705078125;10.35212323665856;13.593359208005644;0.5766011747075528;-0.78955078125;0.03515625;-0.00927734375;-37.4375;39.375;70.5625;
1441975880279373;-0.1578369140625;0.69451904296875;0.7017822265625;0.013671875;10.391817790187282;13.543047360223806;0.5947320784989889;-0.5927734375;0.18701171875;-0.1201171875;-34.25;27.8125;35.625;
1441975880302374;-0.16497802734375;0.684326171875;0.7100830078125;0.014404296875;10.471579148469734;13.473621148924613;0.6129076885693029;-0.4306640625;0.27734375;-0.07666015625;-59.25;16.5625;4.1875;
1441975880318375;-0.1744384765625;0.67010498046875;0.72119140625;0.01800537109375;10.600746900973446;13.377841870473423;0.6243429906145718;-0.443359375;0.44189453125;-0.0439453125;-77.3125;16.75;-18.0;
1441975880339376;-0.18304443359375;0.65576171875;0.73199462890625;0.0242919921875;10.744884095790797;13.280923191973157;0.6189634393078927;-0.52978515625;0.40625;0.03271484375;-97.75;12.375;-36.5625;
1441975880362378;-0.18927001953125;0.64501953125;0.7396240234375;0.0323486328125;10.876697878356843;13.208367770945436;0.5983396734994652;-0.58642578125;0.38232421875;0.1201171875;-89.4375;-0.9375;-41.5625;
1441975880378379;-0.1932373046875;0.6375732421875;0.74456787109375;0.04107666015625;10.988700777663786;13.157252239082077;0.5680854951902482;-0.5546875;0.50732421875;0.21630859375;-55.1875;-12.375;-42.1875;
1441975880399380;-0.1951904296875;0.63287353515625;0.74749755859375;0.05010986328125;11.081021286160238;13.123028733481656;0.5306720541106351;-0.5009765625;0.669921875;0.26611328125;-29.0625;-19.9375;-41.8125;
1441975880422381;-0.1956787109375;0.6290283203125;0.75;0.05908203125;11.158383713679124;13.091862264018754;0.4877619232512111;-0.47021484375;0.7666015625;0.23974609375;-12.375;-27.125;-38.75;
1441975880444382;-0.195068359375;0.62677001953125;0.7513427734375;0.0677490234375;11.221314493838022;13.070699748342356;0.44341016719384335;-0.443359375;0.79541015625;0.2509765625;-6.875;-32.0;-35.875;
1441975880459383;-0.19403076171875;0.6241455078125;0.75299072265625;0.07574462890625;11.275442069227246;13.045984817760292;0.39938326107320365;-0.4794921875;0.85595703125;0.1982421875;-0.1875;-35.625;-28.8125;
1441975880482384;-0.193115234375;0.6199951171875;0.75592041015625;0.0828857421875;11.325023366914316;13.009317282053189;0.3568547595856385;-0.5048828125;0.9130859375;0.1611328125;-7.0;-36.9375;-25.625;
1441975880504386;-0.19195556640625;0.6158447265625;0.7587890625;0.08966064453125;11.368932570538007;12.972380804127214;0.31463387564623935;-0.521484375;0.88720703125;0.1630859375;-19.4375;-35.625;-22.375;
1441975880520387;-0.1905517578125;0.6134033203125;0.7603759765625;0.09588623046875;11.404415290480738;12.948242425676348;0.27634551234048255;-0.5341796875;0.82421875;0.17529296875;-19.125;-35.5625;-17.875;
1441975880542388;-0.18896484375;0.61236572265625;0.7608642578125;0.10150146484375;11.432422310165101;12.935062391903225;0.2423039656777044;-0.53955078125;0.7861328125;0.1650390625;-7.625;-33.0;-12.5;
1441975880564389;-0.18798828125;0.61083984375;0.76165771484375;0.10638427734375;11.460578016315134;12.91944125150354;0.21323326779988844;-0.5361328125;0.85595703125;0.13330078125;-2.0625;-30.6875;-10.9375;
1441975880579390;-0.1881103515625;0.607177734375;0.76397705078125;0.1104736328125;11.493651548343367;12.88933062533068;0.18855517199531444;-0.5400390625;0.87548828125;0.1025390625;-8.375;-27.0;-11.125;
1441975880602391;-0.18902587890625;0.6019287109375;0.7674560546875;0.11370849609375;11.52799117422951;12.848477868556028;0.16810417424349497;-0.54296875;0.8525390625;0.12744140625;-23.4375;-22.1875;-12.1875;
1441975880624393;-0.19110107421875;0.59515380859375;0.77178955078125;0.1163330078125;11.56890139174326;12.798453883884623;0.15235768507149955;-0.5322265625;0.796875;0.14794921875;-34.375;-17.5;-11.875;
1441975880639393;-0.19427490234375;0.58746337890625;0.7764892578125;0.11871337890625;11.61827237505751;12.743594539264796;0.14021466729717472;-0.556640625;0.77001953125;0.1826171875;-44.125;-12.0;-12.3125;
1441975880662395;-0.198486328125;0.5791015625;0.78131103515625;0.1212158203125;11.67821010266701;12.685493970154408;0.1299371852273508;-0.591796875;0.73876953125;0.19775390625;-49.4375;-8.0;-13.5625;
1441975880684396;-0.20404052734375;0.571044921875;0.7852783203125;0.12457275390625;11.756627532751496;12.632072016232307;0.12085981000834474;-0.59130859375;0.67236328125;0.2060546875;-53.1875;-4.25;-16.9375;
1441975880699397;-0.21160888671875;0.56298828125;0.788330078125;0.12939453125;11.864352011356504;12.581824092214639;0.11185411892625713;-0.6298828125;0.62060546875;0.18115234375;-50.25;-2.3125;-22.8125;
1441975880722398;-0.221435546875;0.556396484375;0.78924560546875;0.135498046875;12.00248682237027;12.54715738141833;0.10767187750284898;-0.67626953125;0.4814453125;0.16162109375;-45.625;1.5625;-30.375;
1441975880744399;-0.233642578125;0.5516357421875;0.78778076171875;0.14312744140625;12.173827633879156;12.531033711289881;0.10871439407335191;-0.74853515625;0.3798828125;0.13818359375;-32.5625;9.0;-36.75;
1441975880760400;-0.24847412109375;0.5484619140625;0.7838134765625;0.151611328125;12.377112214895833;12.53469918068788;0.12027916986271248;-0.82373046875;0.33984375;0.14013671875;-15.5;18.0;-47.125;
1441975880782402;-0.26556396484375;0.544921875;0.77899169921875;0.1600341796875;12.603033577422742;12.543584136412822;0.14209765468641317;-0.85107421875;0.3994140625;0.08447265625;-5.625;29.5;-61.3125;
1441975880804403;-0.2845458984375;0.53924560546875;0.7744140625;0.168701171875;12.851352610279427;12.543419678288329;0.1670270981143866;-0.8837890625;0.45751953125;0.0517578125;-9.4375;40.125;-72.25;
1441975880819404;-0.30584716796875;0.53131103515625;0.76995849609375;0.17681884765625;13.121708235329997;12.536354875698565;0.2009350752782373;-0.8984375;0.4501953125;0.044921875;-21.0625;45.0625;-83.875;
1441975880842405;-0.32916259765625;0.52313232421875;0.7637939453125;0.1859130859375;13.421611917830175;12.539003978017517;0.2416923145604532;-0.92138671875;0.38916015625;0.01611328125;-34.8125;54.0625;-91.0;
1441975880864406;-0.34942626953125;0.51898193359375;0.75555419921875;0.1939697265625;13.68367470321939;12.57500171051389;0.29192407001870846;-0.96533203125;0.23193359375;0.02392578125;-27.4375;63.125;-97.0;
1441975880879407;-0.37005615234375;0.51690673828125;0.74456787109375;0.2037353515625;13.961166687121336;12.63934115739345;0.3509378176585357;-1.03662109375;0.23876953125;0.0224609375;-0.8125;72.125;-104.125;
1441975880902408;-0.3914794921875;0.5135498046875;0.73272705078125;0.21453857421875;14.257248933968434;12.707738643424173;0.41484175910666454;-1.06982421875;0.396484375;-0.0224609375;18.875;76.0625;-113.75;
1441975880933410;-0.4136962890625;0.508056640625;0.7208251953125;0.22607421875;14.570542107041405;12.773102639474082;0.48247610266351626;-1.0908203125;0.41748046875;-0.0634765625;16.625;76.625;-125.375;
1441975880939411;-0.435791015625;0.50146484375;0.7083740234375;0.23822021484375;14.891361167293347;12.84417990999694;0.5559753822682351;-1.14306640625;0.408203125;-0.09228515625;8.9375;75.0625;-135.875;
1441975880962412;-0.45660400390625;0.4957275390625;0.69427490234375;0.25244140625;15.216817418937886;12.934809514125028;0.6320809964204076;-1.201171875;0.3837890625;0.01611328125;8.5;75.0;-141.5;
1441975880984413;-0.47515869140625;0.49114990234375;0.6790771484375;0.2679443359375;15.5311415495994;13.045839013473204;0.7127087919124501;-1.18896484375;0.3271484375;0.01953125;23.8125;69.3125;-146.6875;
1441975880999414;-0.49163818359375;0.4866943359375;0.66375732421875;0.28424072265625;15.833895211853045;13.167152970091097;0.7958418731480841;-1.21630859375;0.37060546875;0.01611328125;38.625;61.5625;-145.6875;
1441975881022415;-0.5068359375;0.48211669921875;0.64813232421875;0.30096435546875;16.130134421350537;13.309197360364783;0.8954275616571375;-1.19970703125;0.39453125;0.0205078125;44.4375;52.75;-144.1875;
1441975881044417;-0.5196533203125;0.47906494140625;0.631103515625;0.31951904296875;16.417964240730743;13.491158989154775;1.0152328426149861;-1.23681640625;0.27685546875;0.03466796875;48.625;47.75;-142.1875;
1441975881059417;-0.52984619140625;0.4776611328125;0.61285400390625;0.33978271484375;16.693080290199724;13.726450409118838;1.168602868107635;-1.236328125;0.28076171875;0.0712890625;67.75;41.5625;-141.5625;
1441975881082419;-0.53802490234375;0.47625732421875;0.59521484375;0.35968017578125;16.9463340698323;14.014149443789565;1.372704881151964;-1.20263671875;0.33447265625;0.0537109375;86.9375;34.25;-139.75;
1441975881104420;-0.54443359375;0.4742431640625;0.57867431640625;0.379150390625;17.180322521202676;14.371330158123682;1.6483915445036101;-1.2060546875;0.38916015625;0.05908203125;88.4375;26.6875;-134.0625;
1441975881119421;-0.548095703125;0.472900390625;0.5623779296875;0.3995361328125;17.39408087484637;14.856921215353452;2.041448908365693;-1.1826171875;0.36572265625;0.0654296875;85.5;17.5625;-127.4375;
1441975881142422;-0.5479736328125;0.4737548828125;0.54498291015625;0.422119140625;17.580789866817184;15.632780779277585;2.6987038642105206;-1.20703125;0.2353515625;0.0625;96.0625;6.75;-119.375;
1441975881166424;-0.5447998046875;0.47637939453125;0.52703857421875;0.44549560546875;17.71128798926053;17.030078787933455;3.9602368649021913;-1.15966796875;0.21484375;0.0361328125;121.1875;-3.375;-112.0625;
1441975881181424;-0.54022216796875;0.47857666015625;0.5098876953125;0.468017578125;17.739703877045294;1.1419918316840847;5.9387660677605885;-1.09765625;0.32177734375;-0.00830078125;138.25;-9.875;-105.125;
1441975881202426;-0.53643798828125;0.478515625;0.49517822265625;0.48785400390625;17.65716200605218;2.794128597524232;7.481168248188069;-1.056640625;0.42578125;-0.02490234375;135.6875;-15.5625;-100.25;
1441975881224427;-0.5318603515625;0.47802734375;0.48565673828125;0.502685546875;17.57553005488565;3.6016510558567867;8.207168784038972;-1.00048828125;0.49951171875;-0.05322265625;112.25;-20.25;-96.5625;
1441975881241428;-0.52703857421875;0.476318359375;0.4771728515625;0.5172119140625;17.477232609245103;4.202396654184974;8.733030199979012;-0.9443359375;0.404296875;-0.0126953125;83.875;-24.5;-90.75;
1441975881262429;-0.5213623046875;0.4755859375;0.4691162109375;0.5308837890625;17.383244535964543;4.6042120981913826;9.058331624529112;-0.91455078125;0.28662109375;0.0361328125;76.75;-29.0625;-82.8125;
1441975881284430;-0.51568603515625;0.4757080078125;0.46185302734375;0.5426025390625;17.303802073724313;4.867255059266264;9.25022674709027;-0.85693359375;0.2880859375;0.02392578125;78.0625;-28.75;-74.625;
1441975881301431;-0.51123046875;0.47564697265625;0.45635986328125;0.55145263671875;17.24116346303543;5.040530215325924;9.369645542344973;-0.83056640625;0.31396484375;0.0068359375;72.0625;-25.5625;-66.625;
1441975881338433;-0.50946044921875;0.4744873046875;0.453125;0.55670166015625;17.19173964681635;5.12753663463355;9.43046610826765;-0.80810546875;0.34326171875;-0.00146484375;54.3125;-20.9375;-59.6875;
1441975881344434;-0.50897216796875;0.472412109375;0.45086669921875;0.560791015625;17.142166269529177;5.189242732170784;9.478431050924613;-0.81005859375;0.34326171875;-0.00732421875;26.1875;-15.25;-54.3125;
1441975881361435;-0.5067138671875;0.4716796875;0.44879150390625;0.5650634765625;17.108668234212008;5.276266056918862;9.542760781501928;-0.84765625;0.22265625;0.00244140625;13.5;-14.25;-46.6875;
1441975881382436;-0.50299072265625;0.47283935546875;0.447509765625;0.56842041015625;17.103563180183716;5.373778609561869;9.612877285856579;-0.87548828125;0.21728515625;4.8828125E-4;23.0;-16.375;-37.9375;
1441975881404437;-0.49951171875;0.47454833984375;0.4476318359375;0.5699462890625;17.119191311525235;5.462994423054574;9.683155954415488;-0.8828125;0.31103515625;-0.046875;27.6875;-16.9375;-30.1875;
1441975881421438;-0.49761962890625;0.47564697265625;0.4493408203125;0.5693359375;17.145158086401537;5.52773714812753;9.746014956761046;-0.873046875;0.3603515625;-0.076171875;19.25;-16.25;-23.3125;
1441975881442439;-0.49700927734375;0.47625732421875;0.45245361328125;0.56689453125;17.180911285702987;5.575701644410741;9.806506013296552;-0.86767578125;0.345703125;-0.09130859375;2.4375;-13.875;-16.9375;
1441975881464441;-0.4971923828125;0.47662353515625;0.456298828125;0.5633544921875;17.222415689447143;5.612019792386612;9.863597399200057;-0.8828125;0.31494140625;-0.0859375;-12.375;-11.0;-10.25;
1441975881481442;-0.49688720703125;0.4776611328125;0.46063232421875;0.5592041015625;17.27640730724102;5.66539193181179;9.937563396020046;-0.88525390625;0.2470703125;-0.0703125;-20.625;-8.125;-2.75;
1441975881503443;-0.495361328125;0.48028564453125;0.46514892578125;0.5545654296875;17.349880248650425;5.750011695123819;10.036644520001587;-0.8876953125;0.20849609375;-0.0517578125;-20.25;-5.1875;7.0;
1441975881524444;-0.4927978515625;0.48468017578125;0.4697265625;0.5491943359375;17.444618855680684;5.868449400769661;10.163764847109881;-0.89013671875;0.1904296875;-0.03564453125;-14.0625;-1.25;18.4375;
1441975881541445;-0.48919677734375;0.49072265625;0.47430419921875;0.54302978515625;17.559203750985247;6.056104590953641;10.354655257508828;-0.90234375;0.173828125;-0.0400390625;-8.375;3.1875;30.8125;
1441975881562446;-0.48486328125;0.49798583984375;0.47894287109375;0.53619384765625;17.686668351980703;6.410460006949068;10.708734834785519;-0.9287109375;0.17333984375;-0.048828125;-2.8125;7.5625;41.4375;
1441975881584447;-0.48004150390625;0.50616455078125;0.483642578125;0.528564453125;17.816152483575948;7.308446996658939;11.604842414503375;-0.94384765625;0.1845703125;-0.0498046875;0.8125;11.125;50.0625;
1441975881601448;-0.47503662109375;0.51495361328125;0.48834228515625;0.520263671875;17.88391513196135;10.265124834646848;14.55926710972106;-0.9521484375;0.1875;-0.06103515625;2.375;14.625;57.375;
1441975881622450;-0.4696044921875;0.52435302734375;0.49285888671875;0.511474609375;17.784593719477186;12.80402607292914;17.093767644920085;-0.95556640625;0.17529296875;-0.060546875;2.875;18.25;64.125;
1441975881644451;-0.463623046875;0.53448486328125;0.4971923828125;0.5020751953125;17.62182224698922;13.558239459872139;17.84106602299692;-0.95068359375;0.1572265625;-0.052734375;4.8125;22.125;70.875;
1441975881661452;-0.45758056640625;0.545166015625;0.50164794921875;0.4915771484375;17.43755947582835;13.889636614383077;0.16723709341458995;-0.91162109375;0.16943359375;-0.04345703125;7.6875;26.5625;76.8125;
1441975881690454;-0.45184326171875;0.55572509765625;0.5064697265625;0.48004150390625;17.2431219056741;14.07017866681353;0.34774344102345395;-0.89013671875;0.1923828125;-0.0478515625;6.0;31.0;82.0;
1441975881704454;-0.44659423828125;0.56561279296875;0.511962890625;0.4674072265625;17.042949884758485;14.174613459496012;0.4604905476765655;-0.88671875;0.21484375;-0.06103515625;1.0;34.0625;85.5625;
1441975881721455;-0.4420166015625;0.574462890625;0.51806640625;0.45404052734375;16.843945968428024;14.23485570076347;0.5377983913184484;-0.89697265625;0.236328125;-0.07177734375;-6.875;35.3125;87.8125;
1441975881742457;-0.43792724609375;0.582275390625;0.5245361328125;0.44036865234375;16.649714128387927;14.266989595417401;0.5933444686161485;-0.91552734375;0.240234375;-0.09619140625;-16.4375;34.75;88.9375;
1441975881764458;-0.433837890625;0.5894775390625;0.53076171875;0.42724609375;16.46409192767387;14.282555830014738;0.6318586696551877;-0.94091796875;0.23046875;-0.115234375;-22.75;32.875;89.75;
1441975881781459;-0.42938232421875;0.59619140625;0.5364990234375;0.41510009765625;16.288769721865368;14.285554979098594;0.653985654549541;-0.97802734375;0.20849609375;-0.13134765625;-23.1875;29.9375;90.1875;
1441975881802460;-0.42413330078125;0.6031494140625;0.5413818359375;0.4039306640625;16.11843262197404;14.286426376562288;0.6657151765867657;-0.9931640625;0.18701171875;-0.1416015625;-19.875;25.6875;90.1875;
1441975881824461;-0.41839599609375;0.6103515625;0.5452880859375;0.393798828125;15.955425072678976;14.290464670611875;0.6726589307124702;-0.97900390625;0.17919921875;-0.15380859375;-12.4375;22.25;90.4375;
1441975881842462;-0.4122314453125;0.61767578125;0.54803466796875;0.38494873046875;15.803225018637992;14.298569161498019;0.6749463368823585;-0.98388671875;0.17822265625;-0.14990234375;-4.5625;21.0;89.0625;
1441975881862463;-0.405517578125;0.62530517578125;0.5496826171875;0.377197265625;15.658476769841691;14.311252705400566;0.6728408863321447;-0.984375;0.1650390625;-0.13671875;3.6875;19.75;87.0625;
1441975881892465;-0.39862060546875;0.63323974609375;0.55029296875;0.3704833984375;15.522384307826602;14.33063815392202;0.6698538843640015;-0.96826171875;0.17431640625;-0.12109375;12.8125;19.0625;84.5625;
1441975881901466;-0.391845703125;0.64105224609375;0.5501708984375;0.3643798828125;15.394601840240284;14.3542412820657;0.6677327202418509;-0.96142578125;0.1875;-0.1103515625;20.4375;19.0625;80.875;
1441975881922467;-0.3856201171875;0.64837646484375;0.54986572265625;0.35845947265625;15.274346394374115;14.378554365376495;0.6681761384673479;-0.951171875;0.21044921875;-0.1044921875;24.375;19.625;76.125;
1441975881944468;-0.38055419921875;0.6544189453125;0.54998779296875;0.35260009765625;15.166475382038914;14.397578267932413;0.6715446748129128;-0.93505859375;0.24853515625;-0.1044921875;23.1875;20.4375;70.4375;
1441975881968469;-0.3770751953125;0.6588134765625;0.55078125;0.346923828125;15.07555140944975;14.409550181667722;0.6789001880521542;-0.93701171875;0.27490234375;-0.11083984375;15.375;20.875;63.4375;
1441975881982470;-0.375244140625;0.66156005859375;0.55224609375;0.34136962890625;15.001377244401848;14.415201438172826;0.6914074397953246;-0.9384765625;0.2880859375;-0.10546875;5.0;20.875;55.1875;
1441975882004472;-0.375;0.6627197265625;0.55413818359375;0.336181640625;14.94594626741999;14.41615832160603;0.7089326480708575;-0.9345703125;0.29345703125;-0.109375;-5.625;21.0625;46.5625;
1441975882021472;-0.37615966796875;0.66253662109375;0.55615234375;0.33184814453125;14.91185008226247;14.414298000877404;0.7297709315275043;-0.94140625;0.29150390625;-0.115234375;-14.875;20.5625;37.5;
1441975882043474;-0.37835693359375;0.6614990234375;0.5579833984375;0.328369140625;14.895310258729978;14.412893591140897;0.7537140543927168;-0.94775390625;0.28662109375;-0.1162109375;-20.4375;19.4375;28.1875;
1441975882064475;-0.38153076171875;0.65972900390625;0.55950927734375;0.3258056640625;14.896138623332213;14.413287863948328;0.7809856325441048;-0.9404296875;0.2958984375;-0.1162109375;-22.5;17.9375;18.375;
1441975882081476;-0.3856201171875;0.656982421875;0.56085205078125;0.32403564453125;14.914004671154835;14.413433974245743;0.8107552551193835;-0.9248046875;0.30810546875;-0.12353515625;-23.625;16.125;8.5;
1441975882102477;-0.39056396484375;0.6533203125;0.562255859375;0.3231201171875;14.948279203543404;14.411434642325156;0.8412889280030242;-0.89453125;0.31298828125;-0.126953125;-26.1875;14.125;-1.4375;
1441975882124478;-0.39630126953125;0.6488037109375;0.5634765625;0.32305908203125;14.998860646010899;14.40955614664446;0.8737105439759947;-0.876953125;0.314453125;-0.125;-28.9375;11.875;-10.625;
1441975882148480;-0.40289306640625;0.64324951171875;0.564697265625;0.32391357421875;15.067206891902288;14.40582443869127;0.9070896850715124;-0.8759765625;0.31689453125;-0.130859375;-30.9375;9.1875;-19.3125;
1441975882170481;-0.40997314453125;0.6368408203125;0.56591796875;0.32562255859375;15.149996488625774;14.399431252123971;0.9391216289265966;-0.88330078125;0.302734375;-0.1357421875;-33.875;6.125;-27.25;
1441975882184482;-0.41729736328125;0.6298828125;0.56689453125;0.328125;15.244341583371744;14.392878911010369;0.9701184710459908;-0.88720703125;0.29296875;-0.13427734375;-35.625;2.9375;-33.8125;
1441975882201483;-0.4248046875;0.62255859375;0.5673828125;0.33154296875;15.350445000515075;14.388859906071465;1.0009647854549173;-0.89111328125;0.28076171875;-0.1298828125;-35.25;0.1875;-39.625;
1441975882223484;-0.43218994140625;0.61517333984375;0.5673828125;0.33587646484375;15.46504390041462;14.38729262143882;1.0297900486903622;-0.90673828125;0.26708984375;-0.13037109375;-32.9375;-2.5;-44.5;
1441975882244485;-0.43927001953125;0.6077880859375;0.56689453125;0.3409423828125;15.58536032896701;14.387836334341264;1.056120776535053;-0.921875;0.2587890625;-0.123046875;-28.5625;-4.625;-48.4375;
1441975882261486;-0.44580078125;0.6005859375;0.56591796875;0.3466796875;15.708668274631249;14.389891181897902;1.0783337462232396;-0.93359375;0.2529296875;-0.10546875;-23.9375;-6.5625;-51.25;
1441975882289488;-0.45184326171875;0.5938720703125;0.56439208984375;0.35296630859375;15.832519230578123;14.396692293459413;1.09915532286258;-0.94140625;0.24609375;-0.09228515625;-18.75;-8.25;-52.875;
1441975882304489;-0.45733642578125;0.58758544921875;0.56231689453125;0.359619140625;15.955478980834132;14.408199797001211;1.1191520285562333;-0.94482421875;0.24072265625;-0.08935546875;-12.875;-9.6875;-53.875;
1441975882321490;-0.46234130859375;0.58172607421875;0.55987548828125;0.366455078125;16.07589852375184;14.423701555063484;1.1388832345258133;-0.95166015625;0.244140625;-0.0810546875;-7.3125;-10.5;-54.5;
1441975882343491;-0.46697998046875;0.57611083984375;0.55731201171875;0.3734130859375;16.19440195221834;14.440529252681475;1.1574617131141705;-0.95751953125;0.25;-0.0830078125;-2.9375;-11.25;-55.0;
1441975882364492;-0.47125244140625;0.57080078125;0.55462646484375;0.380126953125;16.30760997744785;14.460541175732478;1.1776757036467584;-0.951171875;0.25537109375;-0.07470703125;-0.625;-11.4375;-55.4375;
1441975882381493;-0.47515869140625;0.56585693359375;0.55181884765625;0.38653564453125;16.414636152314213;14.484762963228276;1.2005580084440313;-0.94091796875;0.259765625;-0.0703125;1.1875;-11.0625;-54.9375;
1441975882403494;-0.478759765625;0.5611572265625;0.54931640625;0.392578125;16.51504228588302;14.507031273474258;1.2218558949486882;-0.939453125;0.2705078125;-0.06640625;2.75;-10.375;-54.0;
1441975882424496;-0.48223876953125;0.55645751953125;0.547119140625;0.39794921875;16.60871988314091;14.528803641429821;1.2451773002592703;-0.9482421875;0.28857421875;-0.06005859375;2.5625;-9.875;-52.625;
1441975882447497;-0.48565673828125;0.55169677734375;0.5455322265625;0.40264892578125;16.69564293446502;14.544868040849666;1.266500956259305;-0.94921875;0.294921875;-0.064453125;0.0;-9.75;-51.0625;
1441975882463498;-0.489013671875;0.54693603515625;0.54437255859375;0.4066162109375;16.775365502660676;14.558446696791076;1.2885339050202338;-0.93359375;0.29541015625;-0.056640625;-3.875;-9.4375;-48.875;
1441975882484499;-0.4921875;0.54241943359375;0.54345703125;0.40997314453125;16.847201628219583;14.572039845712402;1.3118341726047713;-0.9228515625;0.28125;-0.05615234375;-7.125;-8.625;-45.625;
1441975882501500;-0.4949951171875;0.53857421875;0.54266357421875;0.41278076171875;16.908309965312863;14.588083368808219;1.3365350879517546;-0.912109375;0.267578125;-0.052734375;-8.6875;-7.5625;-41.6875;
1441975882523501;-0.49725341796875;0.535400390625;0.5418701171875;0.4151611328125;16.959324108421857;14.604661864553998;1.3595204135083245;-0.91259765625;0.2666015625;-0.05712890625;-7.5625;-6.375;-37.25;
1441975882544502;-0.4990234375;0.53289794921875;0.54119873046875;0.41717529296875;17.00068607665389;14.619112978837855;1.3784526260274577;-0.923828125;0.2666015625;-0.060546875;-5.625;-5.375;-32.875;
1441975882561503;-0.500244140625;0.531005859375;0.54071044921875;0.4188232421875;17.032518191813523;14.627194782462436;1.3892756912414277;-0.94189453125;0.2705078125;-0.06787109375;-3.6875;-4.9375;-28.6875;
1441975882585505;-0.5009765625;0.5296630859375;0.5404052734375;0.41998291015625;17.054498245002605;14.629454027237989;1.3932555560929811;-0.9541015625;0.2783203125;-0.06787109375;-2.0625;-4.875;-24.4375;
1441975882604506;-0.501220703125;0.52880859375;0.5404052734375;0.42083740234375;17.068268246843118;14.620430378382979;1.384900594728562;-0.96435546875;0.28564453125;-0.0771484375;-1.0625;-4.9375;-19.875;
1441975882621507;-0.50103759765625;0.52825927734375;0.540771484375;0.4212646484375;17.07417790409913;14.598673210538237;1.3640115260027317;-0.9697265625;0.27783203125;-0.08154296875;-0.625;-5.375;-15.0;
1441975882643508;-0.50042724609375;0.5281982421875;0.5413818359375;0.4212646484375;17.071132973534667;14.569419983487936;1.3349416629088109;-0.9658203125;0.2666015625;-0.078125;-0.6875;-5.5625;-9.9375;
1441975882664509;-0.49957275390625;0.52850341796875;0.542236328125;0.4207763671875;17.060071121756444;14.536701611701565;1.3027734471741206;-0.9560546875;0.2578125;-0.076171875;-0.4375;-5.125;-4.5625;
1441975882687511;-0.49835205078125;0.529296875;0.54339599609375;0.41973876953125;17.039024890124015;14.499199530311898;1.2658379431862805;-0.951171875;0.2353515625;-0.068359375;-0.875;-3.75;0.875;
1441975882703511;-0.49676513671875;0.53076171875;0.54473876953125;0.4180908203125;17.006501335447226;14.463559841421333;1.2300800878814593;-0.9296875;0.2216796875;-0.0537109375;-0.8125;-2.125;6.6875;
1441975882732513;-0.494873046875;0.53271484375;0.5462646484375;0.41571044921875;16.963046554303798;14.430977907385921;1.197779680846725;-0.9248046875;0.22509765625;-0.05078125;-0.125;-0.125;12.25;
1441975882741514;-0.492919921875;0.534912109375;0.5482177734375;0.41265869140625;16.911100230738462;14.398400500816175;1.1677731963546492;-0.923828125;0.234375;-0.05078125;-0.5625;1.8125;17.3125;
1441975882763515;-0.49090576171875;0.537353515625;0.5504150390625;0.40899658203125;16.851664646928775;14.369547591098488;1.1430981753897054;-0.92236328125;0.23095703125;-0.04736328125;-2.75;3.25;22.0;
1441975882811518;-0.48675537109375;0.54302978515625;0.55523681640625;0.3997802734375;16.71068713883084;14.329440102098198;1.1155136597611806;-0.91845703125;0.24267578125;-0.06494140625;-5.4375;6.125;29.625;
1441975882828519;-0.48492431640625;0.54559326171875;0.55816650390625;0.39447021484375;16.636005942429566;14.308440712122605;1.105832091902878;-0.93798828125;0.25927734375;-0.08642578125;-7.9375;6.5625;32.0625;
1441975882844520;-0.48321533203125;0.54766845703125;0.5614013671875;0.3890380859375;16.56320441159476;14.282234427461102;1.0939803313042982;-0.97216796875;0.265625;-0.1044921875;-11.9375;5.875;33.6875;
1441975882867521;-0.4814453125;0.5494384765625;0.56463623046875;0.38397216796875;16.494952850810567;14.252528658157287;1.078299528592576;-0.994140625;0.263671875;-0.1015625;-15.0625;4.5625;34.5625;
1441975882883522;-0.4793701171875;0.55126953125;0.567626953125;0.3795166015625;16.430364097569466;14.222024257187709;1.0582971772679333;-1.0087890625;0.236328125;-0.1025390625;-15.3125;3.125;35.4375;
1441975882904523;-0.47674560546875;0.5537109375;0.570068359375;0.3756103515625;16.365178134455093;14.197169721501284;1.0374257283208907;-1.00439453125;0.20703125;-0.08203125;-11.875;2.3125;37.1875;
1441975882927524;-0.4735107421875;0.55694580078125;0.5718994140625;0.3720703125;16.296708018991136;14.180243082470987;1.017615936387247;-0.99169921875;0.18603515625;-0.0693359375;-5.3125;2.3125;39.5625;
1441975882943525;-0.46990966796875;0.5606689453125;0.573486328125;0.36865234375;16.225067668168528;14.167369724985765;0.9983207802403781;-0.97314453125;0.1767578125;-0.06103515625;1.6875;3.3125;42.0625;
1441975882964526;-0.4661865234375;0.56475830078125;0.5748291015625;0.364990234375;16.149316492810286;14.16146511364851;0.9846074714801583;-0.9619140625;0.17822265625;-0.04443359375;5.75;4.625;44.375;
1441975882987528;-0.462646484375;0.56884765625;0.57623291015625;0.3609619140625;16.071367445911125;14.158861551660056;0.9759689582676658;-0.95654296875;0.1904296875;-0.04931640625;6.8125;6.0625;45.875;
1441975883003529;-0.45953369140625;0.5726318359375;0.5777587890625;0.3564453125;15.993138911019672;14.15886291116273;0.9738613526863671;-0.9560546875;0.2001953125;-0.04833984375;5.5625;8.0625;46.75;
1441975883024530;-0.45703125;0.57598876953125;0.57940673828125;0.35150146484375;15.916741161496763;14.161426807888354;0.9789463024821268;-0.95556640625;0.21240234375;-0.0546875;1.875;9.75;46.625;
1441975883047531;-0.455078125;0.57879638671875;0.58123779296875;0.346435546875;15.844871210435135;14.162956665617894;0.9870809348090568;-0.9560546875;0.2265625;-0.06689453125;-2.5625;11.25;45.3125;
1441975883063532;-0.4537353515625;0.5810546875;0.58306884765625;0.34136962890625;15.779295649100527;14.165383296474092;0.9994971794520029;-0.94921875;0.2314453125;-0.0703125;-6.6875;12.3125;43.0;
1441975883086533;-0.45281982421875;0.58282470703125;0.58477783203125;0.3365478515625;15.721013316087285;14.167995335977409;1.0137122209563618;-0.94580078125;0.2392578125;-0.0791015625;-9.625;12.625;39.6875;
1441975883107535;-0.45233154296875;0.58416748046875;0.58624267578125;0.33233642578125;15.672916160553683;14.171271124062374;1.0285482112841646;-0.93701171875;0.24560546875;-0.0830078125;-11.0625;12.5;35.625;
1441975883123536;-0.4521484375;0.585205078125;0.58746337890625;0.32855224609375;15.632188762511685;14.175701986269793;1.0443459854752342;-0.9248046875;0.24560546875;-0.0810546875;-11.125;12.0625;31.375;
1441975883146537;-0.45233154296875;0.58587646484375;0.58837890625;0.325439453125;15.601611879675756;14.181292604634557;1.0605359640881866;-0.90771484375;0.25732421875;-0.08056640625;-10.4375;11.5;26.5625;
1441975883167538;-0.452880859375;0.58612060546875;0.58905029296875;0.322998046875;15.581392300856052;14.187179153440301;1.0766040867592412;-0.8984375;0.265625;-0.0849609375;-9.8125;10.5;21.3125;
1441975883197540;-0.4539794921875;0.58575439453125;0.5894775390625;0.3212890625;15.57400844485145;14.193558818390052;1.093621063093561;-0.88916015625;0.27099609375;-0.09228515625;-9.75;9.125;15.5625;
1441975883205540;-0.45550537109375;0.5849609375;0.589599609375;0.3204345703125;15.578907513558102;14.201079497339578;1.1107751472575524;-0.8876953125;0.26904296875;-0.09912109375;-9.6875;7.3125;9.5;
1441975883230542;-0.4573974609375;0.58355712890625;0.5894775390625;0.3204345703125;15.596739760405699;14.207786350407725;1.126678053067667;-0.89013671875;0.27685546875;-0.10546875;-9.3125;5.4375;3.0625;
1441975883243542;-0.459716796875;0.58154296875;0.5892333984375;0.3212890625;15.627533872555677;14.213057178078497;1.1411974623657077;-0.88720703125;0.2802734375;-0.10888671875;-9.0625;3.625;-3.5625;
1441975883266544;-0.4622802734375;0.5791015625;0.58868408203125;0.32305908203125;15.670233702618624;14.21842131717861;1.1541018638612734;-0.89111328125;0.27880859375;-0.10009765625;-8.625;1.5;-10.0;
1441975883282545;-0.465087890625;0.57623291015625;0.587890625;0.32550048828125;15.722709096116569;14.224053478932506;1.1664959328461038;-0.89501953125;0.27880859375;-0.09326171875;-7.1875;-0.25;-15.875;
1441975883303546;-0.46832275390625;0.57275390625;0.58709716796875;0.3284912109375;15.785390115744718;14.228152464673855;1.1786819050733763;-0.90234375;0.28955078125;-0.09423828125;-6.4375;-1.75;-21.75;
1441975883326547;-0.47186279296875;0.568603515625;0.58636474609375;0.33184814453125;15.856457782087764;14.229242460877073;1.189778086149158;-0.9052734375;0.29248046875;-0.0888671875;-7.5625;-3.1875;-27.1875;
1441975883347548;-0.4757080078125;0.56402587890625;0.5855712890625;0.33551025390625;15.934205371283879;14.230383139653068;1.2019352921631121;-0.900390625;0.283203125;-0.0849609375;-9.3125;-4.375;-31.625;
1441975883363549;-0.479736328125;0.55908203125;0.58477783203125;0.33941650390625;16.017058111078114;14.230465387088739;1.2138760973380749;-0.90234375;0.27685546875;-0.0810546875;-10.5;-5.375;-35.4375;
1441975883386551;-0.4837646484375;0.553955078125;0.58404541015625;0.34344482421875;16.10190746937712;14.22861770227507;1.2242095589126476;-0.90966796875;0.27001953125;-0.0751953125;-11.1875;-6.125;-37.875;
1441975883407552;-0.48785400390625;0.5487060546875;0.58319091796875;0.34747314453125;16.18810032449368;14.228522099775944;1.2364868051660878;-0.91650390625;0.2646484375;-0.0732421875;-11.75;-6.75;-39.375;
1441975883423553;-0.4918212890625;0.54351806640625;0.582275390625;0.35162353515625;16.274495229851635;14.22847596575907;1.2477267156205405;-0.927734375;0.251953125;-0.07080078125;-11.9375;-7.1875;-39.9375;
1441975883446554;-0.49554443359375;0.53851318359375;0.5811767578125;0.35577392578125;16.359097453867584;14.230193524784003;1.2590094395889286;-0.94384765625;0.2392578125;-0.07861328125;-11.3125;-7.5625;-39.8125;
1441975883475556;-0.4989013671875;0.5338134765625;0.580078125;0.3599853515625;16.440624869751893;14.230258264576776;1.266510698407335;-0.9638671875;0.23486328125;-0.06787109375;-9.3125;-7.4375;-39.125;
1441975883483556;-0.50201416015625;0.52960205078125;0.57867431640625;0.3641357421875;16.518189830358008;14.236641681720865;1.2775403369409783;-0.9794921875;0.234375;-0.0537109375;-6.75;-7.0625;-38.0625;
1441975883512558;-0.50457763671875;0.5260009765625;0.57720947265625;0.3680419921875;16.587616602749137;14.243918550932582;1.2867155703213984;-0.9736328125;0.22607421875;-0.05224609375;-4.3125;-6.5;-36.4375;
1441975883527559;-0.5068359375;0.52288818359375;0.57574462890625;0.37164306640625;16.65009057382978;14.253615448345466;1.296939147540405;-0.95849609375;0.2275390625;-0.04931640625;-1.375;-5.5;-33.9375;
1441975883543560;-0.50872802734375;0.5203857421875;0.57440185546875;0.37469482421875;16.702281251772046;14.265254985514254;1.308278744830528;-0.94580078125;0.21826171875;-0.03564453125;0.1875;-4.375;-30.625;
1441975883566561;-0.5103759765625;0.518310546875;0.57330322265625;0.3770751953125;16.744625197143545;14.277489075262046;1.320980253510541;-0.94970703125;0.224609375;-0.0439453125;0.8125;-3.25;-26.8125;
1441975883587562;-0.5118408203125;0.5166015625;0.57232666015625;0.37884521484375;16.778574494409455;14.292454561446968;1.3370212929265137;-0.9423828125;0.22412109375;-0.04150390625;0.3125;-2.125;-23.0;
1441975883603563;-0.51312255859375;0.51531982421875;0.571533203125;0.38006591796875;16.804026847988894;14.309110144003505;1.3551352638693075;-0.93994140625;0.2236328125;-0.05126953125;-0.875;-1.125;-19.125;
1441975883625564;-0.5140380859375;0.5146484375;0.57061767578125;0.381103515625;16.82269015926497;14.329505628777582;1.374380464697322;-0.93603515625;0.21923828125;-0.05615234375;-0.875;0.25;-15.5;
1441975883648566;-0.51458740234375;0.5146484375;0.56964111328125;0.38189697265625;16.833489334825185;14.353142173724763;1.3944174995577876;-0.93408203125;0.2177734375;-0.05419921875;1.5;1.1875;-12.1875;
1441975883662566;-0.51470947265625;0.51531982421875;0.56854248046875;0.3824462890625;16.836332662985434;14.379791597132625;1.4147014751824896;-0.9306640625;0.22314453125;-0.0625;4.25;1.875;-9.125;
1441975883685568;-0.51470947265625;0.51617431640625;0.56756591796875;0.3826904296875;16.8346512636107;14.405417048975941;1.4343441430635315;-0.9404296875;0.24169921875;-0.07958984375;6.4375;2.125;-6.5;
1441975883707569;-0.5145263671875;0.51715087890625;0.56671142578125;0.3828125;16.8301361095594;14.427150234917622;1.4499351006190877;-0.9443359375;0.25;-0.08740234375;6.6875;2.0625;-4.875;
1441975883722570;-0.514404296875;0.51800537109375;0.5660400390625;0.38287353515625;16.82574020540095;14.445446891691756;1.4632983391714707;-0.94775390625;0.25439453125;-0.091796875;5.9375;1.75;-3.6875;
1441975883745571;-0.5142822265625;0.5189208984375;0.5653076171875;0.38287353515625;16.82052283921589;14.465677645137133;1.4784361427399861;-0.9443359375;0.24560546875;-0.08984375;5.375;1.625;-3.0625;
1441975883767572;-0.51397705078125;0.5198974609375;0.56463623046875;0.38299560546875;16.815062345018376;14.481288224867265;1.4880621916683903;-0.94140625;0.23876953125;-0.091796875;5.375;1.6875;-2.1875;
1441975883782573;-0.51348876953125;0.5211181640625;0.56390380859375;0.38299560546875;16.80637959222509;14.497505855589164;1.4972747588119133;-0.9306640625;0.224609375;-0.0830078125;6.0;1.8125;-0.875;
1441975883805575;-0.51300048828125;0.52252197265625;0.56317138671875;0.3828125;16.794898030879523;14.51593588164293;1.5086982230721968;-0.9208984375;0.22265625;-0.07861328125;7.0625;2.1875;0.5;
1441975883827576;-0.5125732421875;0.52392578125;0.5626220703125;0.38232421875;16.78073161700187;14.533033560724538;1.5203797384402205;-0.91552734375;0.22607421875;-0.0888671875;7.25;2.75;1.75;
1441975883842577;-0.51239013671875;0.52508544921875;0.56219482421875;0.38165283203125;16.767328050694992;14.550451995653008;1.5346738199670518;-0.92431640625;0.2265625;-0.09033203125;5.625;3.3125;2.75;
1441975883865578;-0.51214599609375;0.5262451171875;0.56182861328125;0.380859375;16.752571112336533;14.565920649793814;1.5473975123133823;-0.92919921875;0.21533203125;-0.09326171875;3.375;3.8125;3.5625;
1441975883887579;-0.5118408203125;0.527587890625;0.5614013671875;0.38006591796875;16.736408951484844;14.582581978828172;1.5604217399489073;-0.93212890625;0.2109375;-0.08447265625;3.0;4.5625;4.625;
1441975883902580;-0.51153564453125;0.5291748046875;0.560791015625;0.379150390625;16.71782015426352;14.604539295872367;1.5778786611945674;-0.9287109375;0.2060546875;-0.0810546875;3.875;5.4375;5.5;
1441975883925581;-0.5111083984375;0.53094482421875;0.56011962890625;0.37823486328125;16.697600242830955;14.626423473459283;1.5942083141223327;-0.923828125;0.20263671875;-0.08251953125;4.9375;6.5;6.4375;
1441975883947583;-0.51080322265625;0.53271484375;0.5594482421875;0.3770751953125;16.675683323974656;14.650516217323027;1.613825448650144;-0.93896484375;0.21240234375;-0.083984375;5.8125;7.3125;7.0625;
1441975883962584;-0.51092529296875;0.53411865234375;0.55908203125;0.37554931640625;16.654057005380867;14.673814140151071;1.6368577118746233;-0.958984375;0.2333984375;-0.0966796875;5.0625;7.6875;6.6875;
1441975883985585;-0.511474609375;0.53485107421875;0.55908203125;0.37384033203125;16.636303888388667;14.69264351953938;1.6601746913253042;-0.97509765625;0.244140625;-0.10888671875;1.0625;7.9375;5.6875;
1441975884007586;-0.5123291015625;0.53497314453125;0.559326171875;0.37200927734375;16.62233910630572;14.707774754457242;1.6835245919689927;-0.9921875;0.2421875;-0.109375;-4.125;7.75;4.4375;
1441975884022587;-0.51361083984375;0.5347900390625;0.5594482421875;0.37030029296875;16.612929279064996;14.728764468382382;1.7141105355235995;-0.98779296875;0.2353515625;-0.10107421875;-7.375;7.875;2.9375;
1441975884045588;-0.514892578125;0.5345458984375;0.55938720703125;0.3690185546875;16.607682504004266;14.751052581199643;1.7443717937460743;-0.9697265625;0.2158203125;-0.09765625;-8.75;8.375;1.4375;
1441975884067590;-0.51568603515625;0.534912109375;0.5587158203125;0.36846923828125;16.603541859619657;14.778140374855626;1.7723522714695634;-0.9541015625;0.1875;-0.08642578125;-7.1875;8.625;1.0625;
1441975884082590;-0.5159912109375;0.53607177734375;0.557373046875;0.36834716796875;16.596669357336022;14.812903093310059;1.8011472944273308;-0.9609375;0.18310546875;-0.08154296875;0.0625;8.5;1.1875;
1441975884105592;-0.51617431640625;0.53753662109375;0.55584716796875;0.3682861328125;16.587832868157584;14.85022825868228;1.8305576544805526;-0.9599609375;0.20458984375;-0.1005859375;6.75;8.0625;0.8125;
1441975884127593;-0.5166015625;0.53851318359375;0.5545654296875;0.36822509765625;16.58270139226755;14.883991522085205;1.8592143584724181;-0.96630859375;0.23095703125;-0.1181640625;8.875;7.8125;-0.4375;
1441975884144594;-0.51715087890625;0.53900146484375;0.553466796875;0.368408203125;16.583139788403454;14.91327222350762;1.884954050888441;-0.95263671875;0.23046875;-0.10791015625;6.125;7.5625;-2.25;
1441975884165595;-0.5177001953125;0.5394287109375;0.55194091796875;0.369140625;16.588930760068617;14.948795851401716;1.9142882467507802;-0.93994140625;0.21826171875;-0.09423828125;4.625;6.75;-3.75;
1441975884187596;-0.51776123046875;0.54083251953125;0.5494384765625;0.37078857421875;16.594897869864038;14.997597830506955;1.9471432741812011;-0.91162109375;0.1767578125;-0.08837890625;7.0625;6.4375;-4.3125;
1441975884204597;-0.5169677734375;0.543212890625;0.54608154296875;0.37347412109375;16.60109272664649;15.0519539295043;1.9747735671981799;-0.89306640625;0.1650390625;-0.10986328125;16.75;5.6875;-4.625;
1441975884225599;-0.51519775390625;0.54669189453125;0.5421142578125;0.37646484375;16.599999622125893;15.10697335817354;1.9944981016628687;-0.86474609375;0.15869140625;-0.09326171875;27.5625;5.25;-4.5;
1441975884247600;-0.5133056640625;0.55035400390625;0.53839111328125;0.3790283203125;16.59337204353592;15.15684651523226;2.0101497883012294;-0.857421875;0.2099609375;-0.1044921875;36.1875;5.0;-3.9375;
1441975884264601;-0.51214599609375;0.5526123046875;0.535888671875;0.380859375;16.591466622492188;15.191026356442919;2.021919898741194;-0.8623046875;0.2734375;-0.13623046875;35.25;3.625;-5.5;
1441975884285602;-0.5118408203125;0.55322265625;0.53472900390625;0.38214111328125;16.597908089197656;15.208421339442792;2.0295705224614218;-0.875;0.2783203125;-0.15185546875;23.375;0.8125;-7.5;
1441975884307603;-0.511962890625;0.55255126953125;0.53424072265625;0.383544921875;16.6153117302927;15.215575874597375;2.0335002627797136;-0.87548828125;0.24951171875;-0.15576171875;10.0625;-2.4375;-8.5625;
1441975884324604;-0.5120849609375;0.5518798828125;0.5333251953125;0.38555908203125;16.63810709869448;15.230276536580462;2.041958856725956;-0.85546875;0.18994140625;-0.11767578125;3.25;-4.0625;-8.9375;
1441975884345605;-0.51153564453125;0.55242919921875;0.53131103515625;0.3883056640625;16.65738971663242;15.259130085554496;2.0538200750133466;-0.82763671875;0.12353515625;-0.1015625;6.375;-4.0;-7.625;
1441975884367607;-0.509521484375;0.5548095703125;0.52813720703125;0.39190673828125;16.668401663879656;15.292840907025697;2.05523946177174;-0.79443359375;0.087890625;-0.1064453125;16.8125;-3.125;-5.0;
1441975884391608;-0.506591796875;0.55841064453125;0.52435302734375;0.395751953125;16.671207039837146;15.327666491091522;2.049171158766247;-0.78466796875;0.1005859375;-0.10693359375;31.8125;-2.75;-1.375;
1441975884405609;-0.5029296875;0.56256103515625;0.520263671875;0.3997802734375;16.670516110366734;15.358311708903125;2.033855089433714;-0.79345703125;0.1337890625;-0.11962890625;40.375;-2.6875;0.75;
1441975884427610;-0.49896240234375;0.56671142578125;0.51617431640625;0.40423583984375;16.67313436782699;15.383915426755742;2.011374865187026;-0.8154296875;0.154296875;-0.13427734375;45.3125;-3.9375;2.1875;
1441975884444611;-0.49456787109375;0.571044921875;0.5115966796875;0.4093017578125;16.679220159351715;15.412263037939553;1.986723818618086;-0.83154296875;0.14892578125;-0.138671875;47.25;-6.1875;2.5625;
1441975884465612;-0.4892578125;0.57586669921875;0.506591796875;0.41510009765625;16.686870826862318;15.435264315836621;1.9493453343083023;-0.83203125;0.1240234375;-0.1416015625;51.5625;-8.0;3.0;
1441975884488614;-0.48370361328125;0.5810546875;0.5013427734375;0.4207763671875;16.69059471155858;15.460184651867216;1.9117836916892008;-0.8369140625;0.12353515625;-0.1396484375;58.9375;-10.0625;4.0625;
1441975884503614;-0.47833251953125;0.5855712890625;0.49658203125;0.42620849609375;16.697428148096588;15.476513214654375;1.8702069792090574;-0.8466796875;0.171875;-0.1513671875;61.1875;-9.75;2.75;
1441975884525616;-0.47271728515625;0.589599609375;0.49237060546875;0.43182373046875;16.708949950294095;15.476197581213244;1.8137560833159287;-0.89990234375;0.1787109375;-0.14013671875;57.0;-10.0;2.1875;
1441975884547617;-0.466552734375;0.5933837890625;0.48828125;0.4378662109375;16.724945226420378;15.462483947490284;1.7421429846306071;-0.92529296875;0.1650390625;-0.11328125;54.8125;-11.75;3.125;
1441975884563618;-0.45947265625;0.59735107421875;0.48388671875;0.44482421875;16.745837790067892;15.437764347592704;1.6528502808591954;-0.92822265625;0.13818359375;-0.091796875;56.5625;-14.625;5.75;
1441975884585619;-0.45123291015625;0.60235595703125;0.4786376953125;0.4521484375;16.760369415951892;15.412710834291529;1.553321991277167;-0.896484375;0.07763671875;-0.052734375;62.3125;-16.9375;9.5;
1441975884607620;-0.4417724609375;0.60858154296875;0.472900390625;0.4591064453125;16.760393740460067;15.382509820600406;1.4411284272093878;-0.859375;0.06494140625;-0.03271484375;72.25;-15.8125;13.4375;
1441975884630622;-0.431884765625;0.6151123046875;0.46746826171875;0.46533203125;16.75006476867983;15.343109689223136;1.320481700381927;-0.82861328125;0.08544921875;-0.013671875;79.9375;-12.6875;18.8125;
1441975884645623;-0.42218017578125;0.6217041015625;0.46270751953125;0.47015380859375;16.72617233928754;15.30028046574909;1.2025571614083785;-0.802734375;0.083984375;0.0087890625;79.25;-9.3125;23.8125;
1441975884667624;-0.41278076171875;0.628173828125;0.458984375;0.47357177734375;16.689635248506715;15.250393165419435;1.085702399567316;-0.78271484375;0.0908203125;0.0322265625;73.625;-4.5625;28.5;
1441975884690625;-0.4044189453125;0.63409423828125;0.45599365234375;0.47576904296875;16.647571070210518;15.208627284878446;0.9870617703447114;-0.796875;0.142578125;0.04443359375;65.75;-0.375;30.875;
1441975884705626;-0.396728515625;0.63909912109375;0.453857421875;0.4775390625;16.607959254544394;15.161404825222668;0.8911957160946329;-0.873046875;0.16357421875;0.013671875;55.8125;2.0;31.0625;
1441975884727627;-0.3892822265625;0.643798828125;0.45196533203125;0.47918701171875;16.568962724130003;15.115799781080435;0.7995495393388734;-0.9501953125;0.15576171875;0.00634765625;47.375;1.4375;31.875;
1441975884743628;-0.38177490234375;0.6483154296875;0.45025634765625;0.480712890625;16.52882668100613;15.069359940104853;0.7081754665206301;-1.01171875;0.14990234375;-0.01318359375;44.375;0.125;33.1875;
1441975884765629;-0.3748779296875;0.65264892578125;0.4488525390625;0.48162841796875;16.48570141808789;15.031071762566329;0.6298474482806596;-1.0;0.15673828125;-0.01806640625;43.125;-0.5;33.6875;
1441975884787631;-0.36865234375;0.65643310546875;0.44781494140625;0.48223876953125;16.44476770418337;14.995937272064431;0.5601210299255435;-0.9736328125;0.1767578125;-0.03564453125;38.375;0.1875;32.1875;
1441975884810632;-0.36334228515625;0.65911865234375;0.44720458984375;0.483154296875;16.415404360549523;14.957948275781112;0.4938660560424846;-0.95556640625;0.20458984375;-0.0478515625;33.3125;0.125;28.9375;
1441975884825633;-0.358642578125;0.660888671875;0.4466552734375;0.4847412109375;16.399152718013763;14.917314570156194;0.42776877285253395;-0.96533203125;0.1904296875;-0.0576171875;26.4375;-3.0;24.6875;
1441975884847634;-0.35406494140625;0.66259765625;0.44525146484375;0.487060546875;16.391812440544516;14.886994801515288;0.3679461705625845;-0.96826171875;0.15966796875;-0.0478515625;23.75;-6.4375;21.375;
1441975884870635;-0.34942626953125;0.66448974609375;0.44317626953125;0.48980712890625;16.388270677822494;14.865125032043474;0.31268445549647805;-0.9521484375;0.1513671875;-0.056640625;27.375;-8.125;17.375;
1441975884885636;-0.34503173828125;0.6663818359375;0.4404296875;0.4927978515625;16.389717197129684;14.854308023069667;0.26646901274223667;-0.9150390625;0.15869140625;-0.04736328125;31.75;-7.9375;13.75;
1441975884907638;-0.34100341796875;0.66815185546875;0.43731689453125;0.4959716796875;16.396134770659277;14.850606876329048;0.2272324677405556;-0.88525390625;0.14453125;-0.0439453125;34.0;-6.8125;10.6875;
1441975884930639;-0.33721923828125;0.67010498046875;0.43414306640625;0.49871826171875;16.39935625253226;14.854396933922693;0.19666963629148956;-0.84716796875;0.12451171875;-0.02490234375;34.5625;-5.5625;8.3125;
1441975884952640;-0.33428955078125;0.67156982421875;0.43133544921875;0.5010986328125;16.405337109410404;14.860391110662512;0.17440801460057612;-0.830078125;0.1630859375;-0.03759765625;34.25;-3.5;5.6875;
1441975884967641;-0.33258056640625;0.67230224609375;0.42919921875;0.50311279296875;16.41620174672259;14.866183015261964;0.16088725746338747;-0.84228515625;0.18115234375;-0.05810546875;27.8125;-3.125;2.25;
1441975884990642;-0.331298828125;0.67254638671875;0.42724609375;0.5052490234375;16.43233080213458;14.869104168021584;0.14741131642715286;-0.8564453125;0.1630859375;-0.07763671875;18.875;-3.75;0.4375;
1441975885005643;-0.330078125;0.67315673828125;0.42498779296875;0.50714111328125;16.445649237169675;14.881785900507536;0.14259184907843492;-0.8779296875;0.13037109375;-0.08740234375;15.5;-5.0;0.4375;
1441975885027644;-0.32879638671875;0.67413330078125;0.4228515625;0.508544921875;16.452211671207944;14.898264033822695;0.1420529145175152;-0.87060546875;0.123046875;-0.11181640625;16.5;-4.625;0.8125;
1441975885050646;-0.3280029296875;0.6746826171875;0.4215087890625;0.5093994140625;16.456563445056172;14.908420868368479;0.1417597387865122;-0.8857421875;0.1513671875;-0.14111328125;16.0;-3.25;1.5;
1441975885065647;-0.32806396484375;0.67431640625;0.42095947265625;0.51031494140625;16.468155248426395;14.908346436901834;0.13879766894731652;-0.91162109375;0.17041015625;-0.166015625;9.3125;-4.5;1.5;
1441975885087648;-0.328125;0.67376708984375;0.41998291015625;0.51177978515625;16.486644226389167;14.909545128167995;0.13483389136084017;-0.96337890625;0.14306640625;-0.17724609375;0.875;-6.875;1.1875;
1441975885103649;-0.32720947265625;0.673828125;0.41851806640625;0.51348876953125;16.500578127328644;14.910386198104323;0.12358850633132794;-1.0107421875;0.11865234375;-0.18994140625;3.0625;-9.375;0.9375;
1441975885126650;-0.32568359375;0.6741943359375;0.4168701171875;0.51531982421875;16.511469487283357;14.908587087728517;0.10603251211997539;-1.03125;0.1611328125;-0.22265625;9.625;-12.25;0.625;
1441975885147651;-0.32421875;0.67431640625;0.41558837890625;0.51708984375;16.52236219126676;14.899968005443476;0.08380121701074511;-1.0439453125;0.19873046875;-0.24609375;12.75;-14.625;0.3125;
1441975885171653;-0.32281494140625;0.67401123046875;0.414306640625;0.5194091796875;16.540369533433562;14.88408521519346;0.05425937475846357;-1.029296875;0.2099609375;-0.26953125;10.25;-17.3125;-0.3125;
1441975885186654;-0.3211669921875;0.67352294921875;0.41302490234375;0.5220947265625;16.56108345569157;14.86028850510826;0.01556860091601304;-1.02783203125;0.1865234375;-0.2509765625;10.1875;-19.5;-0.9375;
1441975885207655;-0.31939697265625;0.673095703125;0.41168212890625;0.52471923828125;16.580443942601523;14.836111500221092;17.975866639330025;-1.02099609375;0.17724609375;-0.23046875;11.625;-20.8125;-1.0;
1441975885223656;-0.3175048828125;0.67279052734375;0.4107666015625;0.52703857421875;16.594363893682207;14.806465902131858;17.932154505103;-0.98779296875;0.18603515625;-0.21923828125;12.375;-20.5625;-1.6875;
1441975885246657;-0.31610107421875;0.6722412109375;0.4105224609375;0.5286865234375;16.60419764931094;14.774472219729617;17.8920834686182;-0.97314453125;0.22412109375;-0.21044921875;11.125;-19.75;-1.875;
1441975885267658;-0.31512451171875;0.67144775390625;0.410888671875;0.530029296875;16.612645703016394;14.7376088876753;17.8519281310122;-0.9765625;0.24169921875;-0.20751953125;5.375;-17.9375;-1.875;
1441975885299660;-0.314208984375;0.670654296875;0.41162109375;0.53106689453125;16.617385298805864;14.697940381553959;17.811104738174297;-0.97900390625;0.236328125;-0.18701171875;0.875;-16.5;-1.0625;
1441975885306660;-0.31341552734375;0.6695556640625;0.41253662109375;0.53216552734375;16.623906340017307;14.652762957419696;17.76635373484534;-0.97998046875;0.25634765625;-0.1884765625;-1.375;-16.0;-0.625;
1441975885329662;-0.31231689453125;0.6683349609375;0.413330078125;0.53369140625;16.632784335660748;14.6001491331792;17.712030066206065;-1.0107421875;0.24853515625;-0.173828125;-2.5625;-16.4375;-0.3125;
1441975885343663;-0.31036376953125;0.667236328125;0.41351318359375;0.53607177734375;16.644690311071486;14.539404986738518;17.642400476607072;-1.0390625;0.2412109375;-0.169921875;-1.0;-18.6875;0.5;
1441975885366664;-0.30694580078125;0.666748046875;0.412841796875;0.5391845703125;16.65348152289191;14.473532837921544;17.556712920939347;-1.07666015625;0.2080078125;-0.15771484375;5.5625;-21.9375;2.75;
1441975885387665;-0.3021240234375;0.66717529296875;0.4114990234375;0.54241943359375;16.652501926064904;14.410964024442222;17.46489154410498;-1.080078125;0.2001953125;-0.154296875;16.25;-25.1875;5.5625;
1441975885410666;-0.29693603515625;0.667724609375;0.4105224609375;0.54534912109375;16.643911224387594;14.344131691969263;17.36918387457697;-1.06298828125;0.24267578125;-0.1748046875;25.1875;-26.4375;7.25;
1441975885426667;-0.29217529296875;0.66778564453125;0.40997314453125;0.5482177734375;16.636691824527926;14.271205701032143;17.27151856765188;-1.05029296875;0.28662109375;-0.171875;24.9375;-26.75;7.9375;
1441975885449669;-0.2874755859375;0.66741943359375;0.4090576171875;0.5518798828125;16.637739484396047;14.190140058675906;17.16388684331595;-1.0712890625;0.27685546875;-0.162109375;20.4375;-27.375;7.8125;
1441975885477670;-0.281494140625;0.66748046875;0.40716552734375;0.5562744140625;16.63704870360426;14.106856914644883;17.04369042033771;-1.08837890625;0.22265625;-0.134765625;22.25;-29.875;8.0625;
1441975885486671;-0.2747802734375;0.66796875;0.40509033203125;0.56048583984375;16.627958885821325;14.027746784737994;16.923917486045855;-1.0849609375;0.234375;-0.12060546875;32.375;-31.875;8.1875;
1441975885507672;-0.26837158203125;0.66827392578125;0.4031982421875;0.5645751953125;16.61836667819963;13.949318932598741;16.80716420679638;-1.041015625;0.2822265625;-0.12451171875;35.75;-32.25;7.75;
1441975885537674;-0.261962890625;0.6685791015625;0.4014892578125;0.56842041015625;16.60480359391913;13.873307916270765;16.693951222435654;-1.03076171875;0.2705078125;-0.11767578125;34.125;-31.9375;7.9375;
1441975885546674;-0.25537109375;0.66876220703125;0.39984130859375;0.5723876953125;16.58922477373459;13.793845540237246;16.57683669080541;-1.04931640625;0.28955078125;-0.1025390625;32.375;-30.6875;8.4375;
1441975885567675;-0.24932861328125;0.66851806640625;0.3980712890625;0.57647705078125;16.57894161850519;13.713721839100783;16.461173845839863;-1.06103515625;0.31103515625;-0.09423828125;33.3125;-32.0625;7.9375;
1441975885590677;-0.2430419921875;0.66845703125;0.39605712890625;0.58062744140625;16.56660075997952;13.637938759069693;16.347612691258472;-1.0712890625;0.2822265625;-0.08740234375;31.0;-32.1875;6.8125;
1441975885607678;-0.23712158203125;0.6680908203125;0.39404296875;0.58489990234375;16.557012635742623;13.559721149771457;16.233281518308253;-1.0849609375;0.294921875;-0.09619140625;32.5;-33.1875;6.5;
1441975885627679;-0.2313232421875;0.66741943359375;0.39141845703125;0.58966064453125;16.55392391152108;13.477638261313343;16.112962041313413;-1.08154296875;0.29443359375;-0.08837890625;31.1875;-34.0;4.5;
1441975885650680;-0.22540283203125;0.66705322265625;0.38812255859375;0.5946044921875;16.552853222218143;13.403369930626722;15.996666523898023;-1.0908203125;0.2724609375;-0.07861328125;32.9375;-35.4375;2.4375;
1441975885666681;-0.21929931640625;0.6658935546875;0.38543701171875;0.599853515625;16.547391234496942;13.307041362524439;15.86074981124959;-1.08349609375;0.2822265625;-0.091796875;36.625;-36.3125;-0.5;
1441975885687682;-0.2156982421875;0.66229248046875;0.38330078125;0.60650634765625;16.56488875201702;13.156897215884735;15.68409348039939;-1.12744140625;0.3720703125;-0.0673828125;33.4375;-40.0625;-4.8125;
1441975885710683;-0.21026611328125;0.6580810546875;0.377197265625;0.61676025390625;16.60306985695741;12.958110797754836;15.432197002069131;-1.2197265625;0.265625;-0.03125;19.75;-47.5;-9.625;
1441975885726684;-0.19403076171875;0.6600341796875;0.3641357421875;0.62774658203125;16.59349451351137;12.865697835859493;15.209047213840638;-1.4833984375;0.0068359375;0.1484375;47.6875;-52.8125;-3.8125;
1441975885747686;-0.17144775390625;0.66864013671875;0.34381103515625;0.63653564453125;16.57558002020702;12.950393425053683;15.104710629316678;-1.60693359375;-0.125;0.24169921875;125.25;-51.625;2.5;
1441975885770687;-0.14862060546875;0.680419921875;0.32489013671875;0.6397705078125;16.530141855435918;13.162730547186445;15.13586174078969;-1.533203125;-0.01611328125;0.2060546875;186.9375;-24.8125;10.3125;
1441975885794688;-0.12908935546875;0.69586181640625;0.3076171875;0.63592529296875;16.46945868227865;13.520171138808843;15.335655500292436;-1.59228515625;0.32958984375;0.1708984375;182.625;6.25;25.1875;
1441975885809689;-0.12969970703125;0.703125;0.3026123046875;0.63018798828125;16.474808538665048;13.745300016165917;15.54177140858693;-1.5986328125;0.82666015625;-0.0947265625;163.9375;48.4375;26.1875;
1441975885839691;-0.1329345703125;0.7120361328125;0.28887939453125;0.62591552734375;16.552594453531206;14.070563850107927;15.820405811185335;-1.572265625;-0.07177734375;0.09326171875;28.25;62.9375;29.0625;
1441975885847691;-0.10552978515625;0.7415771484375;0.27496337890625;0.6026611328125;16.21736612607338;14.677169026963428;16.257611289829597;-1.7041015625;-0.69921875;0.16943359375;57.375;82.0625;29.5625;
1441975885867692;-0.078857421875;0.7718505859375;0.26776123046875;0.57122802734375;15.752757676407454;15.112609938366877;16.559710221274656;-1.91162109375;0.3740234375;-0.5986328125;184.625;160.3125;126.0625;
1441975885891694;-0.06939697265625;0.79095458984375;0.2713623046875;0.54388427734375;15.39163787344964;15.320767930700459;16.752835840113434;-1.09033203125;1.40673828125;-0.79931640625;151.8125;192.125;139.8125;
1441975885914695;-0.06195068359375;0.80670166015625;0.27410888671875;0.519775390625;15.07681145049446;15.465176517372527;16.886837836796012;-0.9482421875;0.70166015625;-0.61279296875;31.25;162.3125;99.0625;
1441975885927696;-0.05340576171875;0.8206787109375;0.2752685546875;0.497802734375;14.783512942531441;15.575386267466751;16.975140670157337;-0.99267578125;0.44775390625;-0.611328125;24.0;141.4375;85.6875;
1441975885950697;-0.0465087890625;0.83258056640625;0.27532958984375;0.478271484375;14.529445473141026;15.667519624430886;17.046951711846756;-0.771484375;0.44189453125;-0.60400390625;33.0625;125.5;81.4375;
1441975885974699;-0.040771484375;0.84271240234375;0.27496337890625;0.4609375;14.307102940650946;15.742967478545982;17.104415446987343;-0.60595703125;0.51220703125;-0.58447265625;31.375;110.4375;64.0625;
1441975885997700;-0.03662109375;0.85015869140625;0.273681640625;0.44818115234375;14.146152722191879;15.801454988905892;17.145607522254128;-0.5224609375;0.42529296875;-0.57373046875;24.4375;85.125;48.125;
1441975886012701;-0.0347900390625;0.8543701171875;0.27349853515625;0.44036865234375;14.049730763088611;15.83197580314492;17.171298608948867;-0.49853515625;0.4462890625;-0.53125;23.625;61.4375;28.875;
1441975886026702;-0.034912109375;0.8553466796875;0.2738037109375;0.4383544921875;14.026767587575675;15.838522590492513;17.180671222251377;-0.486328125;0.44482421875;-0.47265625;10.5;36.25;12.25;
1441975886064704;-0.034423828125;0.85565185546875;0.2706298828125;0.439697265625;14.045865991774429;15.857880937090174;17.183046394186558;-0.4716796875;0.37255859375;-0.3681640625;0.125;8.0;-2.125;
1441975886070704;-0.033203125;0.85723876953125;0.2625732421875;0.44158935546875;14.076913157199844;15.913979518370756;17.196873011819594;-0.37451171875;0.30322265625;-0.36328125;16.5625;-13.3125;-12.5625;
1441975886094705;-0.03216552734375;0.8602294921875;0.25640869140625;0.439453125;14.059138453623792;15.971354123014862;17.223209221365625;-0.33984375;0.369140625;-0.45263671875;43.875;-18.6875;-27.0;
1441975886109706;-0.03167724609375;0.86199951171875;0.25701904296875;0.4356689453125;14.012482890134018;15.979915198386959;17.234165528118822;-0.494140625;0.62646484375;-0.53662109375;42.6875;5.4375;-26.5625;
1441975886131708;-0.0318603515625;0.8658447265625;0.25482177734375;0.4293212890625;13.943989153146372;16.023126738576263;17.271232242758604;-0.59765625;0.6689453125;-0.4482421875;9.875;18.5;-8.9375;
1441975886145708;-0.03424072265625;0.8685302734375;0.25830078125;0.42156982421875;13.859149238119507;16.029962761348596;17.307588901965005;-0.49658203125;0.38037109375;-0.62109375;10.3125;25.75;-2.4375;
1441975886169710;-0.03485107421875;0.87322998046875;0.26348876953125;0.40838623046875;13.70233769813664;16.035256696578745;17.345674035428182;-0.787109375;0.54638671875;-0.50390625;-15.9375;49.625;3.1875;
1441975886191711;-0.04388427734375;0.8741455078125;0.27606201171875;0.39697265625;13.59191103570427;15.996286639898731;17.409099424019008;-0.42919921875;0.6171875;-0.8671875;-26.5;47.9375;11.0625;
1441975886205712;-0.0576171875;0.87176513671875;0.2919921875;0.38909912109375;13.54050546316469;15.93010107087683;17.479851136847245;-0.5458984375;0.5341796875;-0.67431640625;-86.25;56.5625;-7.8125;
1441975886229713;-0.0751953125;0.86767578125;0.308837890625;0.382080078125;13.520023117930704;15.861207389096823;17.569356443038814;-0.4814453125;0.42041015625;-0.64404296875;-118.125;48.0;-22.0;
1441975886250714;-0.09539794921875;0.86187744140625;0.3267822265625;0.37579345703125;13.524846623287512;15.785490217573393;17.668985193469826;-0.5048828125;0.3359375;-0.58154296875;-134.5;47.5;-39.5625;
1441975886265715;-0.11859130859375;0.85400390625;0.34539794921875;0.3704833984375;13.562277734758919;15.705850258623615;17.781146981956365;-0.501953125;0.35693359375;-0.53369140625;-147.875;44.1875;-52.875;
1441975886289717;-0.1444091796875;0.844482421875;0.36407470703125;0.365234375;13.622438830562182;15.628840399481707;17.908702619300147;-0.4833984375;0.36865234375;-0.4951171875;-160.75;40.4375;-69.25;
1441975886311718;-0.17095947265625;0.833740234375;0.38226318359375;0.35980224609375;13.694640270680079;15.555105446342758;0.04193983671550374;-0.5390625;0.3681640625;-0.455078125;-169.75;42.6875;-82.5625;
1441975886325719;-0.19781494140625;0.82147216796875;0.400146484375;0.35479736328125;13.783907350626958;15.48068396258017;0.17535330558703421;-0.58251953125;0.36328125;-0.435546875;-171.8125;43.0625;-87.5625;
1441975886355720;-0.22491455078125;0.80755615234375;0.41766357421875;0.350341796875;13.89190657106515;15.405643103813738;0.3084616069748007;-0.57958984375;0.28173828125;-0.416015625;-174.4375;39.0;-90.6875;
1441975886377722;-0.25054931640625;0.79400634765625;0.43133544921875;0.3472900390625;14.015078706589453;15.355498606709276;0.44118299381813164;-0.57470703125;0.22607421875;-0.37109375;-176.25;34.3125;-95.625;
1441975886385722;-0.27532958984375;0.78131103515625;0.44219970703125;0.34375;14.132338063550971;15.329823113193122;0.5826708128258417;-0.576171875;0.2548828125;-0.38330078125;-152.9375;29.5625;-99.625;
1441975886409723;-0.2998046875;0.768310546875;0.45257568359375;0.33905029296875;14.240934434715058;15.310804782266297;0.7301631169414958;-0.591796875;0.2578125;-0.45166015625;-137.4375;34.0;-98.8125;
1441975886430725;-0.3232421875;0.75518798828125;0.46209716796875;0.3341064453125;14.345609735756181;15.297973284234656;0.8769885330138464;-0.67236328125;0.28076171875;-0.50927734375;-137.8125;38.6875;-95.875;
1441975886445726;-0.34454345703125;0.7432861328125;0.46929931640625;0.32928466796875;14.439122473076926;15.301992320195112;1.0210338076280885;-0.728515625;0.29345703125;-0.53466796875;-132.6875;37.5;-92.5625;
1441975886468727;-0.3641357421875;0.73382568359375;0.47259521484375;0.3248291015625;14.51800367950215;15.341302729769758;1.173487932756207;-0.7509765625;0.27490234375;-0.51708984375;-115.125;38.4375;-85.375;
1441975886490728;-0.380126953125;0.7261962890625;0.4749755859375;0.320068359375;14.569478379976367;15.379786516408638;1.3056680484046013;-0.7607421875;0.24853515625;-0.482421875;-94.625;38.0;-73.5625;
1441975886505729;-0.39263916015625;0.72119140625;0.47601318359375;0.31475830078125;14.587863742110992;15.421364586921857;1.4193755293736283;-0.74951171875;0.2958984375;-0.45458984375;-77.625;36.125;-59.25;
1441975886529730;-0.4031982421875;0.7174072265625;0.47674560546875;0.30877685546875;14.585194702859889;15.459202806663873;1.5204827155617606;-0.6923828125;0.30078125;-0.43359375;-58.75;36.3125;-42.875;
1441975886551732;-0.41192626953125;0.71490478515625;0.47760009765625;0.30169677734375;14.55811609773129;15.489161085220893;1.6077536017918566;-0.6669921875;0.3095703125;-0.40234375;-50.4375;38.4375;-32.0625;
1441975886565732;-0.4190673828125;0.712646484375;0.47967529296875;0.2939453125;14.518617577160226;15.50016099196535;1.6761909623551376;-0.66455078125;0.37451171875;-0.40771484375;-45.0;39.9375;-22.25;
1441975886589734;-0.42535400390625;0.7099609375;0.4827880859375;0.28607177734375;14.478555382730502;15.496325911799127;1.7320544659292783;-0.68505859375;0.4140625;-0.37353515625;-46.1875;38.375;-12.5625;
1441975886610735;-0.4298095703125;0.7091064453125;0.48431396484375;0.2789306640625;14.428836481133322;15.500210726628941;1.7776844999039554;-0.70849609375;0.3291015625;-0.33154296875;-51.375;36.9375;-2.1875;
1441975886626736;-0.43133544921875;0.71148681640625;0.4830322265625;0.272705078125;14.358984900262673;15.519334857837492;1.808710401351262;-0.71044921875;0.26953125;-0.29248046875;-35.375;38.25;9.0;
1441975886648737;-0.43121337890625;0.7154541015625;0.4805908203125;0.2667236328125;14.276763608122591;15.542423551925014;1.8296309985263823;-0.6962890625;0.30224609375;-0.2763671875;-6.4375;39.75;19.875;
1441975886670738;-0.42987060546875;0.72015380859375;0.4781494140625;0.26055908203125;14.185280496282072;15.560368218842775;1.8399590765794893;-0.703125;0.36181640625;-0.27001953125;7.5;40.625;25.4375;
1441975886685739;-0.4281005859375;0.72467041015625;0.47637939453125;0.25408935546875;14.09143045537197;15.570050519512593;1.84417841477743;-0.70166015625;0.400390625;-0.25634765625;12.75;40.75;31.0625;
1441975886709741;-0.42535400390625;0.729736328125;0.4749755859375;0.246826171875;13.984719970248165;15.572951235463412;1.8403633026805857;-0.71240234375;0.38037109375;-0.21435546875;10.375;41.9375;36.1875;
1441975886730742;-0.42218017578125;0.7349853515625;0.4737548828125;0.23883056640625;13.869021361044027;15.572532535856013;1.8340159283390256;-0.70263671875;0.43115234375;-0.20361328125;11.75;43.8125;42.4375;
1441975886745743;-0.41876220703125;0.74053955078125;0.47216796875;0.23089599609375;13.75117200928964;15.574649773521672;1.8271286725931626;-0.68603515625;0.45361328125;-0.18310546875;11.9375;46.6875;45.75;
1441975886769744;-0.4146728515625;0.74664306640625;0.469970703125;0.22271728515625;13.625443804139644;15.579563174306333;1.8179380019690754;-0.693359375;0.4443359375;-0.189453125;14.25;47.375;48.8125;
1441975886789745;-0.4097900390625;0.7535400390625;0.46734619140625;0.21380615234375;13.485686371892536;15.58565430651699;1.8056551723571237;-0.693359375;0.49853515625;-0.21728515625;19.625;48.5625;51.125;
1441975886805746;-0.4046630859375;0.76068115234375;0.464599609375;0.2041015625;13.336116578913094;15.59175115925334;1.7936149413527978;-0.68408203125;0.55029296875;-0.24365234375;23.875;50.6875;55.9375;
1441975886829748;-0.39984130859375;0.7672119140625;0.4627685546875;0.193359375;13.181620970694086;15.590884741305937;1.7833242899611155;-0.64990234375;0.54296875;-0.26123046875;22.9375;52.6875;59.875;
1441975886857749;-0.39508056640625;0.7730712890625;0.46197509765625;0.18115234375;13.017652365599526;15.581146918570363;1.7740720789921645;-0.61572265625;0.57373046875;-0.26904296875;15.5625;54.9375;59.875;
1441975886867750;-0.39111328125;0.77691650390625;0.46380615234375;0.16815185546875;12.861662454184104;15.552884020163374;1.766168695009702;-0.60888671875;0.61669921875;-0.27587890625;7.125;58.5;62.1875;
1441975886896751;-0.3870849609375;0.7803955078125;0.46563720703125;0.15594482421875;12.714875181080947;15.525307991964361;1.7577106414927615;-0.59130859375;0.57275390625;-0.26416015625;-13.75;57.0;61.8125;
1441975886911752;-0.3828125;0.78387451171875;0.46636962890625;0.14642333984375;12.591974756353908;15.50711018654524;1.7461140781488835;-0.59130859375;0.53564453125;-0.27197265625;-14.625;52.6875;62.25;
1441975886926753;-0.3775634765625;0.788330078125;0.46527099609375;0.13946533203125;12.483805612949974;15.502454396537882;1.7277401623898445;-0.64990234375;0.5595703125;-0.30078125;-3.6875;44.1875;58.0;
1441975886948754;-0.37200927734375;0.792236328125;0.46490478515625;0.13348388671875;12.387676257900239;15.492875144492245;1.7044478168248065;-0.67529296875;0.615234375;-0.40087890625;10.9375;32.4375;55.9375;
1441975886970756;-0.36676025390625;0.794189453125;0.46710205078125;0.1285400390625;12.314931711442881;15.46618924574525;1.676572870048725;-0.67138671875;0.71826171875;-0.4970703125;8.125;21.8125;51.25;
1441975886985756;-0.3619384765625;0.79510498046875;0.47027587890625;0.12469482421875;12.259973702120538;15.434117056704313;1.647926310196687;-0.66162109375;0.7177734375;-0.53857421875;-9.0625;9.25;45.25;
1441975887016758;-0.35723876953125;0.79583740234375;0.4732666015625;0.1221923828125;12.218725551417656;15.404646278130754;1.618086555642397;-0.66650390625;0.66845703125;-0.55908203125;-17.875;2.0625;41.9375;
1441975887031759;-0.35205078125;0.79681396484375;0.47601318359375;0.1204833984375;12.181578892490394;15.37702421907181;1.584348463668054;-0.67041015625;0.63134765625;-0.56494140625;-16.8125;-3.625;39.3125;
1441975887045760;-0.34600830078125;0.79827880859375;0.47833251953125;0.11883544921875;12.138569734091083;15.351442133499905;1.546495630768043;-0.66650390625;0.626953125;-0.5478515625;-13.0;-7.375;40.6875;
1441975887082762;-0.33966064453125;0.8001708984375;0.4801025390625;0.1173095703125;12.092591048206877;15.329881122666592;1.5079404120427544;-0.63671875;0.626953125;-0.541015625;-9.125;-9.1875;44.125;
1441975887091762;-0.33245849609375;0.80267333984375;0.48126220703125;0.11651611328125;12.046732652535367;15.312342882685927;1.464057695653689;-0.58642578125;0.5888671875;-0.5244140625;-5.5625;-10.6875;45.3125;
1441975887105763;-0.32427978515625;0.80596923828125;0.48138427734375;0.11602783203125;11.995155163680995;15.301215175492372;1.415992416192834;-0.5693359375;0.57861328125;-0.4794921875;1.9375;-13.625;47.9375;
1441975887128765;-0.315673828125;0.8094482421875;0.48138427734375;0.11553955078125;11.94062326131463;15.290878111484036;1.3660118854005494;-0.53564453125;0.62890625;-0.47998046875;12.0625;-15.875;49.5625;
1441975887151766;-0.30706787109375;0.8125;0.48175048828125;0.11572265625;11.894351648225886;15.278378078717571;1.3142192604341203;-0.50537109375;0.66796875;-0.4873046875;13.875;-17.9375;49.5;
1441975887165767;-0.29876708984375;0.81500244140625;0.48272705078125;0.115966796875;11.852155410938236;15.2622350498057;1.2633840419476698;-0.5078125;0.66552734375;-0.490234375;11.875;-21.75;48.125;
1441975887188768;-0.2911376953125;0.8170166015625;0.48394775390625;0.11602783203125;11.812586455218964;15.245212001401217;1.2168730027487815;-0.47021484375;0.66259765625;-0.458984375;8.8125;-22.8125;44.4375;
1441975887211769;-0.2843017578125;0.81842041015625;0.48553466796875;0.1160888671875;11.77853845938493;15.226531010000901;1.1746557061188205;-0.431640625;0.6767578125;-0.45263671875;5.9375;-21.9375;39.1875;
1441975887232771;-0.27801513671875;0.819580078125;0.48724365234375;0.1160888671875;11.746861246050432;15.207896745337724;1.135778931807752;-0.423828125;0.6708984375;-0.44580078125;2.0;-20.5625;34.8125;
1441975887256772;-0.27203369140625;0.82073974609375;0.48858642578125;0.11639404296875;11.7189637161798;15.192274368682211;1.0987088229014736;-0.3994140625;0.6611328125;-0.462890625;-1.375;-20.6875;31.8125;
1441975887271773;-0.26641845703125;0.8218994140625;0.48974609375;0.116455078125;11.689931369444798;15.178505224310639;1.064834472387425;-0.39892578125;0.630859375;-0.49072265625;-2.125;-21.25;30.3125;
1441975887292774;-0.260986328125;0.822998046875;0.490966796875;0.11602783203125;11.656896811272903;15.164651069924616;1.0333558337764643;-0.3916015625;0.62646484375;-0.5087890625;-3.125;-19.9375;29.25;
1441975887308775;-0.25567626953125;0.8238525390625;0.49249267578125;0.114990234375;11.61908448948021;15.148752329182162;1.0039056472533223;-0.39453125;0.6455078125;-0.52490234375;-5.0625;-17.0625;29.6875;
1441975887331776;-0.25042724609375;0.82513427734375;0.493408203125;0.113525390625;11.575453373582846;15.137625785492274;0.9771120106255097;-0.39453125;0.64208984375;-0.49658203125;-7.125;-13.625;31.25;
1441975887352777;-0.24530029296875;0.826904296875;0.49346923828125;0.11181640625;11.527968452921689;15.132911319067063;0.9531720740890277;-0.39306640625;0.638671875;-0.482421875;-3.1875;-9.875;32.625;
1441975887368778;-0.240234375;0.82904052734375;0.49267578125;0.11004638671875;11.47865945193498;15.134169739139463;0.9311946484833874;-0.39404296875;0.6591796875;-0.486328125;2.3125;-6.5;32.875;
1441975887391780;-0.2354736328125;0.831298828125;0.49176025390625;0.10760498046875;11.42383110761282;15.136963644996667;0.9129435729332812;-0.3974609375;0.67822265625;-0.5107421875;6.3125;-4.625;32.8125;
1441975887412781;-0.23101806640625;0.8336181640625;0.4906005859375;0.1048583984375;11.367260023328697;15.141830737506423;0.8975912780979904;-0.37646484375;0.6923828125;-0.5302734375;5.9375;-1.75;32.375;
1441975887428782;-0.22662353515625;0.836181640625;0.4888916015625;0.10186767578125;11.307701284316368;15.150499895987679;0.8840271926027464;-0.359375;0.6806640625;-0.53125;6.0625;1.1875;31.5;
1441975887451783;-0.22216796875;0.83880615234375;0.48712158203125;0.098388671875;11.242869612484014;15.159567288958208;0.8714906140587898;-0.3427734375;0.6669921875;-0.51171875;9.6875;3.6875;31.75;
1441975887473784;-0.21795654296875;0.84124755859375;0.48553466796875;0.0948486328125;11.179300975685418;15.167609908438966;0.8601544817564022;-0.30224609375;0.7041015625;-0.50439453125;11.5;5.1875;31.1875;
1441975887488785;-0.21417236328125;0.8436279296875;0.4837646484375;0.09130859375;11.118002133656539;15.17716697537546;0.8513280507081085;-0.27392578125;0.7041015625;-0.48681640625;11.0625;5.6875;28.875;
1441975887511787;-0.21075439453125;0.84588623046875;0.48199462890625;0.0877685546875;11.058902761578754;15.186961755554623;0.8444129131748435;-0.26806640625;0.7080078125;-0.48486328125;11.8125;7.375;26.5;
1441975887532788;-0.207763671875;0.84783935546875;0.4803466796875;0.08447265625;11.00525374885586;15.195974648669266;0.8389621776373591;-0.25537109375;0.71142578125;-0.4912109375;11.4375;8.1875;24.625;
1441975887548789;-0.2052001953125;0.84930419921875;0.47943115234375;0.08154296875;10.959031767724865;15.200497188150482;0.8339184276805667;-0.25;0.7138671875;-0.4951171875;10.0625;8.0;21.625;
1441975887571790;-0.20294189453125;0.85052490234375;0.47857666015625;0.079345703125;10.922309826439006;15.204687767655031;0.8285223501573904;-0.26904296875;0.7294921875;-0.49560546875;6.3125;7.1875;19.0625;
1441975887592791;-0.20111083984375;0.85174560546875;0.47747802734375;0.077880859375;10.894934764809204;15.210956833984072;0.8237466411867496;-0.27197265625;0.70361328125;-0.498046875;4.8125;4.8125;16.8125;
1441975887608792;-0.199462890625;0.852783203125;0.476318359375;0.07720947265625;10.876848517260127;15.217545879647568;0.8179572399540579;-0.28466796875;0.693359375;-0.4951171875;6.375;3.0;13.6875;
1441975887631793;-0.197998046875;0.8538818359375;0.47503662109375;0.0771484375;10.865606880959287;15.225362927296016;0.8116507981143408;-0.30712890625;0.68798828125;-0.4853515625;7.5;1.1875;12.0;
1441975887652795;-0.19659423828125;0.85479736328125;0.473876953125;0.077880859375;10.86316497303897;15.23236715719645;0.8034766495302336;-0.3095703125;0.681640625;-0.48828125;8.6875;-1.25;9.625;
1441975887668795;-0.19549560546875;0.85552978515625;0.4727783203125;0.07928466796875;10.869481889184026;15.239139296492132;0.7951358363650961;-0.30908203125;0.6787109375;-0.4619140625;9.9375;-4.25;7.0;
1441975887691797;-0.19451904296875;0.85614013671875;0.47174072265625;0.0814208984375;10.884119452487546;15.245611849433686;0.7854892986423565;-0.3037109375;0.6630859375;-0.45166015625;10.0625;-6.875;3.5;
1441975887712798;-0.1937255859375;0.85675048828125;0.47027587890625;0.08465576171875;10.91053983003259;15.254847950812861;0.7744919680051011;-0.2861328125;0.65087890625;-0.43896484375;10.5;-10.875;-0.0625;
1441975887728799;-0.19287109375;0.8575439453125;0.4683837890625;0.0887451171875;10.944697572073165;15.26692967237421;0.7614661960945686;-0.2841796875;0.60791015625;-0.41796875;13.0625;-14.8125;-3.25;
1441975887751800;-0.19232177734375;0.858154296875;0.46649169921875;0.09405517578125;10.99318715432228;15.27913684239251;0.7469903908433162;-0.27685546875;0.58984375;-0.400390625;17.375;-18.875;-6.0;
1441975887772801;-0.1920166015625;0.85833740234375;0.46484375;0.10107421875;11.061330289529124;15.289471951778431;0.729217849530762;-0.29541015625;0.57470703125;-0.404296875;17.5;-23.625;-9.625;
1441975887788802;-0.192138671875;0.85809326171875;0.4632568359375;0.1099853515625;11.151807110105043;15.299048354372008;0.7088738946780929;-0.337890625;0.53564453125;-0.3896484375;16.375;-29.9375;-13.3125;
1441975887810804;-0.19256591796875;0.85772705078125;0.4610595703125;0.1207275390625;11.262504380258951;15.311967406093997;0.6863319072250689;-0.37109375;0.48583984375;-0.3642578125;16.125;-37.0625;-18.4375;
1441975887832805;-0.19342041015625;0.857177734375;0.45819091796875;0.13330078125;11.394273322476174;15.328460218772918;0.6624531379647913;-0.38720703125;0.439453125;-0.34912109375;19.8125;-44.125;-24.0625;
1441975887848806;-0.19451904296875;0.85662841796875;0.4544677734375;0.1473388671875;11.542172940270344;15.349650329977477;0.6376030764037578;-0.404296875;0.37646484375;-0.30810546875;24.4375;-50.375;-29.9375;
1441975887870807;-0.196044921875;0.85565185546875;0.4503173828125;0.1627197265625;11.707148770592154;15.372297151664622;0.6126342393683667;-0.40771484375;0.35009765625;-0.29736328125;29.75;-55.625;-35.8125;
1441975887892808;-0.1981201171875;0.854248046875;0.44580078125;0.17950439453125;11.890443972165718;15.396225093890822;0.5880889755689978;-0.4248046875;0.32763671875;-0.27001953125;32.75;-60.5;-41.625;
1441975887908809;-0.200439453125;0.8521728515625;0.44091796875;0.19769287109375;12.091465584573395;15.420219476202313;0.5622732241803305;-0.46630859375;0.294921875;-0.26123046875;34.0;-64.6875;-46.6875;
1441975887930810;-0.203369140625;0.849365234375;0.435791015625;0.21722412109375;12.311514949330057;15.444021493233572;0.5372620391544589;-0.5126953125;0.28466796875;-0.24658203125;35.6875;-69.375;-51.4375;
1441975887953812;-0.2066650390625;0.84576416015625;0.43035888671875;0.2381591796875;12.550393112446429;15.467281906351285;0.5115658511482548;-0.57470703125;0.25927734375;-0.26123046875;34.75;-74.375;-56.5;
1441975887968813;-0.21051025390625;0.84100341796875;0.42523193359375;0.25982666015625;12.803208175737954;15.485790058336283;0.4864834643816207;-0.6240234375;0.24072265625;-0.24365234375;35.375;-79.3125;-61.375;
1441975887990814;-0.21514892578125;0.8350830078125;0.4202880859375;0.28216552734375;13.070538295829092;15.500770039093513;0.4636828705259598;-0.66064453125;0.24609375;-0.23876953125;32.0;-83.0625;-67.3125;
1441975888013815;-0.220458984375;0.8282470703125;0.414794921875;0.30535888671875;13.353429084119036;15.517321742296684;0.4438761841308686;-0.70654296875;0.22998046875;-0.2294921875;27.9375;-85.75;-73.4375;
1441975888028816;-0.22601318359375;0.820556640625;0.40850830078125;0.32952880859375;13.651459710811524;15.536284125445434;0.4249101488559061;-0.7802734375;0.2138671875;-0.240234375;27.125;-88.5625;-78.625;
1441975888050817;-0.23187255859375;0.8118896484375;0.401611328125;0.3546142578125;13.964803929381766;15.556528849507918;0.4069989959886946;-0.8681640625;0.2255859375;-0.26806640625;29.75;-93.5625;-84.1875;
1441975888073819;-0.2366943359375;0.80291748046875;0.39569091796875;0.377685546875;14.254969660568365;15.566170098361109;0.38372496501663067;-0.9453125;0.2294921875;-0.283203125;30.3125;-98.6875;-90.3125;
1441975888088820;-0.2423095703125;0.7926025390625;0.38983154296875;0.40130615234375;14.560018338293512;15.572158989554442;0.36215524487220646;-0.99755859375;0.24169921875;-0.283203125;27.125;-103.625;-95.25;
1441975888110821;-0.24859619140625;0.78082275390625;0.3839111328125;0.4254150390625;14.87988120128844;15.57428522719879;0.3413738089205642;-1.0458984375;0.2412109375;-0.27587890625;23.125;-107.5;-101.8125;
1441975888133822;-0.25518798828125;0.76800537109375;0.3775634765625;0.4498291015625;15.21006674059651;15.57537046319766;0.32087843426015694;-1.09033203125;0.21826171875;-0.2646484375;19.0625;-111.875;-108.4375;
1441975888154823;-0.26190185546875;0.75421142578125;0.37060546875;0.47442626953125;15.54902692754841;15.576400560917053;0.3003586287630051;-1.1396484375;0.1923828125;-0.24609375;18.25;-114.75;-112.875;
1441975888170824;-0.2686767578125;0.7393798828125;0.36346435546875;0.4989013671875;15.893564091666985;15.572162303261432;0.27658808721707123;-1.17578125;0.17431640625;-0.2509765625;18.9375;-117.5625;-117.375;
1441975888193826;-0.2760009765625;0.7236328125;0.3564453125;0.5225830078125;16.238399165510405;15.564255027806736;0.255004256162463;-1.23974609375;0.15869140625;-0.2373046875;17.25;-119.75;-119.875;
1441975888215827;-0.28411865234375;0.7069091796875;0.349365234375;0.54541015625;16.585024769340432;15.558424690757992;0.2416747023873309;-1.30224609375;0.15625;-0.24755859375;11.75;-118.8125;-122.125;
1441975888230828;-0.2918701171875;0.68951416015625;0.3411865234375;0.5682373046875;16.9376072238607;15.55770016733325;0.22942162927978452;-1.369140625;0.10546875;-0.22509765625;6.4375;-117.0625;-125.4375;
1441975888253829;-0.299072265625;0.67120361328125;0.33203125;0.59136962890625;17.29969454579689;15.550430288561198;0.20627061922626722;-1.38134765625;0.10107421875;-0.2158203125;10.875;-118.8125;-129.5;
1441975888275830;-0.3057861328125;0.65155029296875;0.32183837890625;0.61505126953125;17.676855028731634;15.49504361453867;0.1309702682203878;-1.4140625;0.115234375;-0.2314453125;15.375;-123.9375;-133.875;
1441975888290831;-0.312255859375;0.6309814453125;0.31085205078125;0.63848876953125;17.93811272449404;7.163238958140516;9.777608267062377;-1.44482421875;0.10107421875;-0.25927734375;19.4375;-130.875;-140.0625;
1441975888314832;-0.31866455078125;0.6094970703125;0.29913330078125;0.661376953125;17.550692193259216;6.672239288232583;9.264772717154802;-1.4560546875;0.10888671875;-0.2509765625;21.3125;-133.5;-144.1875;
1441975888335834;-0.32440185546875;0.5872802734375;0.28656005859375;0.683837890625;17.15886575530215;6.646405627510372;9.213528506814859;-1.4423828125;0.08984375;-0.24853515625;21.625;-134.625;-148.4375;
1441975888350835;-0.329345703125;0.56451416015625;0.273681640625;0.70562744140625;16.76844048601997;6.653776021350966;9.193480683480804;-1.42578125;0.06689453125;-0.22119140625;25.3125;-136.375;-150.6875;
1441975888374836;-0.33349609375;0.5408935546875;0.260498046875;0.726806640625;16.376095185404786;6.672840544865902;9.183433447489326;-1.39111328125;0.06396484375;-0.18994140625;27.1875;-137.25;-150.0;
1441975888396837;-0.33660888671875;0.51702880859375;0.246826171875;0.74725341796875;15.98729220333172;6.696155628648205;9.173371485623598;-1.322265625;0.03857421875;-0.17578125;29.125;-140.25;-150.125;
1441975888410838;-0.3389892578125;0.4940185546875;0.23333740234375;0.765869140625;15.61961268836325;6.716556635388973;9.15963447387053;-1.27197265625;0.02392578125;-0.1552734375;33.5;-139.5625;-148.4375;
1441975888441840;-0.34136962890625;0.4718017578125;0.22021484375;0.78253173828125;15.271862048453782;6.729010187833855;9.140890124106807;-1.2353515625;0.04541015625;-0.140625;33.5625;-132.875;-142.75;
1441975888454840;-0.3436279296875;0.450439453125;0.2073974609375;0.7974853515625;14.942866296215215;6.737191828680936;9.119593522557679;-1.15087890625;0.046875;-0.1513671875;29.8125;-124.875;-137.0;
1441975888470841;-0.344970703125;0.43035888671875;0.19482421875;0.81103515625;14.635981537660026;6.748694040270652;9.098777221188715;-1.06982421875;-0.00439453125;-0.0986328125;27.3125;-116.1875;-131.1875;
1441975888501843;-0.3448486328125;0.411865234375;0.182373046875;0.823486328125;14.352907837941443;6.767402142760602;9.078577639312144;-0.9775390625;-0.033203125;-0.0771484375;29.875;-108.25;-122.6875;
1441975888515844;-0.34307861328125;0.395751953125;0.17041015625;0.8345947265625;14.1039781507101;6.793441578650974;9.058777511693268;-0.896484375;-0.04833984375;-0.0791015625;35.9375;-99.5625;-114.0625;
1441975888530845;-0.34063720703125;0.38714599609375;0.1622314453125;0.84124755859375;13.96361449412132;6.814427139819527;9.040703922334629;-0.8505859375;0.01708984375;-0.09423828125;42.5;-88.5625;-102.25;
1441975888553846;-0.34002685546875;0.38153076171875;0.1561279296875;0.84521484375;13.86914233988944;6.8172879041538765;9.019364981458848;-0.76953125;0.17529296875;-0.1513671875;33.5;-75.6875;-90.625;
1441975888575847;-0.34051513671875;0.38067626953125;0.1529541015625;0.845947265625;13.844464929108648;6.806483964306268;8.99797059702544;-0.72265625;0.23779296875;-0.21630859375;17.9375;-59.4375;-77.9375;
1441975888590848;-0.34271240234375;0.3841552734375;0.1527099609375;0.84356689453125;13.88359710565414;6.777778011066358;8.975331949372281;-0.70556640625;0.31640625;-0.337890625;5.25;-40.0625;-57.8125;
1441975888613850;-0.34564208984375;0.39215087890625;0.15472412109375;0.83831787109375;13.986054049716216;6.735230941024814;8.948127063954669;-0.7275390625;0.3740234375;-0.43408203125;-10.125;-21.625;-39.4375;
1441975888636851;-0.347412109375;0.40704345703125;0.160400390625;0.829345703125;14.187547365403065;6.689267243373122;8.922171776987799;-0.68408203125;0.39892578125;-0.50146484375;-18.75;0.75;-19.1875;
1441975888650852;-0.34881591796875;0.4281005859375;0.17132568359375;0.81585693359375;14.48977623362463;6.635660596125026;8.904809508535587;-0.771484375;0.56591796875;-0.59716796875;-24.375;26.75;6.875;
1441975888673853;-0.3475341796875;0.4578857421875;0.1851806640625;0.7969970703125;14.91637466268839;6.5707400977917425;8.87092847488003;-0.8974609375;0.68896484375;-0.63818359375;-39.875;50.1875;38.125;
1441975888694854;-0.34600830078125;0.48223876953125;0.19622802734375;0.78045654296875;15.270037119301064;6.504591173741298;8.828593666110335;-0.99951171875;0.7294921875;-0.734375;-34.25;89.3125;76.25;
1441975888717855;-0.3414306640625;0.5150146484375;0.21124267578125;0.75732421875;15.756837056778858;6.413640205120262;8.761536681529174;-1.13671875;0.86669921875;-0.86669921875;-29.125;130.9375;120.625;
1441975888733856;-0.33380126953125;0.55621337890625;0.2310791015625;0.72503662109375;16.393365490650503;6.244466741936723;8.623649789915824;-1.2099609375;0.919921875;-0.95703125;-30.0625;175.625;170.6875;
1441975888754858;-0.32183837890625;0.6060791015625;0.25604248046875;0.6807861328125;17.192667851484803;5.722301590052517;8.14059999595301;-1.421875;0.99169921875;-0.9560546875;-38.9375;226.3125;228.875;
1441975888770859;-0.306640625;0.6605224609375;0.286865234375;0.622314453125;17.651323137037142;0.12685712411805794;2.6096242171169175;-1.6884765625;0.96826171875;-0.90380859375;-48.5;285.1875;296.5625;
1441975888793860;-0.2911376953125;0.71197509765625;0.32342529296875;0.55108642578125;16.667329293423478;16.135323311509296;0.729921956359417;-2.255859375;1.11962890625;-0.91064453125;-76.0;337.75;360.375;
1441975888814861;-0.268798828125;0.75738525390625;0.3592529296875;0.47430419921875;15.57379204668864;15.763100550291668;0.4648531218344986;-2.8076171875;1.099609375;-0.96826171875;-124.125;365.0625;398.3125;
1441975888830862;-0.25274658203125;0.78399658203125;0.402099609375;0.399658203125;14.609543704812857;15.490541238777004;0.38585734688339585;-3.12939453125;1.296875;-1.5380859375;-120.3125;357.0625;424.5625;
1441975888853863;-0.24151611328125;0.79461669921875;0.4478759765625;0.3310546875;13.794561419978717;15.225938750793182;0.374383520350243;-3.267578125;1.7578125;-1.626953125;-203.375;298.6875;382.125;
1441975888875865;-0.228271484375;0.7989501953125;0.4814453125;0.27874755859375;13.17026695218997;15.034086673210531;0.3707729568595483;-3.279296875;0.94287109375;-1.37841796875;-255.8125;240.9375;329.9375;
1441975888890865;-0.2066650390625;0.802978515625;0.500732421875;0.2484130859375;12.729743406683161;14.906551840517137;0.2998979399951024;-3.6220703125;-0.1337890625;-1.09375;-189.1875;166.25;264.8125;
1441975888913867;-0.1845703125;0.8092041015625;0.5098876953125;0.2259521484375;12.36383465340985;14.8496091375267;0.23526706929878585;-3.8701171875;-0.26123046875;-0.14501953125;-82.3125;60.625;218.875;
1441975888936868;-0.1685791015625;0.812744140625;0.52069091796875;0.199462890625;11.998951902581931;14.794238218036806;0.21955837089600586;-3.271484375;-0.44189453125;0.2958984375;-19.5625;37.75;186.4375;
1441975888950869;-0.16162109375;0.8072509765625;0.54205322265625;0.168212890625;11.654127638781478;14.671405748281703;0.25197596362733327;-2.59619140625;-0.25830078125;0.35546875;-47.0;69.4375;169.125;
1441975888973870;-0.156494140625;0.79937744140625;0.5638427734375;0.13592529296875;11.319309235623399;14.54242891233682;0.3026474906193504;-2.005859375;-0.36767578125;0.44384765625;-138.3125;97.875;145.0;
1441975888996871;-0.15447998046875;0.79217529296875;0.5799560546875;0.11004638671875;11.070662432023507;14.444980760695088;0.3596450667689991;-1.6787109375;-0.7275390625;0.2734375;-150.4375;105.625;137.9375;
1441975889010872;-0.158203125;0.78509521484375;0.59112548828125;0.095703125;10.971312479786087;14.37415246235984;0.4130600285086122;-1.13720703125;-0.46484375;0.0107421875;-120.6875;98.4375;118.9375;
1441975889033874;-0.1607666015625;0.7779541015625;0.6015625;0.083984375;10.891092220185376;14.304320063679679;0.4533890754315091;-0.84619140625;-0.09423828125;-0.1318359375;-98.875;77.5;86.25;
