1441975616118264;0.15460205078125;-0.66351318359375;-0.69244384765625;-0.2376708984375;12.196761418889897;13.257227601948772;17.57985400215526;-2.56787109375;-1.265625;0.03955078125;-347.5625;57.6875;258.875;
1441975616139265;0.12939453125;-0.67333984375;-0.69708251953125;-0.20989990234375;11.758174390928446;13.306424065965244;17.61627159498758;-2.21435546875;-1.85595703125;-0.1123046875;-227.25;51.875;239.4375;
1441975616155266;0.10992431640625;-0.6953125;-0.6846923828125;-0.18914794921875;11.442561409052631;13.471566625764808;17.665281510837282;-1.86279296875;-1.115234375;-0.01318359375;31.0;14.9375;221.0;
1441975616178267;0.09722900390625;-0.7093505859375;-0.67706298828125;-0.1702880859375;11.191506838861564;13.577881898415757;17.713430264529627;-1.45654296875;-0.32861328125;0.00537109375;144.0625;37.0625;185.0;
1441975616199268;0.0921630859375;-0.71197509765625;-0.67962646484375;-0.1510009765625;10.989260271438573;13.593565269712187;17.774302715270842;-1.26953125;-0.08251953125;0.001953125;87.4375;45.6875;145.875;
1441975616215269;0.09271240234375;-0.70684814453125;-0.6890869140625;-0.13043212890625;10.818819912426129;13.549381107212447;17.85312260589624;-1.16943359375;-0.11474609375;0.03662109375;-5.5;60.75;119.0625;
1441975616238271;0.1031494140625;-0.697265625;-0.69989013671875;-0.11590576171875;10.781775113643997;13.480559255119823;17.94464167653128;-1.17626953125;-0.0361328125;0.02294921875;-69.1875;77.0;102.625;
1441975616259272;0.1156005859375;-0.68402099609375;-0.7137451171875;-0.0966796875;10.729385491157833;13.387365395354555;0.06042293673638671;-1.087890625;0.30615234375;0.06689453125;-91.75;89.3125;83.5;
1441975616275273;0.13751220703125;-0.662109375;-0.7322998046875;-0.08038330078125;10.79290073723733;13.242440591494972;0.19395288687068188;-0.98291015625;0.63916015625;0.08984375;-127.0;109.875;41.75;
1441975616298274;0.16680908203125;-0.6317138671875;-0.7540283203125;-0.0677490234375;10.97028016956495;13.05314288125037;0.3311330136094029;-1.00537109375;0.8056640625;0.06005859375;-185.3125;128.375;-11.0;
1441975616319275;0.200439453125;-0.59930419921875;-0.77288818359375;-0.058349609375;11.231720992981396;12.871283982890105;0.466690247229941;-1.056640625;0.76513671875;0.09521484375;-233.75;138.125;-59.8125;
1441975616335276;0.2369384765625;-0.57171630859375;-0.78375244140625;-0.0533447265625;11.561675764032088;12.747667672158643;0.5993785665283646;-1.06201171875;0.72216796875;0.16552734375;-230.25;146.9375;-92.75;
1441975616359277;0.2745361328125;-0.55303955078125;-0.78466796875;-0.0557861328125;11.950662611665235;12.707883153120349;0.7188738844563837;-1.0576171875;0.53369140625;0.16064453125;-177.25;154.4375;-119.5625;
1441975616379279;0.31103515625;-0.5447998046875;-0.77581787109375;-0.06842041015625;12.38551213318294;12.756917195630093;0.8136771443923282;-1.13720703125;0.4609375;0.11328125;-95.125;150.5625;-146.8125;
1441975616395280;0.3443603515625;-0.5439453125;-0.75970458984375;-0.092041015625;12.855774020413778;12.867882314618278;0.873513017658625;-1.22509765625;0.44970703125;0.06591796875;-1.5;131.625;-175.75;
1441975616418281;0.37591552734375;-0.54351806640625;-0.74066162109375;-0.121337890625;13.352986333816592;12.997282939073628;0.9201521047585153;-1.26416015625;0.4912109375;-0.0546875;73.5625;98.375;-205.4375;
1441975616439282;0.4063720703125;-0.539306640625;-0.721435546875;-0.15350341796875;13.875492248646756;13.116288748145665;0.9600561070511783;-1.2666015625;0.53857421875;-0.17578125;95.125;78.6875;-228.0625;
1441975616455283;0.431884765625;-0.5313720703125;-0.70416259765625;-0.1878662109375;14.38885609231929;13.196812627773943;0.9629984445378517;-1.50634765625;0.53076171875;-0.19482421875;87.0;62.6875;-243.875;
1441975616478284;0.4525146484375;-0.5247802734375;-0.68475341796875;-0.22589111328125;14.895267302808906;13.278999566741604;0.9362571402101592;-1.62255859375;0.447265625;-0.08056640625;77.0;29.375;-244.8125;
1441975616499285;0.4676513671875;-0.523193359375;-0.65997314453125;-0.26849365234375;15.39157914391909;13.400795186193907;0.8935876860541263;-1.54736328125;0.36376953125;0.056640625;104.6875;7.9375;-245.3125;
1441975616515286;0.475830078125;-0.52655029296875;-0.63037109375;-0.314697265625;15.862898621832763;13.55713254980263;0.8318941615796176;-1.5634765625;0.29248046875;0.1142578125;160.3125;-5.3125;-241.5625;
1441975616537288;0.4781494140625;-0.53082275390625;-0.5989990234375;-0.36175537109375;16.310017285964328;13.704478776425628;0.7397972894678576;-1.5458984375;0.32421875;0.0537109375;213.375;-22.1875;-231.625;
1441975616559289;0.476318359375;-0.53277587890625;-0.56866455078125;-0.4073486328125;16.73539699394064;13.780691543110274;0.5830613352539016;-1.51513671875;0.40234375;0.0078125;234.5625;-39.875;-221.25;
1441975616575290;0.47247314453125;-0.53070068359375;-0.54144287109375;-0.44952392578125;17.13611333166561;13.684001954172004;0.280795114966696;-1.47265625;0.4091796875;-0.04345703125;228.25;-58.125;-210.1875;
1441975616597291;0.4686279296875;-0.52459716796875;-0.51837158203125;-0.486328125;17.491299461629335;13.162904581346401;17.594294353403804;-1.35205078125;0.3759765625;-0.0361328125;200.5625;-72.1875;-198.125;
1441975616619292;0.46661376953125;-0.5155029296875;-0.49981689453125;-0.51654052734375;17.73081789710149;11.254525858661959;15.566483080513446;-1.22021484375;0.306640625;0.0107421875;160.6875;-77.125;-182.1875;
1441975616635293;0.4676513671875;-0.5040283203125;-0.48602294921875;-0.53961181640625;17.675491158211994;8.24430674328141;12.486401438302549;-1.125;0.26953125;0.04345703125;115.3125;-72.0625;-163.9375;
1441975616657295;0.47222900390625;-0.49053955078125;-0.47705078125;-0.55572509765625;17.470189549812208;7.100644613421846;11.322402028869613;-1.05078125;0.22119140625;0.05419921875;66.5;-62.375;-144.75;
1441975616680296;0.47882080078125;-0.4765625;-0.47174072265625;-0.566650390625;17.267286394854132;6.658347812851503;10.89228381045017;-1.01708984375;0.10107421875;0.0478515625;17.25;-51.9375;-124.8125;
1441975616702297;0.48602294921875;-0.46417236328125;-0.4693603515625;-0.57281494140625;17.10853368541439;6.4312935031915135;10.696751139966683;-0.99609375;0.01025390625;0.06103515625;-14.9375;-43.5;-104.875;
1441975616717298;0.49462890625;-0.453125;-0.4696044921875;-0.57403564453125;16.998253672675407;6.255836324681893;10.574844205707365;-0.91259765625;-0.0029296875;0.06005859375;-34.0625;-32.9375;-85.75;
1441975616740299;0.5045166015625;-0.44256591796875;-0.47369384765625;-0.5703125;16.9336701218202;6.121621297944677;10.521870471342261;-0.9189453125;-0.0185546875;0.0048828125;-55.3125;-23.4375;-64.0625;
1441975616755300;0.51495361328125;-0.43243408203125;-0.48052978515625;-0.56298828125;16.90433748456995;6.011349789889016;10.511525441440247;-0.947265625;-0.037109375;-0.0166015625;-81.4375;-18.0;-39.8125;
1441975616777301;0.523681640625;-0.4244384765625;-0.48809814453125;-0.55450439453125;16.90576237459103;5.9377191923809125;10.532219848986694;-0.9072265625;-0.09765625;-0.00244140625;-99.5625;-12.375;-17.375;
1441975616800303;0.52850341796875;-0.42041015625;-0.49560546875;-0.5462646484375;16.944511899609303;5.9349163638252;10.600168771122235;-0.875;-0.158203125;0.0048828125;-93.125;-8.25;3.3125;
1441975616815304;0.52899169921875;-0.42041015625;-0.50286865234375;-0.5390625;17.01435858066394;6.025086101702985;10.733272476862949;-0.8896484375;-0.1376953125;0.01171875;-68.8125;-6.4375;22.4375;
1441975616837305;0.52685546875;-0.42340087890625;-0.5101318359375;-0.53192138671875;17.10940738622308;6.194603072083005;10.929327846155974;-0.92529296875;-0.072265625;0.00732421875;-40.5625;-8.5;37.6875;
1441975616860306;0.5233154296875;-0.427978515625;-0.51788330078125;-0.52423095703125;17.21825182783395;6.460688938107416;11.216297693032455;-0.9228515625;-0.009765625;-0.01171875;-23.8125;-8.0625;49.4375;
1441975616882307;0.5186767578125;-0.433349609375;-0.52642822265625;-0.51580810546875;17.32852228088009;6.880790283370468;11.656237325726188;-0.896484375;0.0234375;-0.025390625;-17.5;-8.625;60.25;
1441975616897308;0.51348876953125;-0.43927001953125;-0.5352783203125;-0.5068359375;17.42452652672927;7.496408759155031;12.291007216215045;-0.86181640625;0.03759765625;-0.013671875;-16.4375;-8.625;70.5;
1441975616920310;0.50726318359375;-0.4456787109375;-0.544189453125;-0.4979248046875;17.481422195849802;8.357872356644632;13.167301780837915;-0.86279296875;0.0341796875;-0.021484375;-15.4375;-9.125;78.3125;
1441975616942311;0.4996337890625;-0.45294189453125;-0.5526123046875;-0.48980712890625;17.476859507546408;9.351309904130623;14.165467644610517;-0.8623046875;0.03369140625;-0.02099609375;-11.125;-10.875;84.0;
1441975616957312;0.4901123046875;-0.4615478515625;-0.56036376953125;-0.48260498046875;17.40552030742899;10.263160331379439;15.068285411305396;-0.84326171875;0.0205078125;-0.0146484375;-0.6875;-13.25;89.25;
1441975616980313;0.4794921875;-0.47113037109375;-0.5670166015625;-0.47613525390625;17.289220527602247;10.94388017286907;15.728843462903766;-0.7939453125;0.0224609375;0.0048828125;13.0;-14.4375;94.5625;
1441975617001314;0.46832275390625;-0.4814453125;-0.57275390625;-0.47003173828125;17.14802627473464;11.433128159933133;16.190597930476493;-0.7744140625;0.03173828125;0.00732421875;24.25;-13.8125;96.25;
1441975617018315;0.45709228515625;-0.49188232421875;-0.5780029296875;-0.4637451171875;16.992819330941877;11.790710419579552;16.519308400434667;-0.79443359375;0.07470703125;0.005859375;31.3125;-12.375;94.8125;
1441975617048317;0.446533203125;-0.50177001953125;-0.5830078125;-0.45721435546875;16.834781518253912;12.052424994921397;16.755636003846007;-0.8212890625;0.14599609375;0.0087890625;32.4375;-10.6875;91.8125;
1441975617061318;0.43731689453125;-0.51055908203125;-0.5872802734375;-0.45086669921875;16.68935113801073;12.2441500718234;16.926334971984268;-0.83203125;0.21875;0.0146484375;28.0;-8.125;85.875;
1441975617077319;0.42938232421875;-0.51806640625;-0.5908203125;-0.44525146484375;16.561269816870926;12.381727360803332;17.045999112611867;-0.853515625;0.2529296875;0.0166015625;23.6875;-5.1875;76.4375;
1441975617108320;0.422119140625;-0.524658203125;-0.5936279296875;-0.440673828125;16.447906802589685;12.481614512173868;17.12739090456692;-0.859375;0.24853515625;0.025390625;20.25;-3.6875;66.875;
1441975617129322;0.41583251953125;-0.5306396484375;-0.5953369140625;-0.43719482421875;16.35462560503609;12.562288138106164;17.187730721932866;-0.8369140625;0.24755859375;0.05712890625;20.375;-2.75;58.3125;
1441975617137322;0.41058349609375;-0.53607177734375;-0.59576416015625;-0.4349365234375;16.283955793594128;12.630850002889218;17.233238264023477;-0.826171875;0.24853515625;0.064453125;22.4375;-1.0;48.25;
1441975617160323;0.40631103515625;-0.5411376953125;-0.59515380859375;-0.43353271484375;16.23191845033344;12.694910322063965;17.272592954653863;-0.82080078125;0.232421875;0.06640625;24.6875;1.1875;38.3125;
1441975617182325;0.4029541015625;-0.54571533203125;-0.5936279296875;-0.4329833984375;16.197790107632045;12.753705144689564;17.305576741090317;-0.79833984375;0.23095703125;0.0751953125;26.6875;3.875;29.0;
1441975617197325;0.40081787109375;-0.54962158203125;-0.59130859375;-0.43316650390625;16.183311150928585;12.808414858825152;17.335506953062534;-0.775390625;0.23681640625;0.087890625;27.75;6.625;19.5625;
1441975617220327;0.39990234375;-0.552734375;-0.58856201171875;-0.43389892578125;16.18586310861291;12.857671566535204;17.362983287465237;-0.78173828125;0.23095703125;0.08642578125;27.0;8.8125;10.5625;
1441975617241328;0.39935302734375;-0.55487060546875;-0.58599853515625;-0.43505859375;16.195439171724136;12.891505606543845;17.378227555155995;-0.7763671875;0.193359375;0.06005859375;23.5;8.6875;4.25;
1441975617257329;0.39923095703125;-0.556640625;-0.583251953125;-0.4366455078125;16.212737142861297;12.921028299460152;17.389700098574394;-0.75927734375;0.17333984375;0.08056640625;20.0625;7.8125;1.0;
1441975617280330;0.39959716796875;-0.55792236328125;-0.58013916015625;-0.43878173828125;16.240409163250277;12.945645312576147;17.396458000473128;-0.76416015625;0.1689453125;0.08154296875;19.75;7.25;-2.9375;
1441975617303331;0.4002685546875;-0.55859375;-0.5771484375;-0.4412841796875;16.27375146662399;12.960189695877517;17.395107772104563;-0.78271484375;0.15869140625;0.076171875;19.0625;6.5;-7.625;
1441975617325333;0.401123046875;-0.55889892578125;-0.5743408203125;-0.44378662109375;16.308713601673595;12.969726630284406;17.390885825607274;-0.79345703125;0.1533203125;0.07470703125;16.6875;4.75;-10.4375;
1441975617340334;0.40240478515625;-0.558837890625;-0.5712890625;-0.44659423828125;16.35124437953801;12.97637510386834;17.384500522610352;-0.798828125;0.17333984375;0.08349609375;14.75;4.75;-13.25;
1441975617361335;0.40399169921875;-0.5584716796875;-0.5679931640625;-0.44989013671875;16.401172967069265;12.977998001097587;17.372763320084985;-0.80517578125;0.17919921875;0.0810546875;13.6875;4.375;-17.4375;
1441975617377336;0.406005859375;-0.55780029296875;-0.56414794921875;-0.45367431640625;16.461204262380505;12.977839136539727;17.35838362079371;-0.8642578125;0.20947265625;0.08349609375;13.5;4.0;-23.0;
1441975617400337;0.408447265625;-0.5567626953125;-0.56005859375;-0.45782470703125;16.529102656777205;12.972933800471104;17.339818383820756;-0.931640625;0.2421875;0.0810546875;14.4375;3.875;-29.4375;
1441975617422338;0.41119384765625;-0.55511474609375;-0.55584716796875;-0.46246337890625;16.604685573296837;12.95492528362595;17.309056618014985;-0.96923828125;0.263671875;0.07568359375;13.6875;3.4375;-35.375;
1441975617437339;0.41455078125;-0.552978515625;-0.5513916015625;-0.46728515625;16.688886681810878;12.931124984920057;17.274464252793088;-0.955078125;0.26318359375;0.08837890625;12.25;2.75;-40.625;
1441975617460340;0.4183349609375;-0.55072021484375;-0.54656982421875;-0.4722900390625;16.77974901998992;12.906238068796783;17.23881388614311;-0.923828125;0.2451171875;0.109375;10.8125;4.375;-45.25;
1441975617482342;0.42266845703125;-0.54803466796875;-0.5416259765625;-0.4771728515625;16.876271214041434;12.87677649253173;17.201407335357413;-0.93017578125;0.24169921875;0.1103515625;10.875;6.375;-49.375;
1441975617497343;0.4273681640625;-0.544189453125;-0.53790283203125;-0.48162841796875;16.969507775073073;12.812550223653455;17.138373582883364;-0.9296875;0.19287109375;0.09521484375;7.625;6.4375;-49.8125;
1441975617520344;0.4324951171875;-0.53997802734375;-0.53509521484375;-0.48492431640625;17.055506108598454;12.74324779991192;17.07848778556101;-0.896484375;0.14208984375;0.11181640625;-1.1875;4.25;-46.75;
1441975617542345;0.43817138671875;-0.5355224609375;-0.53314208984375;-0.48681640625;17.134348035165598;12.680864034393576;17.034253646839;-0.8857421875;0.1328125;0.10302734375;-9.6875;5.0625;-43.5625;
1441975617557346;0.4442138671875;-0.530517578125;-0.53240966796875;-0.4876708984375;17.204878860326712;12.60523814793657;16.98587095225476;-0.92578125;0.12109375;0.076171875;-18.0625;6.6875;-39.125;
1441975617580347;0.44989013671875;-0.52545166015625;-0.5325927734375;-0.48779296875;17.263198310939963;12.518262409573978;16.929954909780538;-0.96240234375;0.08447265625;0.06640625;-27.5;5.5625;-32.875;
1441975617603349;0.45440673828125;-0.5208740234375;-0.5333251953125;-0.48760986328125;17.30562562947163;12.422552354662184;16.86299183570974;-0.9833984375;0.0556640625;0.06982421875;-31.25;3.9375;-25.5625;
1441975617617349;0.45751953125;-0.517578125;-0.5343017578125;-0.4871826171875;17.330501206131856;12.348413424666004;16.811281683396867;-0.97509765625;0.0361328125;0.07373046875;-28.8125;1.8125;-17.625;
1441975617640351;0.458984375;-0.51556396484375;-0.53546142578125;-0.4866943359375;17.33728683820801;12.295270071827709;16.772852078452303;-0.96337890625;0.02685546875;0.07666015625;-22.3125;1.3125;-8.5625;
1441975617663352;0.459228515625;-0.51446533203125;-0.53704833984375;-0.48590087890625;17.327944897798183;12.263672761737169;16.751937941146792;-0.96044921875;0.02392578125;0.0703125;-14.4375;-0.8125;0.5;
1441975617677353;0.45819091796875;-0.5142822265625;-0.53936767578125;-0.4844970703125;17.298948850090493;12.259199757929949;16.755696286462893;-0.974609375;0.0146484375;0.06298828125;-10.375;-3.25;9.4375;
1441975617700354;0.45611572265625;-0.51483154296875;-0.5426025390625;-0.4822998046875;17.25078663863164;12.278403631525503;16.78295925829436;-0.984375;0.037109375;0.064453125;-8.1875;-4.75;18.375;
1441975617723355;0.45343017578125;-0.51593017578125;-0.5462646484375;-0.4794921875;17.191276923130374;12.31537778780244;16.827647423250035;-0.98291015625;0.078125;0.064453125;-7.5;-6.125;26.1875;
1441975617737356;0.4500732421875;-0.5172119140625;-0.55035400390625;-0.4765625;17.12239623769381;12.343716403785974;16.86283070855847;-1.0048828125;0.08984375;0.0556640625;-7.3125;-6.8125;32.4375;
1441975617760358;0.44586181640625;-0.51922607421875;-0.554443359375;-0.47357177734375;17.04449787733722;12.379451963556411;16.90103318404875;-1.0146484375;0.08056640625;0.06298828125;-6.0625;-8.6875;38.0;
1441975617783359;0.4407958984375;-0.52191162109375;-0.55841064453125;-0.470703125;16.9591830817414;12.416914916717571;16.935876495429163;-1.005859375;0.08154296875;0.05859375;-1.9375;-10.0625;43.3125;
1441975617804360;0.435302734375;-0.5247802734375;-0.5625;-0.46771240234375;16.86854793546776;12.4505416207732;16.965827955804716;-0.9990234375;0.0791015625;0.0576171875;3.5;-11.0625;47.875;
1441975617820361;0.42950439453125;-0.52789306640625;-0.5667724609375;-0.46441650390625;16.77226059994112;12.48514121762247;16.99657186962022;-1.0009765625;0.0849609375;0.05859375;4.4375;-11.9375;51.625;
1441975617843362;0.423583984375;-0.53094482421875;-0.57110595703125;-0.46112060546875;16.674644685152238;12.512658121427902;17.020226912205327;-1.01904296875;0.09814453125;0.04931640625;4.6875;-13.1875;54.6875;
1441975617864364;0.41729736328125;-0.53399658203125;-0.5753173828125;-0.4580078125;16.57560598638507;12.533218996559203;17.034981076080257;-1.033203125;0.0947265625;0.04638671875;4.625;-14.375;56.875;
1441975617880364;0.41046142578125;-0.53759765625;-0.57916259765625;-0.4552001953125;16.474296627193052;12.556182860173454;17.047009898384207;-1.033203125;0.08984375;0.0634765625;6.625;-15.0;58.4375;
1441975617903366;0.4033203125;-0.5416259765625;-0.58233642578125;-0.45263671875;16.374696080921783;12.584055076089554;17.059150935904434;-1.021484375;0.11376953125;0.072265625;12.0;-14.9375;59.0;
1441975617924367;0.3961181640625;-0.5457763671875;-0.58538818359375;-0.45013427734375;16.275254611851853;12.611289009696094;17.069553208702665;-1.01123046875;0.1318359375;0.068359375;16.5;-14.3125;58.3125;
1441975617940368;0.389404296875;-0.549560546875;-0.5882568359375;-0.4476318359375;16.181831511859976;12.635280248406506;17.078616718616413;-1.0009765625;0.17138671875;0.078125;17.75;-13.8125;56.3125;
1441975617963369;0.38360595703125;-0.55242919921875;-0.5911865234375;-0.4451904296875;16.098119320468008;12.64922600909161;17.082919334678657;-0.9970703125;0.19580078125;0.0751953125;15.625;-12.875;53.0625;
1441975617984370;0.37841796875;-0.5548095703125;-0.5941162109375;-0.44287109375;16.021193186444876;12.65793462536629;17.084810153656814;-0.98388671875;0.19482421875;0.078125;10.1875;-12.3125;49.375;
1441975618000371;0.37384033203125;-0.55694580078125;-0.5963134765625;-0.44110107421875;15.956884516430279;12.665926310523167;17.084732963882033;-0.962890625;0.2080078125;0.09521484375;7.625;-11.125;44.9375;
1441975618024373;0.37017822265625;-0.55889892578125;-0.59765625;-0.43988037109375;15.908228121417807;12.676022459036412;17.0858745333603;-0.955078125;0.23583984375;0.10107421875;9.0;-9.3125;37.75;
1441975618044374;0.36767578125;-0.559814453125;-0.59893798828125;-0.4390869140625;15.874078664150593;12.675368092041392;17.081256545009587;-0.96484375;0.2568359375;0.0859375;8.9375;-8.0625;29.5;
1441975618060375;0.36578369140625;-0.56011962890625;-0.60015869140625;-0.4385986328125;15.848277499561034;12.668101475046964;17.07252540958464;-0.93212890625;0.234375;0.08544921875;3.9375;-7.375;23.5;
1441975618083376;0.36468505859375;-0.56060791015625;-0.60015869140625;-0.4388427734375;15.839259842742036;12.667657381314015;17.06672413585713;-0.884765625;0.240234375;0.1162109375;2.0625;-5.875;17.5;
1441975618104377;0.364990234375;-0.5601806640625;-0.5997314453125;-0.439697265625;15.849452221049571;12.659741533166116;17.057222436191523;-0.89013671875;0.265625;0.099609375;5.125;-3.375;8.25;
1441975618126379;0.36614990234375;-0.55889892578125;-0.599609375;-0.4405517578125;15.866893129866373;12.643195471205722;17.04497765559279;-0.90966796875;0.2392578125;0.0830078125;1.25;-3.1875;0.8125;
1441975618143380;0.36822509765625;-0.556884765625;-0.59930419921875;-0.4417724609375;15.896385932213015;12.619362499012764;17.02866154101124;-0.8828125;0.23046875;0.09228515625;-4.5;-2.3125;-3.3125;
1441975618164381;0.37091064453125;-0.55462646484375;-0.5986328125;-0.443359375;15.935283228229139;12.593437620232475;17.01061725281436;-0.8662109375;0.2060546875;0.1005859375;-7.8125;-1.25;-8.5;
1441975618180382;0.37408447265625;-0.55230712890625;-0.59747314453125;-0.4451904296875;15.982320330096286;12.568642963886012;16.993167009144436;-0.884765625;0.2158203125;0.1015625;-8.25;-0.375;-13.8125;
1441975618203383;0.37799072265625;-0.54937744140625;-0.5960693359375;-0.44732666015625;16.039577431596854;12.536786754317546;16.970956908742288;-0.916015625;0.248046875;0.09765625;-8.3125;1.0;-19.5625;
1441975618224384;0.38238525390625;-0.546142578125;-0.59454345703125;-0.4495849609375;16.10268233894054;12.500863282131071;16.946263758892826;-0.9345703125;0.23779296875;0.0947265625;-10.75;1.4375;-24.625;
1441975618240385;0.3865966796875;-0.54290771484375;-0.593017578125;-0.451904296875;16.164316243762574;12.461597027810381;16.917495610920103;-0.92822265625;0.2451171875;0.0986328125;-12.4375;1.9375;-28.5625;
1441975618263386;0.391357421875;-0.54180908203125;-0.5892333984375;-0.45404052734375;16.239132864554417;12.468108756484515;16.92387535427929;-0.962890625;0.32470703125;0.1474609375;-11.4375;4.625;-34.0;
1441975618284388;0.39898681640625;-0.5391845703125;-0.5843505859375;-0.45684814453125;16.350904046453696;12.465885707295056;16.929137761795026;-1.2021484375;0.55712890625;0.08740234375;-2.3125;11.625;-48.1875;
1441975618300389;0.40875244140625;-0.5302734375;-0.5831298828125;-0.46014404296875;16.472573469593165;12.343308890525138;16.847542828754143;-1.23681640625;0.4189453125;-0.0751953125;-11.8125;7.375;-56.9375;
1441975618323390;0.41693115234375;-0.5211181640625;-0.58197021484375;-0.4647216796875;16.583221079953123;12.174453051409339;16.71215869078299;-0.9560546875;0.10302734375;0.0498046875;-43.9375;-1.625;-55.375;
1441975618344391;0.42193603515625;-0.51629638671875;-0.577880859375;-0.470703125;16.680657419655507;12.046380173589814;16.583342408732456;-0.7587890625;-0.12060546875;0.1748046875;-34.3125;-1.6875;-45.0;
1441975618360392;0.4239501953125;-0.516357421875;-0.572265625;-0.47564697265625;16.751357074472068;12.01137418043634;16.523510490102655;-0.67919921875;-0.181640625;0.205078125;1.3125;4.1875;-35.25;
1441975618383393;0.42578125;-0.51617431640625;-0.5697021484375;-0.477294921875;16.789838119081917;12.002962653392299;16.508764844688223;-0.69384765625;-0.06005859375;0.1318359375;25.5625;9.375;-24.5;
1441975618405395;0.4296875;-0.51336669921875;-0.57196044921875;-0.47412109375;16.802010741524292;12.000675317062505;16.5414620501474;-0.67578125;0.11328125;0.05517578125;6.0625;5.875;-17.25;
1441975618428396;0.43603515625;-0.50732421875;-0.5767822265625;-0.468994140625;16.815989200576496;11.959143986643;16.564265286343836;-0.7646484375;0.2373046875;0.03564453125;-35.875;5.8125;-8.75;
1441975618443397;0.441162109375;-0.50091552734375;-0.5814208984375;-0.46527099609375;16.825362594523906;11.881731334174193;16.544164173175563;-0.8173828125;0.07470703125;0.0537109375;-63.625;5.1875;1.375;
1441975618464398;0.44195556640625;-0.4991455078125;-0.5836181640625;-0.46368408203125;16.814649284732038;11.862314834674487;16.54305190779217;-0.740234375;-0.111328125;0.13916015625;-55.3125;2.75;10.4375;
1441975618488399;0.43865966796875;-0.50311279296875;-0.58355712890625;-0.46258544921875;16.778588992925584;11.949879490638764;16.61273366096661;-0.6083984375;-0.11962890625;0.17431640625;-15.3125;4.1875;19.8125;
1441975618502400;0.43438720703125;-0.51031494140625;-0.582763671875;-0.459716796875;16.72717137184843;12.123583624457408;16.75941523235103;-0.5712890625;0.05419921875;0.1591796875;20.8125;9.5625;26.25;
1441975618524401;0.43292236328125;-0.51568603515625;-0.5830078125;-0.45477294921875;16.684697691048534;12.288936023154331;16.920071073557263;-0.75732421875;0.39501953125;0.09912109375;29.125;16.4375;21.5;
1441975618540402;0.43585205078125;-0.514892578125;-0.58740234375;-0.4471435546875;16.651825246828803;12.366016941043762;17.042637787670063;-1.05712890625;0.5625;-0.00390625;4.625;15.75;11.4375;
1441975618562403;0.44390869140625;-0.5084228515625;-0.5936279296875;-0.4383544921875;16.657563478917833;12.373036361260576;17.134915376587937;-1.2021484375;0.68994140625;-0.0068359375;-46.625;11.0625;-3.0;
1441975618587405;0.4552001953125;-0.49847412109375;-0.5985107421875;-0.43145751953125;16.715427147829264;12.324583465271779;17.18164617083284;-1.248046875;0.66162109375;0.01708984375;-86.8125;13.5625;-21.125;
1441975618600406;0.46685791015625;-0.48834228515625;-0.60028076171875;-0.4281005859375;16.811701330062114;12.247756426491721;17.182206895797666;-1.28466796875;0.490234375;0.078125;-95.875;18.125;-37.75;
1441975618622407;0.47613525390625;-0.48016357421875;-0.59918212890625;-0.42877197265625;16.91796446967991;12.143758876186501;17.1230691733708;-1.302734375;0.24755859375;0.103515625;-77.6875;19.25;-43.9375;
1441975618646408;0.48211669921875;-0.4747314453125;-0.596435546875;-0.431884765625;17.009567685450687;12.029796774644517;17.02480197003604;-1.193359375;-0.01611328125;0.146484375;-44.25;16.0;-37.8125;
1441975618660409;0.4853515625;-0.4720458984375;-0.59356689453125;-0.43505859375;17.072326872726443;11.946283050441934;16.940726777080023;-1.06591796875;-0.16455078125;0.14697265625;-14.5625;10.0625;-25.9375;
1441975618682410;0.4869384765625;-0.470947265625;-0.5921630859375;-0.43646240234375;17.101867415269865;11.910279659594991;16.904252987141337;-1.01025390625;-0.1904296875;0.11962890625;1.625;5.8125;-11.25;
1441975618705412;0.48748779296875;-0.47039794921875;-0.59283447265625;-0.43548583984375;17.099821197248723;11.915809118987022;16.917721289957687;-1.001953125;-0.140625;0.09375;1.6875;3.25;3.4375;
1441975618727413;0.48687744140625;-0.47015380859375;-0.595458984375;-0.43292236328125;17.06891229786664;11.938356032202151;16.954273087938567;-1.00537109375;-0.0849609375;0.07373046875;-6.6875;0.625;17.25;
1441975618742414;0.48468017578125;-0.47149658203125;-0.59844970703125;-0.4298095703125;17.017051866383277;11.994427782692863;17.017938011868182;-1.013671875;-0.0458984375;0.09814453125;-12.3125;-2.0;29.1875;
1441975618772416;0.48040771484375;-0.47503662109375;-0.6011962890625;-0.42681884765625;16.944709762901564;12.079162553068553;17.096983919210697;-1.017578125;0.0087890625;0.10986328125;-5.6875;-2.8125;37.8125;
1441975618778416;0.474609375;-0.4803466796875;-0.603515625;-0.424072265625;16.858444136321552;12.178824050737116;17.179558078145178;-1.01318359375;0.0869140625;0.107421875;7.5625;-4.25;43.6875;
1441975618802417;0.4681396484375;-0.48638916015625;-0.6058349609375;-0.42108154296875;16.76278802623883;12.27855931467085;17.25889610888627;-0.986328125;0.1669921875;0.10400390625;18.6875;-4.9375;46.25;
1441975618816418;0.4620361328125;-0.4920654296875;-0.60833740234375;-0.4176025390625;16.666872580495244;12.366729865183386;17.330740941528887;-0.9599609375;0.24658203125;0.095703125;22.1875;-5.0625;46.5;
1441975618840419;0.45703125;-0.496337890625;-0.611328125;-0.41363525390625;16.5778709484736;12.430690183103943;17.388426569247773;-0.9345703125;0.29345703125;0.08203125;17.1875;-4.8125;44.125;
1441975618862421;0.45343017578125;-0.4990234375;-0.6146240234375;-0.40948486328125;16.501677425613355;12.471803727673633;17.43328826801447;-0.9130859375;0.318359375;0.078125;7.125;-4.3125;39.4375;
1441975618885422;0.451171875;-0.50030517578125;-0.61767578125;-0.40582275390625;16.444048325697707;12.49313411052646;17.464134523229966;-0.912109375;0.31787109375;0.07861328125;-2.8125;-3.6875;33.25;
1441975618898423;0.4495849609375;-0.50079345703125;-0.6202392578125;-0.40301513671875;16.401170925808877;12.500141280945702;17.480962986629223;-0.91259765625;0.287109375;0.07421875;-9.125;-3.3125;26.5;
1441975618921424;0.448486328125;-0.50115966796875;-0.621826171875;-0.4013671875;16.373925014023484;12.503401706452347;17.489519899606357;-0.89892578125;0.25244140625;0.0849609375;-9.375;-3.25;20.9375;
1441975618936425;0.4476318359375;-0.501708984375;-0.62249755859375;-0.400634765625;16.35789058650229;12.5083140922597;17.494522105887533;-0.91162109375;0.2255859375;0.09033203125;-4.9375;-2.5;15.375;
1441975618958426;0.44683837890625;-0.50213623046875;-0.622802734375;-0.40057373046875;16.348144511432857;12.507740000155408;17.49151344992797;-0.923828125;0.212890625;0.0869140625;0.375;-2.0;10.875;
1441975618981427;0.44647216796875;-0.502197265625;-0.622802734375;-0.40087890625;16.346526114650192;12.50323886033134;17.48489972892024;-0.92919921875;0.21044921875;0.0927734375;2.75;-2.5;7.375;
1441975618996428;0.4464111328125;-0.501708984375;-0.62286376953125;-0.40130615234375;16.34927456780423;12.491083649186713;17.47293541211161;-0.94580078125;0.20166015625;0.08056640625;1.8125;-2.875;4.375;
1441975619019430;0.4466552734375;-0.50128173828125;-0.62255859375;-0.40203857421875;16.357866150199676;12.481198081320484;17.461934248472925;-0.9599609375;0.19580078125;0.09814453125;-0.0625;-2.875;2.375;
1441975619033430;0.44696044921875;-0.50054931640625;-0.6221923828125;-0.40325927734375;16.370525204048203;12.462443358649345;17.441491830153232;-0.97509765625;0.19482421875;0.08154296875;0.6875;-2.75;-0.1875;
1441975619056432;0.44708251953125;-0.5001220703125;-0.62152099609375;-0.40472412109375;16.383711264341724;12.446503952467994;17.42085892179567;-0.96337890625;0.16943359375;0.0947265625;1.375;-3.3125;-1.5;
1441975619089434;0.44696044921875;-0.50030517578125;-0.62017822265625;-0.4066162109375;16.399121115147977;12.43838834443457;17.402391315887524;-0.9521484375;0.16162109375;0.10546875;4.625;-2.875;-2.125;
1441975619093434;0.44677734375;-0.5009765625;-0.6185302734375;-0.40850830078125;16.414418865269255;12.439274328718556;17.390436979464283;-0.95166015625;0.17041015625;0.1015625;10.25;-1.6875;-3.3125;
1441975619116435;0.44683837890625;-0.50140380859375;-0.61712646484375;-0.4100341796875;16.42922594729896;12.44004841364641;17.38157049882109;-0.9453125;0.19384765625;0.09033203125;12.5625;-0.8125;-4.375;
1441975619139436;0.4476318359375;-0.50103759765625;-0.61614990234375;-0.4111328125;16.447673228848853;12.434620927314345;17.373381672273464;-0.953125;0.21630859375;0.08544921875;9.125;-0.3125;-5.625;
1441975619153437;0.44879150390625;-0.50018310546875;-0.61541748046875;-0.4119873046875;16.467880565322687;12.424673669925648;17.364571267222992;-0.95556640625;0.2099609375;0.07666015625;2.625;0.0625;-6.9375;
1441975619176439;0.4501953125;-0.499267578125;-0.61456298828125;-0.412841796875;16.490959963620252;12.4160128928391;17.35756080816778;-0.947265625;0.20458984375;0.08642578125;-1.4375;0.875;-7.875;
1441975619199440;0.451904296875;-0.49835205078125;-0.61346435546875;-0.4136962890625;16.517987231006195;12.41102339157714;17.354382904594768;-0.94873046875;0.20703125;0.0830078125;-1.9375;1.75;-9.5;
1441975619213441;0.45367431640625;-0.497314453125;-0.61236572265625;-0.41455078125;16.545866799675146;12.404333213624577;17.350044130096666;-0.95654296875;0.2099609375;0.0791015625;-2.0;3.0625;-10.9375;
1441975619236442;0.45562744140625;-0.4964599609375;-0.611083984375;-0.4154052734375;16.5757951538134;12.403125330562288;17.35061803631982;-0.9609375;0.20703125;0.08056640625;-2.6875;3.4375;-11.75;
1441975619258443;0.45745849609375;-0.49560546875;-0.6097412109375;-0.41644287109375;16.60594600965242;12.39925024364929;17.347469816105875;-0.95361328125;0.19970703125;0.06884765625;-2.0;3.9375;-12.4375;
1441975619273444;0.45928955078125;-0.49493408203125;-0.60821533203125;-0.41741943359375;16.6364374745256;12.400789409789061;17.348871367726485;-0.9541015625;0.19775390625;0.078125;-0.625;4.4375;-12.75;
1441975619296445;0.46124267578125;-0.494140625;-0.60675048828125;-0.4183349609375;16.667610918303946;12.401416491820639;17.350413905198696;-0.95751953125;0.19775390625;0.0673828125;-0.125;4.625;-13.0;
1441975619319447;0.46307373046875;-0.4932861328125;-0.60546875;-0.4190673828125;16.69604814363141;12.401049822330666;17.35188077383086;-0.95654296875;0.1904296875;0.0673828125;-1.1875;4.875;-12.75;
1441975619341448;0.46484375;-0.49261474609375;-0.60418701171875;-0.4197998046875;16.723435048625035;12.403516857222566;17.35545112151771;-0.95703125;0.1875;0.07421875;-1.8125;5.125;-12.0625;
1441975619364449;0.46649169921875;-0.4920654296875;-0.60284423828125;-0.42059326171875;16.750137516313046;12.407120804225048;17.35910567808991;-0.9599609375;0.18115234375;0.076171875;-1.0625;5.375;-11.1875;
1441975619381450;0.46783447265625;-0.49176025390625;-0.6015625;-0.4212646484375;16.77275962167053;12.414306846124207;17.3653181611478;-0.96337890625;0.17578125;0.076171875;0.25;5.5;-10.375;
1441975619410452;0.46905517578125;-0.49163818359375;-0.6004638671875;-0.4217529296875;16.791859109365866;12.42513834079439;17.375337968546162;-0.962890625;0.1787109375;0.078125;1.125;5.375;-9.125;
1441975619416452;0.4700927734375;-0.49151611328125;-0.59954833984375;-0.42193603515625;16.807009939721507;12.437695439705067;17.388028926731998;-0.9609375;0.18212890625;0.07421875;1.125;5.3125;-7.5;
1441975619438454;0.470947265625;-0.491455078125;-0.598876953125;-0.4219970703125;16.818413756008717;12.449553999972384;17.40037179851024;-0.96044921875;0.185546875;0.07177734375;0.1875;5.25;-5.9375;
1441975619461455;0.47174072265625;-0.4913330078125;-0.598388671875;-0.4219970703125;16.82808185707409;12.458967416077298;17.410970300938356;-0.962890625;0.1923828125;0.07568359375;-0.3125;4.8125;-4.75;
1441975619477456;0.4722900390625;-0.49139404296875;-0.597900390625;-0.42193603515625;16.834973439989767;12.470968680519945;17.423132924606502;-0.9580078125;0.18359375;0.0751953125;-0.875;3.875;-3.5;
1441975619498457;0.47247314453125;-0.49169921875;-0.597412109375;-0.42205810546875;16.839025937905113;12.481750081503332;17.431784164669402;-0.96240234375;0.177734375;0.06982421875;0.1875;3.375;-2.0;
1441975619521458;0.4722900390625;-0.49224853515625;-0.59698486328125;-0.42230224609375;16.839585270301342;12.49150854026138;17.4374715873187;-0.96142578125;0.177734375;0.0703125;2.0625;2.5;-0.8125;
1441975619536459;0.4718017578125;-0.4930419921875;-0.5965576171875;-0.42254638671875;16.83696729571051;12.503306732836444;17.443635561244257;-0.95458984375;0.1845703125;0.07666015625;4.25;1.75;0.0625;
1441975619558460;0.47125244140625;-0.49371337890625;-0.59625244140625;-0.4227294921875;16.83323920498765;12.511838473752658;17.44726058005962;-0.9677734375;0.19873046875;0.0751953125;6.0;1.3125;0.8125;
1441975619581462;0.4708251953125;-0.49420166015625;-0.59619140625;-0.42279052734375;16.8289605240982;12.517121030682532;17.449550490012115;-0.96875;0.20068359375;0.08203125;5.0;0.75;1.125;
1441975619596463;0.4703369140625;-0.49456787109375;-0.59613037109375;-0.42291259765625;16.82491300666868;12.518617502824936;17.44808058686818;-0.96630859375;0.19775390625;0.07568359375;3.1875;0.3125;1.25;
1441975619618464;0.46978759765625;-0.4949951171875;-0.5960693359375;-0.423095703125;16.820465869264265;12.519787999165384;17.445745340292618;-0.958984375;0.19287109375;0.080078125;3.0;-0.0625;1.75;
1441975619642465;0.46929931640625;-0.4954833984375;-0.59613037109375;-0.42303466796875;16.81438949956009;12.525047056988054;17.448550187782597;-0.955078125;0.18359375;0.0830078125;3.4375;0.0;2.0625;
1441975619656466;0.46881103515625;-0.49578857421875;-0.59637451171875;-0.4228515625;16.807223982818144;12.526743442540845;17.449220621678;-0.95361328125;0.1962890625;0.0751953125;2.75;0.0;2.625;
1441975619678467;0.468505859375;-0.49578857421875;-0.5968017578125;-0.42254638671875;16.80078896548549;12.52419791976861;17.447941300371312;-0.96484375;0.189453125;0.0810546875;1.1875;-0.25;3.125;
1441975619701469;0.46820068359375;-0.4957275390625;-0.59735107421875;-0.4222412109375;16.793786718164903;12.519228343382629;17.444751095922477;-0.96240234375;0.1884765625;0.07666015625;-1.0625;-0.625;3.3125;
1441975619716469;0.4677734375;-0.49578857421875;-0.59783935546875;-0.42193603515625;16.785818816574473;12.516194699905693;17.442633337723397;-0.953125;0.1806640625;0.078125;-1.875;-1.0625;3.8125;
1441975619738471;0.46722412109375;-0.4959716796875;-0.5982666015625;-0.42169189453125;16.777162989128346;12.514158167827283;17.44046067032272;-0.9541015625;0.18017578125;0.07666015625;-0.8125;-1.4375;4.4375;
1441975619761472;0.4666748046875;-0.49615478515625;-0.59881591796875;-0.42132568359375;16.767177222390025;12.512670377805849;17.439538235077315;-0.95849609375;0.1875;0.06884765625;0.25;-1.9375;4.4375;
1441975619776473;0.46624755859375;-0.4959716796875;-0.59954833984375;-0.42095947265625;16.7582061861405;12.503697983325178;17.433073710985436;-0.95849609375;0.2021484375;0.06787109375;-0.6875;-2.3125;4.25;
1441975619798474;0.46600341796875;-0.49560546875;-0.60028076171875;-0.420654296875;16.751525395222284;12.492099150133777;17.42484690566362;-0.96044921875;0.19873046875;0.07080078125;-3.0;-2.75;3.625;
1441975619822476;0.46563720703125;-0.4954833984375;-0.60076904296875;-0.4205322265625;16.745452651618404;12.483838572074497;17.41766525121732;-0.9560546875;0.193359375;0.0751953125;-3.3125;-2.75;2.9375;
1441975619836476;0.46527099609375;-0.4954833984375;-0.60107421875;-0.42047119140625;16.740407370249883;12.478797592875907;17.412650885130446;-0.94677734375;0.1904296875;0.06884765625;-1.5;-2.6875;2.5625;
1441975619858478;0.4649658203125;-0.4954833984375;-0.601318359375;-0.42041015625;16.73621941820568;12.474879315526461;17.40875922415184;-0.9462890625;0.197265625;0.0712890625;-0.0625;-2.375;2.0;
1441975619881479;0.4649658203125;-0.4951171875;-0.60174560546875;-0.42022705078125;16.73388299556319;12.466730263758015;17.403443501804894;-0.95166015625;0.20263671875;0.0654296875;-0.375;-2.125;1.375;
1441975619904480;0.4652099609375;-0.4945068359375;-0.602294921875;-0.41998291015625;16.73317928870698;12.45576708874342;17.397229713324144;-0.951171875;0.205078125;0.06494140625;-3.25;-2.0625;0.5625;
1441975619918481;0.465576171875;-0.49383544921875;-0.6026611328125;-0.4197998046875;16.735053298161617;12.445585317582331;17.391635315244734;-0.951171875;0.19677734375;0.07080078125;-4.875;-1.75;-0.0625;
1441975619950483;0.46588134765625;-0.493408203125;-0.602783203125;-0.4197998046875;16.738025670531144;12.439032785643287;17.387538089581206;-0.9482421875;0.1875;0.07080078125;-4.5625;-1.4375;-0.6875;
1441975619956483;0.4661865234375;-0.49310302734375;-0.60284423828125;-0.41973876953125;16.74072438981314;12.436144403816046;17.38675412465515;-0.94970703125;0.18701171875;0.0673828125;-2.875;-1.0;-0.875;
1441975619978484;0.4664306640625;-0.49273681640625;-0.60284423828125;-0.4197998046875;16.74407158117024;12.430515554936388;17.38271737710906;-0.95263671875;0.1884765625;0.0615234375;-2.1875;-0.8125;-0.9375;
1441975620001486;0.46673583984375;-0.492431640625;-0.60284423828125;-0.419921875;16.747960527250477;12.425502030418954;17.379078889484145;-0.95703125;0.18994140625;0.06494140625;-1.9375;-0.9375;-1.125;
1441975620016487;0.467041015625;-0.4920654296875;-0.6029052734375;-0.419921875;16.75111791205813;12.42056862233284;17.376249538962366;-0.9560546875;0.1845703125;0.0615234375;-1.6875;-1.125;-1.25;
1441975620038488;0.46734619140625;-0.4918212890625;-0.602783203125;-0.4200439453125;16.755593186106438;12.417837146004894;17.374380716801674;-0.95556640625;0.18896484375;0.06396484375;-2.1875;-1.125;-1.3125;
1441975620061489;0.4674072265625;-0.49176025390625;-0.602783203125;-0.4200439453125;16.75626381148128;12.417187808242105;17.374082024116078;-0.9580078125;0.1806640625;0.05908203125;-1.375;-0.875;-1.1875;
1441975620076490;0.46710205078125;-0.4920654296875;-0.602294921875;-0.420654296875;16.758708500277496;12.416209547542842;17.368166700869935;-0.9443359375;0.17041015625;0.07373046875;0.6875;-0.75;-0.875;
1441975620100491;0.466552734375;-0.4930419921875;-0.60150146484375;-0.4212646484375;16.759073683265964;12.428651519720784;17.372137219782637;-0.93359375;0.16943359375;0.07861328125;4.5625;-0.375;-0.125;
1441975620121493;0.4659423828125;-0.49444580078125;-0.60064697265625;-0.421630859375;16.756892382334964;12.452616017534364;17.386740223620716;-0.943359375;0.18359375;0.07080078125;8.625;0.625;0.875;
1441975620136494;0.46533203125;-0.49566650390625;-0.5999755859375;-0.4217529296875;16.75300634748228;12.47496078951427;17.401530215335807;-0.94775390625;0.2021484375;0.06298828125;9.375;1.4375;1.5625;
1441975620167495;0.464599609375;-0.4969482421875;-0.599365234375;-0.42193603515625;16.74781181924994;12.495805311658563;17.414279809432117;-0.94580078125;0.20751953125;0.06884765625;7.8125;1.8125;2.0;
1441975620181496;0.46356201171875;-0.49859619140625;-0.5986328125;-0.42218017578125;16.74004628640432;12.520984659693688;17.42890715981741;-0.9287109375;0.19482421875;0.07177734375;8.5625;2.0625;3.4375;
1441975620197497;0.4620361328125;-0.5010986328125;-0.59747314453125;-0.42254638671875;16.72880666497074;12.559709211439904;17.451625461572785;-0.912109375;0.19287109375;0.0712890625;10.9375;2.0;4.5625;
1441975620218498;0.46026611328125;-0.50396728515625;-0.59625244140625;-0.4227294921875;16.713805834856267;12.60543527878172;17.47996055831574;-0.900390625;0.20458984375;0.068359375;16.25;2.9375;5.75;
1441975620242500;0.45819091796875;-0.50701904296875;-0.5953369140625;-0.42266845703125;16.69258376792193;12.651006125504068;17.508321202497406;-0.88330078125;0.22900390625;0.05810546875;17.9375;3.3125;6.875;
1441975620256500;0.45574951171875;-0.51007080078125;-0.5943603515625;-0.42303466796875;16.670887352477664;12.687451770857828;17.525090154470266;-0.85888671875;0.24658203125;0.0693359375;17.75;3.5;7.8125;
1441975620278502;0.4522705078125;-0.51397705078125;-0.5927734375;-0.4241943359375;16.645815400563702;12.72471824115615;17.533178417670822;-0.82763671875;0.2177734375;0.07373046875;20.125;1.8125;9.625;
1441975620301503;0.44781494140625;-0.51934814453125;-0.59051513671875;-0.42547607421875;16.612582271975306;12.7819253044512;17.551875366661044;-0.7919921875;0.2001953125;0.0751953125;29.875;0.1875;11.125;
1441975620317504;0.44329833984375;-0.525146484375;-0.58831787109375;-0.42620849609375;16.57387543531577;12.849277016529221;17.581056531159184;-0.74609375;0.24072265625;0.06884765625;39.125;1.4375;13.125;
1441975620338505;0.43914794921875;-0.530029296875;-0.587158203125;-0.42608642578125;16.530540109615018;12.902567554099463;17.605346598250815;-0.697265625;0.24658203125;0.044921875;38.8125;2.625;15.1875;
1441975620361506;0.43511962890625;-0.533935546875;-0.58709716796875;-0.4254150390625;16.48245662565321;12.935592130371322;17.61730489230527;-0.654296875;0.2412109375;0.03466796875;29.5;1.375;17.5;
1441975620376507;0.4307861328125;-0.537841796875;-0.58740234375;-0.4244384765625;16.428323912601844;12.964534233165642;17.62623603025149;-0.5810546875;0.1865234375;0.048828125;21.5625;-0.6875;22.0625;
1441975620406509;0.42572021484375;-0.5426025390625;-0.58782958984375;-0.42291259765625;16.36168684915481;13.002456316347415;17.641493870929803;-0.49951171875;0.1376953125;0.06396484375;20.875;-0.25;27.125;
1441975620421510;0.41986083984375;-0.5478515625;-0.5887451171875;-0.42071533203125;16.280740362297635;13.040617324455711;17.65662922402652;-0.4453125;0.1357421875;0.0615234375;24.125;0.5625;32.9375;
1441975620436511;0.41412353515625;-0.55328369140625;-0.5902099609375;-0.41729736328125;16.189830440762783;13.084936120299822;17.682848416609925;-0.44189453125;0.18994140625;0.06494140625;24.125;0.4375;36.875;
1441975620458512;0.40960693359375;-0.557373046875;-0.59246826171875;-0.41302490234375;16.103690862518913;13.118349557517877;17.710356716254324;-0.50048828125;0.29638671875;0.03759765625;19.4375;1.75;37.125;
1441975620498514;0.406005859375;-0.5599365234375;-0.5955810546875;-0.4085693359375;16.024561045034993;13.13218890890877;17.728388779758824;-0.568359375;0.310546875;0.01904296875;6.9375;2.4375;36.125;
1441975620501514;0.40203857421875;-0.5618896484375;-0.59912109375;-0.40472412109375;15.946596651559288;13.128260297110131;17.728837468825105;-0.56396484375;0.248046875;0.02001953125;-3.625;0.3125;36.875;
1441975620518515;0.3975830078125;-0.565185546875;-0.60107421875;-0.401611328125;15.872361348913257;13.143249662671376;17.736118980245134;-0.50634765625;0.20458984375;0.07080078125;-3.5;-2.0625;37.4375;
1441975620541517;0.39300537109375;-0.56890869140625;-0.6021728515625;-0.399169921875;15.803951728753791;13.163419890889276;17.742502495519705;-0.4912109375;0.23486328125;0.06396484375;9.0;0.3125;34.1875;
1441975620556518;0.38848876953125;-0.57257080078125;-0.603271484375;-0.39666748046875;15.735820995820195;13.182943572160188;17.74874460280358;-0.5361328125;0.26904296875;0.0517578125;14.6875;0.125;30.875;
1441975620578519;0.38470458984375;-0.57525634765625;-0.60504150390625;-0.393798828125;15.67121927602324;13.19339102103794;17.75391059508772;-0.591796875;0.31396484375;0.0478515625;14.0;-0.1875;29.4375;
1441975620609521;0.381591796875;-0.57684326171875;-0.60784912109375;-0.39019775390625;15.60611838731617;13.193207363165463;17.758802847118083;-0.63720703125;0.32080078125;0.05712890625;6.375;0.1875;29.1875;
1441975620616521;0.3795166015625;-0.5775146484375;-0.61065673828125;-0.38677978515625;15.553293587798935;13.188527709673142;17.76438802740791;-0.67724609375;0.3505859375;0.06201171875;-4.125;0.375;29.0625;
1441975620638522;0.37860107421875;-0.5765380859375;-0.61395263671875;-0.38397216796875;15.516730002095436;13.167513103692018;17.76150849622893;-0.7216796875;0.32275390625;0.052734375;-9.1875;0.625;26.6875;
1441975620661524;0.37701416015625;-0.57537841796875;-0.6171875;-0.38201904296875;15.481446598774676;13.13782764162936;17.745865984652838;-0.7587890625;0.265625;0.06787109375;-17.1875;-1.75;23.375;
1441975620676524;0.373779296875;-0.576171875;-0.619384765625;-0.38043212890625;15.43385963481267;13.123975240729207;17.731397843521012;-0.810546875;0.24365234375;0.10302734375;-13.5;-5.125;25.1875;
1441975620698526;0.36993408203125;-0.5780029296875;-0.62127685546875;-0.3782958984375;15.375963957614921;13.122113017366983;17.724813518451054;-0.8486328125;0.28515625;0.103515625;0.875;-6.1875;30.25;
1441975620721527;0.36651611328125;-0.5797119140625;-0.62322998046875;-0.3758544921875;15.319531800433706;13.122330920886576;17.722990858664915;-0.91064453125;0.36376953125;0.072265625;5.0;-5.6875;33.4375;
1441975620737528;0.36407470703125;-0.580078125;-0.62530517578125;-0.3741455078125;15.279218143165853;13.110653832515766;17.714280168537655;-0.98828125;0.45556640625;0.03466796875;0.6875;-6.5;30.375;
1441975620758529;0.36138916015625;-0.57940673828125;-0.6278076171875;-0.37371826171875;15.246483618771876;13.080300259285309;17.68669473347986;-1.0576171875;0.44189453125;0.00390625;-5.5;-10.875;25.5625;
1441975620781530;0.356689453125;-0.5797119140625;-0.6298828125;-0.3741455078125;15.201999867306823;13.049700819587041;17.6462899883587;-1.04345703125;0.3779296875;0.02587890625;-6.9375;-18.5;24.375;
1441975620796531;0.3505859375;-0.5833740234375;-0.62994384765625;-0.3741455078125;15.142462860984008;13.057579431126156;17.625602906029215;-0.9765625;0.34716796875;0.07421875;5.875;-22.3125;29.3125;
1441975620818533;0.34527587890625;-0.587646484375;-0.629638671875;-0.37298583984375;15.08176364245691;13.081288131213133;17.623565405054684;-0.98681640625;0.4609375;0.05810546875;25.5;-15.9375;31.9375;
1441975620841534;0.34100341796875;-0.590576171875;-0.6298828125;-0.371826171875;15.030866139790804;13.094145067623085;17.619288121231154;-1.06591796875;0.57666015625;-0.0146484375;22.0;-11.75;30.75;
1441975620856535;0.3372802734375;-0.5911865234375;-0.63153076171875;-0.3714599609375;14.989946581817797;13.078352238108524;17.59663902616752;-1.091796875;0.57568359375;-0.0634765625;11.5;-15.1875;27.1875;
1441975620878536;0.33270263671875;-0.5927734375;-0.63189697265625;-0.37249755859375;14.953938018473735;13.069077597127166;17.56708432235814;-1.04736328125;0.51220703125;-0.01806640625;0.6875;-20.75;24.1875;
1441975620901537;0.32647705078125;-0.596435546875;-0.630126953125;-0.37506103515625;14.91818444006406;13.076814133447048;17.532559963792153;-1.06494140625;0.513671875;0.015625;14.0;-22.0625;21.6875;
1441975620916538;0.32012939453125;-0.6002197265625;-0.62908935546875;-0.376220703125;14.869067807865806;13.087618936350404;17.506629346239265;-1.07080078125;0.48681640625;0.00927734375;35.25;-25.1875;23.75;
1441975620938539;0.3150634765625;-0.60345458984375;-0.62860107421875;-0.37615966796875;14.821600584817048;13.100528861502516;17.493444717291457;-1.0068359375;0.5517578125;0.03076171875;31.1875;-20.375;25.5;
1441975620961541;0.3109130859375;-0.6060791015625;-0.6278076171875;-0.376708984375;14.788416150685759;13.110550789270436;17.47917316845154;-1.02978515625;0.58984375;0.0283203125;21.9375;-14.125;25.0625;
1441975620976542;0.30712890625;-0.6082763671875;-0.62713623046875;-0.37744140625;14.759964126431887;13.116979763052736;17.46347248432607;-1.06591796875;0.55615234375;0.0205078125;19.9375;-13.875;21.6875;
1441975620998543;0.302734375;-0.611572265625;-0.62542724609375;-0.37847900390625;14.730401324759576;13.134498394846347;17.449702119500667;-1.0810546875;0.5849609375;0.03759765625;18.1875;-13.5;18.75;
1441975621022544;0.299560546875;-0.61480712890625;-0.62359619140625;-0.3787841796875;14.706690296589551;13.15867788493644;17.448228284391796;-1.08740234375;0.59130859375;0.02490234375;27.375;-13.0625;19.75;
1441975621044545;0.2969970703125;-0.61724853515625;-0.62286376953125;-0.37811279296875;14.678767263327533;13.176520568200669;17.4507702275138;-1.0224609375;0.53173828125;-0.0126953125;22.3125;-7.8125;19.0;
1441975621058546;0.29559326171875;-0.619140625;-0.62200927734375;-0.37738037109375;14.661669101761266;13.194323332421492;17.45822911311502;-0.99267578125;0.58740234375;0.00146484375;13.1875;-4.5625;17.375;
1441975621081548;0.29534912109375;-0.620849609375;-0.62066650390625;-0.3770751953125;14.659073336903651;13.214817558421448;17.46976351939961;-1.00439453125;0.6123046875;0.0205078125;9.9375;0.0;11.5625;
1441975621104549;0.2947998046875;-0.6234130859375;-0.61810302734375;-0.37744140625;14.661412511801693;13.244774597244431;17.48164219543073;-1.03564453125;0.5869140625;0.046875;10.4375;5.0;7.125;
1441975621118550;0.2938232421875;-0.62799072265625;-0.61383056640625;-0.37762451171875;14.66082764325395;13.29849184666473;17.50538726478442;-1.0751953125;0.5693359375;0.06787109375;20.625;7.0625;7.75;
1441975621141551;0.29095458984375;-0.63494873046875;-0.6087646484375;-0.3763427734375;14.631784612751561;13.373851589885579;17.53971577663252;-1.01904296875;0.49072265625;-0.0283203125;31.3125;8.25;11.625;
1441975621164552;0.2904052734375;-0.63934326171875;-0.60638427734375;-0.37322998046875;14.603280802276778;13.428689929962243;17.581673462094525;-0.998046875;0.6650390625;-0.14208984375;39.9375;8.125;15.5625;
1441975621178553;0.29168701171875;-0.6409912109375;-0.60565185546875;-0.37054443359375;14.592412873496121;13.458246710202786;17.615887669795843;-1.119140625;0.74658203125;-0.12646484375;14.3125;14.125;15.625;
1441975621201554;0.28900146484375;-0.644287109375;-0.6046142578125;-0.36865234375;14.55307406192419;13.485649935560229;17.627525470009896;-1.2685546875;0.69140625;-0.0517578125;-1.3125;15.375;15.375;
1441975621224556;0.28521728515625;-0.6531982421875;-0.60174560546875;-0.3604736328125;14.45016762901074;13.578832401187256;17.697424917758227;-1.17822265625;0.7529296875;0.12255859375;22.4375;13.125;23.0625;
1441975621240557;0.28765869140625;-0.66192626953125;-0.603271484375;-0.3394775390625;14.279060118571005;13.697746554559274;17.863635517378256;-0.97802734375;0.94287109375;0.0859375;40.3125;46.625;36.625;
1441975621269558;0.31451416015625;-0.64886474609375;-0.61578369140625;-0.3177490234375;14.309371657988969;13.689945942851066;0.08026794582626988;-0.8994140625;1.26513671875;-0.33837890625;-26.125;85.875;47.8125;
1441975621284559;0.31231689453125;-0.6524658203125;-0.62396240234375;-0.2957763671875;14.08653235822932;13.710972733244752;0.17460201830632174;-1.92919921875;0.0927734375;0.46435546875;-175.25;137.6875;-5.4375;
1441975621300560;0.33489990234375;-0.637939453125;-0.64251708984375;-0.26092529296875;13.975069029760341;13.669531015163882;0.4092650217695859;-0.7529296875;1.24169921875;-0.02587890625;-51.0;66.4375;72.0;
1441975621321561;0.33538818359375;-0.64068603515625;-0.64788818359375;-0.23944091796875;13.784742155973403;13.69596145734527;0.5128011107222589;-0.30859375;1.328125;0.37353515625;-217.5;158.0;31.0625;
1441975621344563;0.3323974609375;-0.62786865234375;-0.662841796875;-0.236572265625;13.75360513585038;13.539808568939753;0.44212892276415733;-1.17431640625;1.11572265625;-0.31005859375;-62.6875;61.125;88.0625;
1441975621358563;0.32281494140625;-0.63165283203125;-0.66302490234375;-0.23944091796875;13.69251142148184;13.526259245777208;0.37985928918678724;-1.35107421875;0.5166015625;0.61474609375;-74.4375;-12.875;55.0;
1441975621389565;0.3157958984375;-0.63177490234375;-0.67047119140625;-0.227294921875;13.528530815877504;13.490521435112464;0.38483193535106214;-0.64697265625;1.41650390625;0.29052734375;47.1875;-26.3125;-11.1875;
1441975621403566;0.30908203125;-0.631591796875;-0.6785888671875;-0.21246337890625;13.345746390211472;13.455863546757506;0.4041716043258541;-0.9873046875;1.279296875;0.17919921875;-30.75;12.625;66.6875;
1441975621418567;0.3004150390625;-0.63092041015625;-0.687744140625;-0.19683837890625;13.141933050806884;13.410489472080084;0.41527412326379776;-1.12646484375;1.23876953125;0.0078125;-48.75;12.5;88.75;
1441975621441568;0.2913818359375;-0.6304931640625;-0.6968994140625;-0.178955078125;12.917658638461871;13.369633720659486;0.4377268363872153;-0.8154296875;1.17919921875;-0.0302734375;-56.375;2.875;90.0;
1441975621463569;0.285400390625;-0.621826171875;-0.71197509765625;-0.15826416015625;12.709762580737031;13.270495078773829;0.46744567698377026;-0.5283203125;1.2685546875;-0.13720703125;-58.0625;10.9375;106.0625;
1441975621478570;0.27691650390625;-0.6212158203125;-0.71978759765625;-0.13934326171875;12.48694133579489;13.238067894089257;0.5034364169827126;-0.65966796875;0.96875;0.03564453125;-117.9375;16.1875;104.3125;
1441975621501572;0.267822265625;-0.62188720703125;-0.72589111328125;-0.12115478515625;12.264768118772851;13.21674170840525;0.5380380285822833;-0.64892578125;0.9931640625;-0.08837890625;-56.1875;17.8125;112.6875;
1441975621523573;0.2608642578125;-0.62274169921875;-0.73028564453125;-0.10418701171875;12.071439968414865;13.20520479271655;0.5794998157076094;-0.552734375;1.0205078125;-0.009765625;-42.25;17.0;111.8125;
1441975621538574;0.252685546875;-0.62261962890625;-0.735595703125;-0.08648681640625;11.864650062208357;13.18248661176424;0.6164865895802805;-0.564453125;0.955078125;-0.06298828125;-43.125;19.4375;99.4375;
1441975621561575;0.24224853515625;-0.6295166015625;-0.73492431640625;-0.07049560546875;11.64104663770768;13.211307009393064;0.6496592265304226;-0.63623046875;0.8818359375;-0.03271484375;-42.9375;19.4375;108.5625;
1441975621583576;0.23199462890625;-0.6383056640625;-0.73175048828125;-0.0579833984375;11.442583394059344;13.25567133080019;0.6709257689264281;-0.53662109375;0.77783203125;-0.1298828125;10.125;15.625;116.25;
1441975621610578;0.223388671875;-0.64630126953125;-0.72821044921875;-0.04693603515625;11.270449873352797;13.298355797940568;0.6910324395234909;-0.4150390625;0.88525390625;-0.111328125;32.625;8.5;100.9375;
1441975621621578;0.21478271484375;-0.65179443359375;-0.72650146484375;-0.0361328125;11.10482733752555;13.321424532152642;0.7053451806517819;-0.51904296875;0.9365234375;-0.20166015625;17.0625;3.5;95.5;
1441975621643580;0.20391845703125;-0.66033935546875;-0.722412109375;-0.0235595703125;10.900918594379087;13.364202133561683;0.72040069811307;-0.57080078125;0.884765625;-0.11328125;6.8125;2.375;98.4375;
1441975621658581;0.19342041015625;-0.67095947265625;-0.71575927734375;-0.01104736328125;10.695978372082273;13.4256111034178;0.7381290330368068;-0.4501953125;0.8623046875;-0.1201171875;34.9375;7.0625;105.125;
1441975621681582;0.185791015625;-0.68096923828125;-0.70843505859375;6.7138671875E-4;10.520636474603688;13.48918533489174;0.7629166862148575;-0.41064453125;0.990234375;-0.11083984375;53.75;12.75;104.8125;
1441975621703583;0.17877197265625;-0.68896484375;-0.702392578125;0.01031494140625;10.370369204231134;13.538833011221548;0.7785805879232424;-0.40283203125;0.98193359375;-0.12255859375;48.0;19.5625;97.3125;
1441975621718584;0.1712646484375;-0.698486328125;-0.6947021484375;0.01739501953125;10.233505008529269;13.600595133864763;0.7820556525920741;-0.4482421875;0.90087890625;-0.11328125;39.125;13.875;90.625;
1441975621741585;0.1651611328125;-0.70928955078125;-0.6849365234375;0.02392578125;10.108667343160104;13.677179827581943;0.7895423849888852;-0.4052734375;0.859375;-0.1171875;54.75;3.9375;83.25;
1441975621763587;0.1629638671875;-0.71783447265625;-0.67633056640625;0.0284423828125;10.034573229025154;13.743763716850134;0.8038131638577772;-0.29833984375;0.8212890625;-0.11376953125;71.0;10.125;71.3125;
1441975621778587;0.16241455078125;-0.7252197265625;-0.66845703125;0.0306396484375;9.994349117095782;13.80462182576131;0.8151754392242266;-0.31103515625;0.775390625;-0.076171875;63.3125;17.1875;47.625;
1441975621801589;0.16192626953125;-0.73321533203125;-0.65966796875;0.03204345703125;9.959271606083995;13.871874674414672;0.8240362779589437;-0.37109375;0.8310546875;-0.05810546875;60.875;15.1875;34.25;
1441975621823590;0.16241455078125;-0.74053955078125;-0.6512451171875;0.03399658203125;9.927557718991052;13.935617755854343;0.8386698015347025;-0.2568359375;0.81103515625;0.02392578125;74.625;13.0;24.5;
1441975621846591;0.164306640625;-0.7467041015625;-0.6435546875;0.03680419921875;9.900404926976202;13.992710513059965;0.86200454789889;-0.1611328125;0.75244140625;-0.0107421875;68.25;18.25;16.125;
1441975621861592;0.1644287109375;-0.7532958984375;-0.6356201171875;0.039306640625;9.861544782465383;14.050791997727748;0.8761173713602171;-0.17724609375;0.77587890625;-0.02001953125;61.125;26.5625;13.1875;
1441975621883593;0.16168212890625;-0.75872802734375;-0.62969970703125;0.0418701171875;9.805215883516267;14.093066836215955;0.875942060048675;-0.13427734375;0.83349609375;0.00439453125;67.375;18.875;16.9375;
1441975621898594;0.15704345703125;-0.7633056640625;-0.625;0.0455322265625;9.728441325752037;14.12472801259924;0.8701012565742079;0.0244140625;0.814453125;0.04638671875;57.125;5.75;17.875;
1441975621921596;0.150146484375;-0.76690673828125;-0.6219482421875;0.05047607421875;9.627724373521966;14.143220659403331;0.8573809586792542;0.13427734375;0.79443359375;0.07470703125;49.4375;1.1875;22.625;
1441975621943597;0.14239501953125;-0.76922607421875;-0.62042236328125;0.0565185546875;9.5148059631535;14.149409806819728;0.8439155497076845;0.20556640625;0.78759765625;0.08837890625;38.25;-3.25;31.875;
1441975621958598;0.13409423828125;-0.7691650390625;-0.6217041015625;0.062744140625;9.402600542143379;14.134496290836175;0.8279039739263359;0.265625;0.75830078125;0.123046875;27.75;-3.875;35.3125;
1441975621990600;0.12481689453125;-0.76715087890625;-0.62542724609375;0.0694580078125;9.284040395616366;14.101297535382468;0.8091549843040798;0.26953125;0.724609375;0.138671875;6.6875;-6.5;36.25;
1441975622019601;0.11474609375;-0.7642822265625;-0.630126953125;0.07574462890625;9.165183903632087;14.060950688948061;0.786016906086737;0.2529296875;0.681640625;0.12255859375;-13.75;-8.6875;42.375;
1441975622043603;0.10430908203125;-0.76165771484375;-0.63421630859375;0.082763671875;9.035714673651132;14.024054911153495;0.7649582663859008;0.23193359375;0.6787109375;0.13330078125;-21.125;-13.3125;45.625;
1441975622044603;0.09417724609375;-0.75836181640625;-0.63861083984375;0.091064453125;8.8978211372643;13.983216283697534;0.751029142313912;0.23046875;0.68798828125;0.0869140625;-21.75;-11.5;51.5;
1441975622071604;0.083984375;-0.75531005859375;-0.64263916015625;0.0977783203125;8.772138054154967;13.946156771727198;0.7319184560002395;0.19970703125;0.67724609375;0.03125;-30.875;-4.0;57.375;
1441975622088605;0.07354736328125;-0.75360107421875;-0.64508056640625;0.10302734375;8.653774295889638;13.922187451326765;0.7067337182649635;0.1142578125;0.67724609375;0.021484375;-28.5625;-9.9375;59.0625;
1441975622100606;0.06365966796875;-0.75079345703125;-0.64874267578125;0.107177734375;8.550732982677413;13.890224717281454;0.6806196516761035;0.0869140625;0.57470703125;-0.10986328125;-26.8125;-16.375;58.5625;
1441975622123607;0.05474853515625;-0.74853515625;-0.6519775390625;0.10809326171875;8.481176684815681;13.86497580338748;0.64665882878153;0.07666015625;0.50244140625;-0.11376953125;-37.1875;-18.6875;52.3125;
1441975622138608;0.04718017578125;-0.748046875;-0.6539306640625;0.103271484375;8.467584817777198;13.856247946080696;0.595933909320957;0.03857421875;0.43798828125;-0.12060546875;-32.375;-28.625;39.1875;
1441975622161609;0.04193115234375;-0.7484130859375;-0.6556396484375;0.09100341796875;8.534068506509957;13.856561988113787;0.5263349098824708;-0.02880859375;0.38671875;-0.1484375;-20.25;-48.25;17.25;
1441975622193611;0.04022216796875;-0.7491455078125;-0.6573486328125;0.0716552734375;8.687719774168665;13.861267037860522;0.4449324097361984;-0.11279296875;0.43115234375;-0.1787109375;-14.625;-70.75;-14.375;
1441975622198611;0.04034423828125;-0.74822998046875;-0.66058349609375;0.0477294921875;8.896165521081537;13.85277865917642;0.3545254055906271;-0.20654296875;0.5166015625;-0.2109375;-11.25;-87.5625;-50.1875;
1441975622229613;0.04437255859375;-0.746826171875;-0.663330078125;0.01806640625;9.18269411565306;13.842988185587828;0.25900421183759886;-0.26904296875;0.54150390625;-0.22265625;-14.4375;-101.9375;-87.5625;
1441975622243614;0.05279541015625;-0.74468994140625;-0.6651611328125;-0.01593017578125;9.539128601926448;13.83064790781602;0.16536972191480792;-0.30078125;0.5390625;-0.19775390625;-11.375;-111.625;-125.6875;
1441975622260615;0.06597900390625;-0.74249267578125;-0.66455078125;-0.05291748046875;9.957053960370388;13.82378501163603;0.0803197436012416;-0.34326171875;0.466796875;-0.11083984375;-7.75;-113.3125;-161.0;
1441975622281616;0.08343505859375;-0.73968505859375;-0.661376953125;-0.09259033203125;10.43188438334978;13.82025993847029;0.002829577425400266;-0.40087890625;0.4453125;-0.03662109375;4.375;-107.0625;-192.75;
1441975622320618;0.105712890625;-0.73431396484375;-0.656982421875;-0.1341552734375;10.962860862802472;13.807074097212048;17.93605534754111;-0.4169921875;0.53759765625;-0.025390625;13.125;-101.4375;-223.0;
1441975622322619;0.13226318359375;-0.72760009765625;-0.64990234375;-0.1754150390625;11.528769368935516;13.797567249996682;17.8873833812296;-0.4345703125;0.56201171875;0.0498046875;8.0625;-91.625;-253.25;
1441975622341620;0.1612548828125;-0.7215576171875;-0.637939453125;-0.215576171875;12.111766453226355;13.812495572439886;17.858273558556757;-0.51708984375;0.4501953125;0.07080078125;10.875;-73.3125;-272.0625;
1441975622363621;0.1915283203125;-0.7139892578125;-0.62286376953125;-0.2562255859375;12.718795521348689;13.83463592727469;17.83562404142558;-0.6806640625;0.35693359375;0.0185546875;29.6875;-55.4375;-280.5625;
1441975622380622;0.2216796875;-0.70281982421875;-0.60723876953125;-0.29718017578125;13.338115099907693;13.839894411270588;17.8054906508726;-0.84033203125;0.486328125;-0.103515625;34.125;-52.6875;-293.3125;
1441975622401623;0.25250244140625;-0.68804931640625;-0.59100341796875;-0.33709716796875;13.966479843816778;13.829328058737374;17.77413395056489;-0.9296875;0.4892578125;-0.1455078125;23.5;-59.5;-299.375;
1441975622431625;0.28289794921875;-0.671142578125;-0.572998046875;-0.37579345703125;14.595649459058148;13.81234222786761;17.739026673432843;-1.03662109375;0.51708984375;-0.244140625;10.125;-60.0;-305.3125;
1441975622440625;0.31170654296875;-0.65228271484375;-0.55511474609375;-0.41143798828125;15.197640149754857;13.776012955749822;17.693656816602648;-1.16064453125;0.44384765625;-0.32275390625;8.125;-59.5;-305.875;
1441975622464627;0.3392333984375;-0.6314697265625;-0.53790283203125;-0.44366455078125;15.770766817492827;13.709043628448786;17.629933573519597;-1.14013671875;0.2060546875;-0.2763671875;0.25;-57.4375;-291.3125;
1441975622491628;0.3629150390625;-0.6121826171875;-0.518798828125;-0.47369384765625;16.30425598968851;13.627109353368233;17.534712533131355;-1.1728515625;0.05224609375;-0.2177734375;-10.8125;-54.25;-276.6875;
1441975622500629;0.3828125;-0.5953369140625;-0.497802734375;-0.50128173828125;16.794079720033256;13.525784683511551;17.40232786150884;-1.28955078125;-0.01318359375;-0.09814453125;7.3125;-49.125;-257.625;
1441975622529630;0.39996337890625;-0.57989501953125;-0.476806640625;-0.52581787109375;17.23809288725044;13.336141104794358;17.177390927950746;-1.34033203125;0.03515625;-0.046875;26.5;-40.625;-239.9375;
1441975622551632;0.41265869140625;-0.56732177734375;-0.45501708984375;-0.54852294921875;17.624437475811717;12.803168366433935;16.590015766431836;-1.40625;-0.01416015625;-0.06005859375;31.9375;-34.1875;-219.25;
1441975622560632;0.4202880859375;-0.5582275390625;-0.4307861328125;-0.5711669921875;17.86498792832643;9.102633557264696;12.802680137337964;-1.43212890625;0.00927734375;-0.07666015625;51.8125;-30.3125;-197.8125;
1441975622580633;0.42681884765625;-0.5487060546875;-0.40631103515625;-0.59307861328125;17.603850604788327;5.9538822874686845;9.565605708096845;-1.3759765625;0.25048828125;-0.10302734375;84.375;-27.1875;-185.6875;
1441975622611635;0.4366455078125;-0.533447265625;-0.3853759765625;-0.61346435546875;17.229410494755765;5.586042292167237;9.149057962901736;-1.3134765625;0.50244140625;-0.24267578125;86.0625;-31.1875;-188.25;
1441975622619636;0.44793701171875;-0.51495361328125;-0.3665771484375;-0.63238525390625;16.840498005230668;5.495658523890111;9.03281351766607;-1.27197265625;0.51904296875;-0.28759765625;47.0;-47.75;-198.8125;
1441975622640637;0.4560546875;-0.49859619140625;-0.34588623046875;-0.65106201171875;16.471375336861843;5.462567782867991;8.952327237570985;-1.21044921875;0.33056640625;-0.20458984375;24.375;-55.875;-198.4375;
1441975622663638;0.45989990234375;-0.48486328125;-0.32275390625;-0.6702880859375;16.122888814527617;5.469662623677147;8.88155838392982;-1.05615234375;0.259765625;-0.08984375;45.1875;-47.1875;-188.9375;
1441975622679639;0.462646484375;-0.47003173828125;-0.2999267578125;-0.6893310546875;15.773448354211558;5.504482293255478;8.837982374883305;-0.890625;0.345703125;-0.10498046875;74.6875;-41.4375;-182.0625;
1441975622701640;0.46246337890625;-0.45526123046875;-0.2783203125;-0.7081298828125;15.444255619266556;5.572526703672247;8.821201667831053;-0.9140625;0.25;-0.12255859375;75.875;-48.625;-179.25;
1441975622723641;0.45855712890625;-0.44268798828125;-0.257568359375;-0.726318359375;15.154272551405604;5.659307068054176;8.808442836273954;-0.92529296875;0.2529296875;-0.083984375;83.125;-55.5625;-166.5625;
1441975622740642;0.4569091796875;-0.43023681640625;-0.24066162109375;-0.740478515625;14.898148615151406;5.71668850951494;8.795548762997242;-0.84521484375;0.31591796875;-0.13330078125;98.1875;-54.4375;-147.8125;
1441975622769644;0.45806884765625;-0.417236328125;-0.22698974609375;-0.75140380859375;14.660980066103175;5.747849034126915;8.785738596258275;-0.73779296875;0.3779296875;-0.1884765625;68.75;-51.0;-131.625;
1441975622783645;0.45703125;-0.40625;-0.21392822265625;-0.76177978515625;14.453772585657168;5.788096638021814;8.775561797947198;-0.603515625;0.3193359375;-0.10009765625;39.125;-48.75;-119.8125;
1441975622800646;0.451904296875;-0.40234375;-0.2059326171875;-0.76910400390625;14.360930434426072;5.841751022331064;8.773428656434959;-0.55126953125;0.31494140625;-0.0458984375;47.625;-41.9375;-105.625;
1441975622820647;0.44927978515625;-0.39996337890625;-0.2020263671875;-0.77288818359375;14.311020636921516;5.870547119989814;8.774969466567892;-0.56103515625;0.38818359375;-0.10546875;51.9375;-35.4375;-84.5625;
1441975622845648;0.44610595703125;-0.3990478515625;-0.2012939453125;-0.775390625;14.298073504108268;5.9045242062508825;8.791064487020796;-0.57080078125;0.3125;-0.193359375;28.625;-33.5;-60.0;
1441975622860649;0.43902587890625;-0.40338134765625;-0.20343017578125;-0.77667236328125;14.36258027681345;5.958875560264945;8.815393202410476;-0.53271484375;0.2119140625;-0.1416015625;22.1875;-30.0;-32.75;
1441975622880650;0.434814453125;-0.412109375;-0.2098388671875;-0.77276611328125;14.501781322592047;5.974755442627987;8.829676950716806;-0.4609375;0.41650390625;-0.11328125;30.5625;-12.4375;-4.5625;
1441975622903652;0.43817138671875;-0.419189453125;-0.22113037109375;-0.76385498046875;14.652362250656779;5.933508651360308;8.846568132871484;-0.4873046875;0.63623046875;-0.267578125;1.125;2.3125;12.1875;
1441975622919653;0.43621826171875;-0.428466796875;-0.2337646484375;-0.7559814453125;14.840254971320515;5.93914995533548;8.88861616515065;-0.63623046875;0.37841796875;-0.27880859375;-52.625;0.0625;27.4375;
1441975622944654;0.4261474609375;-0.445556640625;-0.247314453125;-0.74749755859375;15.126531500946683;5.995928279978014;8.940338499285858;-0.7685546875;0.208984375;-0.1357421875;-29.0;3.6875;56.625;
1441975622963655;0.419189453125;-0.4615478515625;-0.26190185546875;-0.7366943359375;15.410039408411432;6.0315630387482395;8.992990799709522;-0.79931640625;0.42236328125;-0.1826171875;10.4375;23.0625;88.5625;
1441975622980656;0.41143798828125;-0.4796142578125;-0.28173828125;-0.7220458984375;15.757921640310723;6.093749750621015;9.091594557867499;-0.99609375;0.4697265625;-0.279296875;-11.125;42.5;120.75;
1441975623001657;0.40234375;-0.500244140625;-0.3052978515625;-0.70343017578125;16.167801108518656;6.200928060298293;9.246060307155405;-1.2646484375;0.39697265625;-0.25341796875;-27.75;47.0;156.1875;
1441975623023659;0.39666748046875;-0.5206298828125;-0.3358154296875;-0.67742919921875;16.633978637109472;6.367403715706405;9.511529017435226;-1.43359375;0.51220703125;-0.21533203125;-38.125;58.3125;186.4375;
1441975623040660;0.3883056640625;-0.54302978515625;-0.37066650390625;-0.645751953125;17.154731198177544;6.885017601306034;10.140618269990252;-1.7646484375;0.3828125;-0.19580078125;-89.1875;68.6875;219.75;
1441975623062661;0.3671875;-0.57257080078125;-0.40179443359375;-0.6131591796875;17.56771362553673;9.374366142090764;12.670829616996684;-2.08935546875;0.099609375;-0.083984375;-100.5625;80.625;267.3125;
1441975623083662;0.3321533203125;-0.60919189453125;-0.42669677734375;-0.580078125;17.19777452032898;12.728728382372767;15.982844033210878;-2.314453125;-0.06689453125;0.107421875;-28.3125;95.6875;317.625;
1441975623099663;0.29425048828125;-0.64501953125;-0.4541015625;-0.5396728515625;16.444061583140687;13.555305582326426;16.783303128750546;-2.53515625;0.0625;0.11376953125;56.125;104.1875;356.5;
1441975623120664;0.25341796875;-0.6763916015625;-0.483642578125;-0.494384765625;15.604641883649041;13.806807571400146;17.02604822112531;-2.8271484375;0.08984375;0.11083984375;41.3125;115.375;391.25;
1441975623143666;0.21844482421875;-0.69940185546875;-0.523193359375;-0.43524169921875;14.686191200706158;13.887465693696715;17.204453154669345;-2.76904296875;0.37451171875;0.09619140625;22.0;108.8125;414.1875;
1441975623159666;0.2044677734375;-0.69140625;-0.58648681640625;-0.369140625;13.861001173141181;13.671747649061633;17.34330082684788;-2.74609375;1.00537109375;-0.10498046875;-76.5625;140.375;446.1875;
1441975623182668;0.19183349609375;-0.67340087890625;-0.64178466796875;-0.31292724609375;13.188435140390554;13.424799651110568;17.445159784100646;-2.7822265625;0.5751953125;0.03271484375;-327.0;124.3125;403.6875;
1441975623203669;0.157470703125;-0.6881103515625;-0.65167236328125;-0.277587890625;12.596183685876465;13.487828301031946;17.483738454607227;-2.67431640625;-0.57763671875;0.1474609375;-319.6875;77.5625;336.0;
1441975623219670;0.11566162109375;-0.720458984375;-0.63330078125;-0.258056640625;12.121713839455186;13.717171993795063;17.460240480126338;-2.556640625;-0.88037109375;-0.1484375;38.6875;25.5625;296.8125;
1441975623243671;0.08575439453125;-0.74560546875;-0.61505126953125;-0.24188232421875;11.778458456867943;13.910954682797161;17.447231260976498;-2.18701171875;-0.10009765625;-0.029296875;242.4375;-11.1875;238.125;
1441975623263672;0.069091796875;-0.753173828125;-0.61639404296875;-0.2193603515625;11.455489163701287;13.955363542173231;17.473153872773363;-1.94189453125;0.09228515625;0.0634765625;200.4375;7.375;172.0;
