1441975357294460;-0.9227294921875;-0.170654296875;-0.33099365234375;-0.099853515625;5.478065799622859;16.93325135039489;10.389968482455021;1.7890625;0.22998046875;-0.60302734375;671.0;5.1875;-251.75;
1441975357317461;-0.92578125;-0.21673583984375;-0.30877685546875;-0.02545166015625;5.58980808004513;17.368818977643173;10.511926525596952;1.46533203125;1.3408203125;-0.673828125;673.0;-8.75;-181.125;
1441975357338462;-0.92626953125;-0.239013671875;-0.2916259765625;1.220703125E-4;5.730093146693625;17.5240763302499;10.586803135355291;1.255859375;2.2734375;-0.279296875;506.3125;-24.3125;-112.6875;
1441975357354463;-0.9256591796875;-0.241455078125;-0.29034423828125;-0.0242919921875;5.8279893887468335;17.371320306682787;10.641236440434104;1.052734375;2.0771484375;0.06591796875;196.4375;-56.9375;-74.8125;
1441975357377465;-0.92425537109375;-0.234375;-0.29559326171875;-0.05950927734375;5.877083222176017;17.155142305565864;10.660637063107828;1.1904296875;0.9951171875;0.03662109375;-109.625;-56.6875;-49.0625;
1441975357398466;-0.92205810546875;-0.230224609375;-0.29937744140625;-0.08514404296875;5.9146417413879115;16.995648418672232;10.681729914772333;1.18505859375;-0.16943359375;-0.15673828125;-209.0;-35.125;-28.25;
1441975357414467;-0.9185791015625;-0.24041748046875;-0.3037109375;-0.0787353515625;5.866158291661584;17.00516266917272;10.748360068541208;0.9814453125;-0.56494140625;-0.12158203125;-157.4375;-24.9375;-33.0;
1441975357437468;-0.9146728515625;-0.26495361328125;-0.29962158203125;-0.0594482421875;5.88995422746093;17.08983673881697;10.870726749352073;0.91357421875;-0.35546875;-0.0068359375;23.3125;-7.9375;-76.8125;
1441975357458469;-0.90869140625;-0.2906494140625;-0.29705810546875;-0.0400390625;5.889747857993898;17.167150591385223;11.007002607061887;0.90576171875;0.0078125;-0.14453125;147.3125;11.5;-107.0625;
1441975357476470;-0.9007568359375;-0.31475830078125;-0.29827880859375;-0.02557373046875;5.858567442234414;17.204907645812646;11.151061860965342;0.88916015625;0.3876953125;-0.17724609375;152.25;23.875;-112.0625;
1441975357497471;-0.89141845703125;-0.33599853515625;-0.3038330078125;-0.01678466796875;5.797137932591292;17.198626009043544;11.296664311781544;0.876953125;0.48388671875;-0.2138671875;118.3125;38.9375;-113.25;
1441975357518473;-0.881103515625;-0.35400390625;-0.3134765625;-0.01190185546875;5.704739039233952;17.15868942570388;11.439367993527714;0.84765625;0.3798828125;-0.29248046875;74.3125;54.3125;-110.6875;
1441975357534474;-0.86846923828125;-0.36962890625;-0.3304443359375;-0.0067138671875;5.532368127106362;17.093442470779188;11.590680991505382;0.84765625;0.341796875;-0.318359375;40.125;69.3125;-102.9375;
1441975357557475;-0.85443115234375;-0.3839111328125;-0.35028076171875;-0.00140380859375;5.331460777758056;17.011248414976148;11.750264699220955;0.8740234375;0.2919921875;-0.3115234375;28.5;84.3125;-98.5;
1441975357578476;-0.8409423828125;-0.397216796875;-0.3675537109375;0.0029296875;5.164973629042336;16.92646226572706;11.905565831438336;0.908203125;0.31640625;-0.26123046875;22.0;99.6875;-94.6875;
1441975357594477;-0.8271484375;-0.40777587890625;-0.38677978515625;0.0052490234375;4.990351391635882;16.81804201949408;12.060985208488887;0.9501953125;0.3759765625;-0.27685546875;13.125;112.25;-86.5;
1441975357617478;-0.81329345703125;-0.4144287109375;-0.408447265625;0.00482177734375;4.806106101946666;16.680258762754317;12.213749619346123;0.9755859375;0.416015625;-0.306640625;-6.8125;118.5625;-78.375;
1441975357638479;-0.799072265625;-0.41729736328125;-0.43292236328125;0.0042724609375;4.594303669795527;16.52237065917739;12.366645985926553;1.0244140625;0.38916015625;-0.255859375;-34.75;123.0;-67.0625;
1441975357654480;-0.78436279296875;-0.41656494140625;-0.459716796875;0.00341796875;4.361902219707398;16.340688325390616;12.52470399941749;1.138671875;0.33447265625;-0.3046875;-51.9375;137.625;-51.9375;
1441975357678482;-0.76953125;-0.412353515625;-0.48773193359375;0.0028076171875;4.115891647716728;16.140236777981784;12.68713825377417;1.22216796875;0.28076171875;-0.314453125;-69.0625;148.6875;-39.125;
1441975357699483;-0.7547607421875;-0.40399169921875;-0.51690673828125;0.0015869140625;3.860089240855877;15.913791086982858;12.8551364920965;1.326171875;0.27783203125;-0.29150390625;-80.0;155.4375;-24.0;
1441975357714484;-0.74090576171875;-0.38922119140625;-0.54742431640625;-0.00146484375;3.5908928038589836;15.654837972815681;13.02021505869766;1.4658203125;0.32275390625;-0.3076171875;-97.3125;159.0;-8.0625;
1441975357736485;-0.7286376953125;-0.36572265625;-0.5791015625;-0.0076904296875;3.304787833085833;15.356761526656221;13.174360389597327;1.525390625;0.39208984375;-0.376953125;-127.875;161.125;16.75;
1441975357759486;-0.717529296875;-0.33355712890625;-0.61126708984375;-0.016845703125;3.0010753595491364;15.013816292302534;13.326785425122699;1.47509765625;0.3974609375;-0.41259765625;-172.0625;156.3125;47.75;
1441975357782488;-0.7071533203125;-0.29437255859375;-0.64239501953125;-0.02728271484375;2.68288132907601;14.628893242704159;13.490584132352456;1.40283203125;0.32861328125;-0.443359375;-214.9375;150.9375;76.8125;
1441975357796489;-0.697021484375;-0.25103759765625;-0.67071533203125;-0.036865234375;2.3590889789077423;14.206016183878836;13.683944946051081;1.37353515625;0.3251953125;-0.4111328125;-243.375;142.5;102.75;
1441975357820490;-0.68707275390625;-0.20587158203125;-0.69549560546875;-0.04388427734375;2.03547783503602;13.737550412543722;13.930703444315744;1.34228515625;0.2275390625;-0.41064453125;-250.625;133.25;122.5;
1441975357840491;-0.67779541015625;-0.16229248046875;-0.7156982421875;-0.0462646484375;1.7239893897319303;13.222963795443922;14.253005764584307;1.3017578125;0.10498046875;-0.37353515625;-242.1875;123.0625;138.25;
1441975357856492;-0.66949462890625;-0.121826171875;-0.73150634765625;-0.04400634765625;1.4382899200863615;12.633820170937337;14.684107542514406;1.2568359375;0.0576171875;-0.2958984375;-211.0;107.8125;150.625;
1441975357880493;-0.66192626953125;-0.08502197265625;-0.74383544921875;-0.0374755859375;1.1961587525350992;11.908404887805963;15.285309962272267;1.23974609375;0.044921875;-0.27294921875;-175.875;93.0625;158.6875;
1441975357900494;-0.655029296875;-0.0521240234375;-0.75335693359375;-0.02789306640625;1.0285380673996989;11.006183961100069;16.09238236835141;1.2138671875;0.0966796875;-0.25634765625;-140.9375;80.875;164.0625;
1441975357916495;-0.649169921875;-0.02349853515625;-0.76019287109375;-0.01495361328125;0.9530851374653132;9.972530316075778;17.062207507518313;1.1337890625;0.0625;-0.234375;-110.875;69.9375;163.0;
1441975357945497;-0.6444091796875;-0.001953125;-0.76470947265625;0.001953125;0.9759291446485527;9.007941526607697;0.007941526607697076;1.08154296875;-0.08447265625;-0.13671875;-78.25;55.1875;160.125;
1441975357960498;-0.63958740234375;0.010498046875;-0.76837158203125;0.02252197265625;1.078820493276234;8.305427549930466;0.74350167747794;1.12109375;-0.20166015625;-0.05078125;-31.625;42.0625;150.3125;
1441975357976499;-0.63409423828125;0.015869140625;-0.77178955078125;0.04595947265625;1.2253141253170896;7.852242934430076;1.2703693224389236;1.10595703125;-0.1865234375;0.00390625;22.0;38.375;133.4375;
1441975357999500;-0.62896728515625;0.02081298828125;-0.774169921875;0.068603515625;1.385061840224693;7.516287962269413;1.6787847226661043;1.01318359375;-0.0361328125;-0.021484375;63.0625;39.6875;123.6875;
1441975358021501;-0.62518310546875;0.02838134765625;-0.7750244140625;0.0885009765625;1.5443891926129545;7.225143635081133;2.0207118229552634;0.9130859375;0.07421875;-0.0537109375;61.625;35.125;121.125;
1441975358036502;-0.623291015625;0.03826904296875;-0.77398681640625;0.105224609375;1.692158795653824;6.957291518466466;2.317051854869222;0.8505859375;0.18994140625;-0.00537109375;39.0;23.4375;121.0625;
1441975358065504;-0.62420654296875;0.0511474609375;-0.77069091796875;0.1175537109375;1.8179470663843165;6.6846800338053995;2.587879598027181;0.82177734375;0.2666015625;0.02685546875;15.6875;9.375;117.8125;
1441975358080505;-0.62799072265625;0.06732177734375;-0.76513671875;0.1256103515625;1.926985590200393;6.390150945825992;2.849435356876555;0.7646484375;0.3134765625;0.05078125;-15.8125;-8.5625;110.625;
1441975358103506;-0.634765625;0.08270263671875;-0.7576904296875;0.127197265625;1.9807917237523478;6.109247925151106;3.073773096360993;0.685546875;0.287109375;0.07470703125;-48.1875;-26.75;103.5;
1441975358119507;-0.644287109375;0.09979248046875;-0.74786376953125;0.12542724609375;2.0189898165097397;5.787610834578387;3.3178804546057012;0.6416015625;0.25927734375;0.0791015625;-74.625;-42.875;94.6875;
1441975358140508;-0.65570068359375;0.12139892578125;-0.73504638671875;0.122802734375;2.0921038464814075;5.402889294040377;3.6028940926060007;0.6162109375;0.25390625;0.04052734375;-96.125;-59.75;87.0625;
1441975358156509;-0.66937255859375;0.14495849609375;-0.7193603515625;0.11639404296875;2.168906622912989;4.9824806196939235;3.8996859328770936;0.583984375;0.23486328125;0.0048828125;-118.5625;-78.1875;78.625;
1441975358179510;-0.68499755859375;0.16998291015625;-0.70068359375;0.10491943359375;2.2453647407233484;4.528873915636816;4.202296085249231;0.5546875;0.20556640625;-0.033203125;-144.125;-94.0625;69.5;
1441975358202512;-0.7020263671875;0.1949462890625;-0.67926025390625;0.08868408203125;2.3213285162572035;4.0505897494113015;4.509500994399075;0.56640625;0.18701171875;-0.06494140625;-173.0625;-108.75;54.875;
1441975358216513;-0.71942138671875;0.218505859375;-0.65582275390625;0.06842041015625;2.398711723600409;3.56369586168248;4.81347907538288;0.60009765625;0.14794921875;-0.09228515625;-194.375;-120.625;35.6875;
1441975358239514;-0.73663330078125;0.23919677734375;-0.63104248046875;0.044921875;2.4751230838666665;3.0764057192287284;5.115130788631209;0.63671875;0.1005859375;-0.12353515625;-207.5625;-126.875;13.875;
1441975358260515;-0.75311279296875;0.25567626953125;-0.60589599609375;0.019287109375;2.548134748902551;2.5983870129168567;5.414869400355596;0.6728515625;0.072265625;-0.14599609375;-211.5625;-129.0;-9.5;
1441975358276516;-0.76873779296875;0.26751708984375;-0.5809326171875;-0.00738525390625;2.622484133798685;2.1329788835468992;5.715762389193422;0.7197265625;0.03173828125;-0.1474609375;-205.625;-127.4375;-34.25;
1441975358299517;-0.7833251953125;0.27447509765625;-0.5567626953125;-0.034423828125;2.699372729545021;1.6837755428559742;6.018192261029948;0.76416015625;-0.01416015625;-0.1748046875;-194.1875;-123.1875;-58.0;
1441975358321519;-0.79644775390625;0.27630615234375;-0.5345458984375;-0.06072998046875;2.7755121084487047;1.2624293559834627;6.316587736810236;0.8251953125;-0.02294921875;-0.20361328125;-178.25;-116.0625;-79.5625;
1441975358336519;-0.8082275390625;0.27252197265625;-0.51507568359375;-0.085205078125;2.8480197392578;0.8725225533726861;6.614763881254434;0.9091796875;-0.060546875;-0.25537109375;-155.9375;-103.4375;-98.625;
1441975358359521;-0.81890869140625;0.26251220703125;-0.49932861328125;-0.1060791015625;2.914256678731989;0.5230035866625228;6.914848190043751;1.0009765625;-0.0859375;-0.2890625;-127.0625;-88.5;-116.5;
1441975358380522;-0.82867431640625;0.246337890625;-0.48748779296875;-0.122802734375;2.973310650592956;0.21184915044238312;7.22144294935418;1.08154296875;-0.14111328125;-0.36376953125;-87.25;-70.25;-132.6875;
1441975358396523;-0.83758544921875;0.22515869140625;-0.47906494140625;-0.13543701171875;3.02965803915569;17.936689141899098;7.531687823743555;1.1142578125;-0.1669921875;-0.392578125;-45.25;-52.375;-147.5;
1441975358419524;-0.84576416015625;0.20196533203125;-0.472412109375;-0.14422607421875;3.09867885452509;17.703799063876566;7.824678730004969;1.08154296875;-0.11669921875;-0.404296875;-7.75;-35.6875;-156.1875;
1441975358440525;-0.853271484375;0.1790771484375;-0.4664306640625;-0.14947509765625;3.184439819208694;17.51978886419927;8.0821996793724;1.07763671875;0.01318359375;-0.4375;18.8125;-28.0;-152.1875;
1441975358463527;-0.85986328125;0.1566162109375;-0.46136474609375;-0.15264892578125;3.273384249965291;17.36980660566826;8.312767202464702;1.16455078125;0.0546875;-0.525390625;35.625;-27.0625;-139.8125;
1441975358479528;-0.86553955078125;0.1343994140625;-0.456787109375;-0.15533447265625;3.3645239790810333;17.235466076838446;8.528661468996551;1.23876953125;-4.8828125E-4;-0.5673828125;43.5;-23.0;-132.0;
1441975358508529;-0.87054443359375;0.112548828125;-0.452880859375;-0.15643310546875;3.45484742754199;17.125659906762984;8.725470856268052;1.1494140625;-0.01220703125;-0.52490234375;44.9375;-18.6875;-128.75;
1441975358516530;-0.87469482421875;0.09283447265625;-0.4495849609375;-0.155517578125;3.5377380250853316;17.04951811323448;8.88830908866747;1.0185546875;0.0283203125;-0.4833984375;51.8125;-14.8125;-121.25;
1441975358539531;-0.87744140625;0.0771484375;-0.44818115234375;-0.15301513671875;3.590352331589318;17.006363156429593;9.008648252238624;1.0078125;0.07421875;-0.5234375;56.3125;-12.25;-104.125;
1441975358560532;-0.87890625;0.0653076171875;-0.44775390625;-0.15130615234375;3.622187265124468;16.972321190312744;9.100350513530488;1.03759765625;0.0986328125;-0.5908203125;50.125;-8.0625;-83.75;
1441975358576533;-0.8790283203125;0.057373046875;-0.4486083984375;-0.1512451171875;3.629814045828339;16.93833145943869;9.16865359747292;1.0146484375;0.1181640625;-0.61279296875;35.6875;-0.875;-64.5;
1441975358605535;-0.8778076171875;0.053955078125;-0.45086669921875;-0.15283203125;3.6102595472984547;16.90571566832666;9.209663158453612;0.9345703125;0.1123046875;-0.5654296875;16.75;6.6875;-46.875;
1441975358621536;-0.87530517578125;0.05499267578125;-0.4547119140625;-0.15533447265625;3.560530428213742;16.879769410908175;9.221604279245563;0.86083984375;0.1005859375;-0.53466796875;-3.75;14.9375;-26.4375;
1441975358636537;-0.87164306640625;0.0599365234375;-0.460205078125;-0.15814208984375;3.4804781391118658;16.863808260073306;9.206275048785674;0.8115234375;0.09619140625;-0.521484375;-20.875;25.0;-4.25;
1441975358668538;-0.866943359375;0.06756591796875;-0.46697998046875;-0.16094970703125;3.376430599290872;16.856846641293707;9.171050404781887;0.78466796875;0.0849609375;-0.51953125;-33.375;34.375;16.3125;
1441975358682539;-0.86163330078125;0.077392578125;-0.47467041015625;-0.16253662109375;3.253842849667059;16.87060156520301;9.111515816443124;0.76025390625;0.09716796875;-0.49169921875;-40.25;41.5;32.8125;
1441975358697540;-0.855712890625;0.08856201171875;-0.48309326171875;-0.1630859375;3.11728069529498;16.90223538458016;9.03322863198218;0.74560546875;0.095703125;-0.47705078125;-39.875;46.1875;48.3125;
1441975358719541;-0.84912109375;0.10064697265625;-0.4923095703125;-0.16290283203125;2.9678737593435147;16.949373985608954;8.939097845551489;0.74462890625;0.091796875;-0.46630859375;-38.1875;50.1875;59.625;
1441975358742543;-0.84185791015625;0.11322021484375;-0.50238037109375;-0.16168212890625;2.806495967243105;17.015890285711613;8.828323640546065;0.7509765625;0.09912109375;-0.435546875;-36.125;54.25;68.25;
1441975358756543;-0.83392333984375;0.12628173828125;-0.51312255859375;-0.1593017578125;2.6362648886696776;17.107667901256963;8.695343710567288;0.76904296875;0.1181640625;-0.4052734375;-31.4375;58.0;77.0625;
1441975358779545;-0.8255615234375;0.13983154296875;-0.52398681640625;-0.15625;2.466125921209866;17.22547553642627;8.53709998928267;0.8134765625;0.1298828125;-0.3798828125;-26.25;60.875;85.5;
1441975358802546;-0.81695556640625;0.1536865234375;-0.53460693359375;-0.15252685546875;2.303203119150674;17.373487963534707;8.349955458359432;0.859375;0.14990234375;-0.3671875;-23.75;61.0;92.4375;
1441975358816547;-0.80816650390625;0.16754150390625;-0.54473876953125;-0.14862060546875;2.1526175235387077;17.54773948441771;8.13691367325472;0.8984375;0.14892578125;-0.34228515625;-21.25;58.9375;97.3125;
1441975358839548;-0.7994384765625;0.18145751953125;-0.5540771484375;-0.1451416015625;2.020134853275655;17.74266241992084;7.900740343491722;0.9345703125;0.1474609375;-0.30908203125;-20.125;55.125;99.375;
1441975358862550;-0.79083251953125;0.19549560546875;-0.56219482421875;-0.1427001953125;1.9101419334126144;17.948431256726934;7.6481876570898;0.9765625;0.1474609375;-0.29443359375;-22.75;51.0625;99.0625;
1441975358883551;-0.78253173828125;0.20953369140625;-0.56915283203125;-0.14117431640625;1.8231034599273843;0.16092349593871202;7.384553609401243;1.0087890625;0.13232421875;-0.2744140625;-29.0625;45.625;96.4375;
1441975358899552;-0.77471923828125;0.22283935546875;-0.574951171875;-0.14013671875;1.7587703711572003;0.3718221343884879;7.122899517510102;1.0185546875;0.087890625;-0.248046875;-34.875;39.125;90.75;
1441975358937554;-0.7677001953125;0.23480224609375;-0.5797119140625;-0.1395263671875;1.7140640255200101;0.5675367753852976;6.879864723287323;1.01708984375;0.041015625;-0.2294921875;-36.5625;33.3125;82.4375;
1441975358950555;-0.76165771484375;0.2449951171875;-0.5836181640625;-0.1390380859375;1.6847658011150728;0.7412940864991354;6.665471067542587;1.00341796875;-0.0078125;-0.2216796875;-35.3125;28.4375;71.6875;
1441975358959555;-0.75677490234375;0.2530517578125;-0.58660888671875;-0.138671875;1.6671708291308458;0.8825631626251242;6.491796228506585;0.9873046875;-0.037109375;-0.21630859375;-31.1875;23.5625;60.3125;
1441975358982556;-0.75323486328125;0.2587890625;-0.5887451171875;-0.13812255859375;1.65876564646967;0.989332226793779;6.363026884191632;0.9775390625;-0.05126953125;-0.21142578125;-24.4375;17.875;48.125;
1441975359003558;-0.7510986328125;0.26214599609375;-0.5902099609375;-0.1375732421875;1.6543783440010427;1.057772673500982;6.282785271379325;0.96484375;-0.05126953125;-0.22412109375;-16.0625;12.625;36.5625;
1441975359019558;-0.750244140625;0.26336669921875;-0.5908203125;-0.13714599609375;1.6532846396132408;1.0870664286388774;6.2500931567560425;0.9580078125;-0.03369140625;-0.2265625;-7.5;7.5;25.375;
1441975359042560;-0.7506103515625;0.2626953125;-0.5904541015625;-0.13775634765625;1.6515718665361474;1.0666010955827312;6.270797905947061;0.9443359375;-0.02392578125;-0.23876953125;-0.8125;2.5;13.6875;
1441975359063561;-0.75213623046875;0.26123046875;-0.5889892578125;-0.1387939453125;1.6584976039246893;1.0139253438421274;6.325221163404849;0.89306640625;0.01806640625;-0.2216796875;1.4375;-3.125;2.3125;
1441975359087562;-0.75445556640625;0.260009765625;-0.5860595703125;-0.14068603515625;1.6782551104023677;0.9339490605515881;6.401848311411613;0.83837890625;0.044921875;-0.24072265625;1.8125;-8.375;-4.4375;
1441975359102563;-0.75738525390625;0.2589111328125;-0.58221435546875;-0.14276123046875;1.7093704745824623;0.8427955996625247;6.4880943035247425;0.83154296875;0.03759765625;-0.26318359375;-4.0;-14.875;-9.6875;
1441975359124564;-0.760986328125;0.2578125;-0.57757568359375;-0.14447021484375;1.7538326896555962;0.7493770200140374;6.577894674391758;0.87646484375;0.02001953125;-0.28857421875;-6.75;-20.5625;-12.6875;
1441975359139565;-0.76519775390625;0.25634765625;-0.57232666015625;-0.1458740234375;1.8084414084896325;0.6533144984216822;6.672971897381468;0.92529296875;-0.021484375;-0.32373046875;-6.375;-25.9375;-15.875;
1441975359162567;-0.7698974609375;0.2542724609375;-0.56658935546875;-0.14727783203125;1.8697580920913048;0.5516703510161968;6.776028972752904;0.962890625;-0.04833984375;-0.32666015625;-5.0;-32.3125;-19.9375;
1441975359183568;-0.77484130859375;0.251953125;-0.560546875;-0.14837646484375;1.9377202915507994;0.455414764555896;6.875790067498219;0.978515625;-0.0341796875;-0.34033203125;-3.125;-35.625;-23.5;
1441975359207569;-0.77972412109375;0.2493896484375;-0.55474853515625;-0.14886474609375;2.0068161534439013;0.3729669653860567;6.965334433740662;0.9775390625;-0.03173828125;-0.3916015625;-1.3125;-35.625;-24.8125;
1441975359222570;-0.7845458984375;0.24627685546875;-0.54931640625;-0.14874267578125;2.0746540744013635;0.30120299397024236;7.049146433680555;0.99462890625;-0.0830078125;-0.44482421875;1.125;-33.25;-27.0625;
1441975359243571;-0.78924560546875;0.24212646484375;-0.5447998046875;-0.14739990234375;2.136512130966271;0.24524559346799096;7.12703290407398;0.98046875;-0.10498046875;-0.4658203125;5.625;-30.75;-29.5;
1441975359274573;-0.7935791015625;0.2379150390625;-0.5408935546875;-0.14532470703125;2.193915647427984;0.20504312501847838;7.1926328190738715;1.009765625;-0.0751953125;-0.50390625;15.8125;-26.3125;-27.5625;
1441975359282574;-0.79718017578125;0.23492431640625;-0.53717041015625;-0.14447021484375;2.244878024861999;0.1655075522960289;7.247293760643308;1.08935546875;-0.02001953125;-0.57373046875;21.375;-21.5;-21.1875;
1441975359303575;-0.7998046875;0.23419189453125;-0.53314208984375;-0.14599609375;2.2909693546877667;0.11908379579581513;7.288975753516315;1.13818359375;0.02685546875;-0.61669921875;12.9375;-17.0625;-15.1875;
1441975359319576;-0.80157470703125;0.2357177734375;-0.5289306640625;-0.149169921875;2.3338090208806253;0.07387024231477882;7.312723431476879;1.02685546875;0.02294921875;-0.57958984375;-6.6875;-14.25;-12.3125;
1441975359342577;-0.80267333984375;0.23876953125;-0.52484130859375;-0.15283203125;2.3732630754057094;0.037607384536845354;7.318847278012134;0.86181640625;-0.0263671875;-0.49072265625;-23.9375;-14.0625;-9.875;
1441975359370579;-0.80322265625;0.24285888671875;-0.5211181640625;-0.1558837890625;2.4097310437829647;0.018927702191658357;7.305432320839196;0.76123046875;-0.05810546875;-0.41259765625;-32.25;-14.9375;-5.375;
1441975359379579;-0.80352783203125;0.24725341796875;-0.51812744140625;-0.1575927734375;2.4423383192579;0.020487600450398935;7.276437881721077;0.71142578125;-0.0791015625;-0.37548828125;-32.875;-14.625;0.6875;
1441975359409581;-0.803466796875;0.25146484375;-0.5159912109375;-0.15826416015625;2.4676505474911536;0.03559233385524654;7.239303099636738;0.71240234375;-0.07470703125;-0.36181640625;-27.0625;-13.625;7.375;
1441975359423582;-0.80322265625;0.25555419921875;-0.51422119140625;-0.1588134765625;2.4888227360079886;0.05239546551527052;7.201643363606537;0.76025390625;-0.04052734375;-0.365234375;-19.8125;-11.75;12.9375;
1441975359439583;-0.802734375;0.25982666015625;-0.51251220703125;-0.15985107421875;2.50705566464255;0.0655293131131787;7.164751368457191;0.8125;-0.00439453125;-0.3876953125;-17.3125;-9.5625;16.0625;
1441975359461584;-0.8021240234375;0.26434326171875;-0.51068115234375;-0.1612548828125;2.52518518224092;0.07586988452411293;7.127913194972728;0.83203125;-0.0029296875;-0.3994140625;-20.0625;-8.3125;16.375;
1441975359483585;-0.80126953125;0.26904296875;-0.50897216796875;-0.1630859375;2.539913034331871;0.08362257383220766;7.091077726130969;0.861328125;-0.01416015625;-0.41259765625;-23.125;-8.125;15.625;
1441975359499586;-0.79998779296875;0.27362060546875;-0.5078125;-0.165283203125;2.5458007741607225;0.08962920493209527;7.055171787840962;0.89404296875;-0.0341796875;-0.43798828125;-26.1875;-6.1875;14.5;
1441975359521587;-0.79840087890625;0.27783203125;-0.50738525390625;-0.16729736328125;2.5431667827895095;0.09871208089293274;7.018915070286172;0.9091796875;-0.05224609375;-0.4482421875;-27.5625;-1.4375;13.3125;
1441975359543588;-0.79681396484375;0.281494140625;-0.50738525390625;-0.168701171875;2.537615584690422;0.11235975653155479;6.983228808748409;0.9052734375;-0.06982421875;-0.4560546875;-25.3125;3.4375;12.0;
1441975359558589;-0.79534912109375;0.28436279296875;-0.5078125;-0.16943359375;2.5295482341409206;0.1293609917758854;6.950688036434563;0.87451171875;-0.08154296875;-0.466796875;-20.5;6.5;10.625;
1441975359581591;-0.79400634765625;0.2862548828125;-0.50885009765625;-0.169677734375;2.5162460304656458;0.14741179557673476;6.923846621077962;0.8544921875;-0.0947265625;-0.4619140625;-14.75;8.25;9.0;
1441975359604592;-0.79266357421875;0.28704833984375;-0.510498046875;-0.1695556640625;2.49624458711796;0.16485677843639251;6.904190442581501;0.84375;-0.08642578125;-0.4482421875;-8.3125;10.4375;7.0;
1441975359619593;-0.7916259765625;0.286865234375;-0.512451171875;-0.1690673828125;2.4742335423908384;0.18033136480884834;6.892599318192551;0.84326171875;-0.076171875;-0.427734375;-1.8125;12.75;4.3125;
1441975359641594;-0.79071044921875;0.2862548828125;-0.5142822265625;-0.1685791015625;2.4529702979722394;0.19221674283027693;6.886266261621011;0.8408203125;-0.05322265625;-0.4248046875;4.3125;13.5625;2.4375;
1441975359664595;-0.78985595703125;0.2857666015625;-0.51593017578125;-0.1685791015625;2.432216814016141;0.1988180725023783;6.882657908907306;0.85107421875;-0.02587890625;-0.41455078125;6.0625;12.75;1.8125;
1441975359679596;-0.7890625;0.2855224609375;-0.51702880859375;-0.169189453125;2.415078637452056;0.1979083761415673;6.882550170631239;0.86328125;-0.01171875;-0.41064453125;3.6875;11.625;1.75;
1441975359701597;-0.78851318359375;0.28546142578125;-0.51739501953125;-0.1705322265625;2.4036246570352966;0.18622176652593198;6.888973402644753;0.884765625;-0.02880859375;-0.4052734375;-1.125;9.125;-0.5625;
1441975359724599;-0.78839111328125;0.2855224609375;-0.51702880859375;-0.17236328125;2.3996945766821534;0.16538175921075962;6.901748360758109;0.86865234375;-0.05322265625;-0.39453125;-6.375;5.9375;-4.6875;
1441975359739600;-0.7886962890625;0.28570556640625;-0.5157470703125;-0.1744384765625;2.405895391088053;0.13738943578992122;6.919574730722251;0.82568359375;-0.07861328125;-0.36328125;-10.875;1.4375;-9.0625;
1441975359761601;-0.78955078125;0.28564453125;-0.513671875;-0.1767578125;2.421091347201665;0.10016210835724063;6.946295408220027;0.78466796875;-0.10546875;-0.35595703125;-14.3125;-3.25;-12.875;
1441975359784602;-0.79095458984375;0.28497314453125;-0.51116943359375;-0.17889404296875;2.4428524375323297;0.05780447779310839;6.981407996093647;0.7607421875;-0.1123046875;-0.34423828125;-15.9375;-7.875;-16.9375;
1441975359806604;-0.79278564453125;0.283203125;-0.5086669921875;-0.1805419921875;2.4667933449180093;0.01269773057438569;7.026057270904914;0.76611328125;-0.11328125;-0.34912109375;-13.3125;-11.0625;-21.125;
1441975359821604;-0.794921875;0.28021240234375;-0.50665283203125;-0.18157958984375;2.4881393326165875;17.967711847146987;7.078845899047245;0.802734375;-0.10302734375;-0.37109375;-7.5;-12.375;-24.875;
1441975359844606;-0.7969970703125;0.27618408203125;-0.50537109375;-0.1820068359375;2.5030088655607354;17.925734765536124;7.136008356735921;0.87744140625;-0.0673828125;-0.39599609375;0.75;-11.0625;-26.5625;
1441975359867607;-0.7987060546875;0.271240234375;-0.50543212890625;-0.18194580078125;2.503853436133312;17.88859470635749;7.195179134059857;0.9794921875;-0.03369140625;-0.45849609375;8.75;-7.0625;-27.0625;
1441975359889608;-0.80010986328125;0.2655029296875;-0.50628662109375;-0.18194580078125;2.494741806008739;17.848399486776202;7.26093616402162;1.1259765625;-0.00830078125;-0.5146484375;15.75;-0.375;-27.125;
1441975359904609;-0.80126953125;0.2593994140625;-0.50732421875;-0.18267822265625;2.4808330563042267;17.79809037202897;7.3352765454013795;1.25439453125;0.0;-0.56201171875;18.1875;4.5;-29.4375;
1441975359927610;-0.80242919921875;0.253173828125;-0.50836181640625;-0.1834716796875;2.4677310646879507;17.745543150086363;7.412082557857747;1.17041015625;-0.0166015625;-0.525390625;15.6875;8.0;-34.375;
1441975359941611;-0.80352783203125;0.2464599609375;-0.509765625;-0.1837158203125;2.4526686738984353;17.69600381575486;7.490349669143794;0.9853515625;-0.07373046875;-0.43798828125;13.75;8.25;-38.875;
1441975359964613;-0.8046875;0.23858642578125;-0.511962890625;-0.1829833984375;2.4324996419704368;17.650049389599122;7.574529411249457;0.8779296875;-0.123046875;-0.35693359375;17.0;8.0625;-42.1875;
1441975359986614;-0.8060302734375;0.22906494140625;-0.51513671875;-0.18048095703125;2.4072679600957168;17.612950377538088;7.664768790333025;0.77978515625;-0.1220703125;-0.30224609375;26.0625;10.75;-43.8125;
1441975360008615;-0.80767822265625;0.21734619140625;-0.51922607421875;-0.17572021484375;2.378469101889245;17.585539192956134;7.764383608755209;0.7001953125;-0.083984375;-0.267578125;41.625;14.6875;-43.3125;
1441975360024616;-0.8094482421875;0.20367431640625;-0.5242919921875;-0.16888427734375;2.3439113358633614;17.567453260195;7.871862785033957;0.67626953125;-0.01611328125;-0.267578125;61.9375;18.375;-41.6875;
1441975360045617;-0.81072998046875;0.18927001953125;-0.530029296875;-0.1612548828125;2.3011634001449828;17.552407442045542;7.982458296456709;0.69482421875;0.08544921875;-0.2998046875;81.625;23.4375;-37.625;
1441975360062618;-0.810791015625;0.17626953125;-0.53631591796875;-0.1549072265625;2.2449954061913795;17.531924241957704;8.086890258307093;0.751953125;0.22265625;-0.3564453125;91.1875;30.1875;-28.75;
1441975360084619;-0.8092041015625;0.166748046875;-0.542724609375;-0.1513671875;2.175801893870875;17.503113911845443;8.172776425706932;0.87451171875;0.38037109375;-0.3984375;84.1875;36.4375;-14.25;
1441975360106621;-0.80596923828125;0.162109375;-0.54901123046875;-0.151123046875;2.0955313109992257;17.471586488992276;8.226765516831358;1.05615234375;0.5146484375;-0.421875;62.375;39.5;2.75;
1441975360121622;-0.8013916015625;0.1624755859375;-0.554931640625;-0.15338134765625;2.0085536764125087;17.45019912970972;8.238876700199091;1.1904296875;0.5380859375;-0.4130859375;30.8125;40.625;17.9375;
1441975360144623;-0.79608154296875;0.16632080078125;-0.560546875;-0.1563720703125;1.9190911433114914;17.451936147739566;8.210068723883609;1.2412109375;0.43115234375;-0.34619140625;-1.5;36.8125;26.875;
1441975360165624;-0.7904052734375;0.17138671875;-0.5665283203125;-0.1583251953125;1.8247040576716937;17.484087816324458;8.150188870412478;1.18359375;0.26025390625;-0.24365234375;-20.3125;31.5;30.25;
1441975360181625;-0.784423828125;0.176025390625;-0.57318115234375;-0.15869140625;1.7238933950494848;17.54204999231706;8.0729478155156;1.15673828125;0.1181640625;-0.17822265625;-22.4375;29.5;31.0625;
1441975360204626;-0.77899169921875;0.178955078125;-0.58001708984375;-0.15765380859375;1.6268292261645656;17.609954485802024;7.998900588751892;1.18701171875;0.01611328125;-0.1796875;-16.125;33.25;28.75;
1441975360225627;-0.77435302734375;0.17919921875;-0.58673095703125;-0.155029296875;1.537426797178898;17.677197816094893;7.943142724068146;1.1884765625;-0.02734375;-0.20947265625;-4.0;35.5625;23.125;
1441975360250629;-0.7708740234375;0.17681884765625;-0.59295654296875;-0.1514892578125;1.4600798136778896;17.728378958925152;7.91812068196811;1.1513671875;-0.05126953125;-0.22705078125;12.3125;36.5625;14.8125;
1441975360264630;-0.7685546875;0.17218017578125;-0.59820556640625;-0.1480712890625;1.397461401597255;17.743402507621862;7.937866130436313;1.09716796875;-0.05322265625;-0.23681640625;25.375;34.625;4.9375;
1441975360285631;-0.767333984375;0.16650390625;-0.60198974609375;-0.14532470703125;1.3538283250708625;17.723523895392013;7.993588201825981;1.04052734375;-0.02978515625;-0.234375;33.4375;29.875;-5.5;
1441975360301632;-0.76708984375;0.1605224609375;-0.60430908203125;-0.143798828125;1.328865631599165;17.667714946516096;8.081132393193348;0.99755859375;-9.765625E-4;-0.23876953125;33.5625;22.8125;-12.9375;
1441975360332634;-0.76788330078125;0.1541748046875;-0.60504150390625;-0.14324951171875;1.3253948505571624;17.58074426954362;8.19691377013494;0.98388671875;0.0166015625;-0.21826171875;29.25;13.8125;-19.625;
1441975360345634;-0.76983642578125;0.14776611328125;-0.60430908203125;-0.1429443359375;1.3448257841398956;17.486166731698738;8.319312492837609;0.97705078125;0.04296875;-0.20947265625;25.8125;3.875;-25.375;
1441975360361635;-0.77264404296875;0.14117431640625;-0.602294921875;-0.1429443359375;1.3836774030424293;17.386468210683244;8.445999483103945;0.9482421875;0.04345703125;-0.201171875;24.6875;-6.5625;-29.3125;
1441975360384637;-0.77618408203125;0.13446044921875;-0.59918212890625;-0.1434326171875;1.4397502409787644;17.283767038976652;8.573949004515248;0.9208984375;0.0419921875;-0.19921875;23.3125;-14.9375;-33.5;
1441975360413638;-0.7801513671875;0.12786865234375;-0.59527587890625;-0.144287109375;1.5081442728967769;17.18662212428789;8.69412414701546;0.8896484375;0.07275390625;-0.2109375;21.6875;-20.8125;-35.625;
1441975360421639;-0.78448486328125;0.12164306640625;-0.590576171875;-0.1453857421875;1.5879201365838442;17.101479168978496;8.799548648116406;0.8525390625;0.09326171875;-0.2177734375;19.75;-25.0625;-36.625;
1441975360452640;-0.78900146484375;0.115966796875;-0.5853271484375;-0.1466064453125;1.6748067955735453;17.03142775129848;8.886939000781801;0.8291015625;0.10888671875;-0.2490234375;16.75;-28.25;-36.25;
1441975360465641;-0.79351806640625;0.11083984375;-0.579833984375;-0.14801025390625;1.7643503905174902;16.972910212668992;8.9596981025059;0.802734375;0.11279296875;-0.2783203125;14.125;-29.75;-34.875;
1441975360481642;-0.7978515625;0.10638427734375;-0.57440185546875;-0.14898681640625;1.851216744128466;16.933185047756144;9.012621625903371;0.7705078125;0.1181640625;-0.30859375;11.25;-29.8125;-33.25;
1441975360512644;-0.80181884765625;0.102294921875;-0.5697021484375;-0.14892578125;1.927345683994818;16.91305253240428;9.048970336213968;0.7490234375;0.11083984375;-0.31982421875;10.125;-28.8125;-29.625;
1441975360525645;-0.80523681640625;0.09857177734375;-0.56585693359375;-0.147705078125;1.9899488329795705;16.910903573961935;9.070804071995267;0.77880859375;0.12548828125;-0.341796875;14.0625;-25.4375;-23.3125;
1441975360549646;-0.80792236328125;0.095458984375;-0.5631103515625;-0.14556884765625;2.035351562749028;16.92306768242569;9.07985977479608;0.8486328125;0.1630859375;-0.37646484375;18.875;-20.25;-15.125;
1441975360563647;-0.80975341796875;0.093505859375;-0.56146240234375;-0.14288330078125;2.0622739582671947;16.948554056768934;9.073316265307286;0.96142578125;0.2353515625;-0.4130859375;22.1875;-14.625;-4.5;
1441975360587648;-0.8106689453125;0.09356689453125;-0.56060791015625;-0.14080810546875;2.0732918253700805;16.98013588188818;9.0499519917003;1.13134765625;0.31005859375;-0.45458984375;22.3125;-9.75;7.75;
1441975360601649;-0.81085205078125;0.095947265625;-0.5601806640625;-0.1400146484375;2.073499339451872;17.01320958506003;9.01026664521464;1.22705078125;0.3359375;-0.439453125;14.0625;-7.75;17.375;
1441975360648652;-0.8106689453125;0.100341796875;-0.5596923828125;-0.13995361328125;2.0699386774136337;17.054257277326123;8.951162175597284;1.20703125;0.29638671875;-0.3486328125;-0.125;-10.625;22.4375;
1441975360653652;-0.8101806640625;0.10577392578125;-0.55938720703125;-0.13983154296875;2.061851687102515;17.104987501121045;8.878330407968013;1.1474609375;0.18994140625;-0.2626953125;-11.875;-14.9375;23.9375;
1441975360661652;-0.80963134765625;0.1107177734375;-0.55950927734375;-0.13873291015625;2.0502349718912414;17.16417123238014;8.803253903480861;1.07470703125;0.0673828125;-0.23095703125;-17.5625;-14.5625;21.8125;
1441975360690654;-0.80914306640625;0.1134033203125;-0.5604248046875;-0.135986328125;2.034139589178042;17.224589226955487;8.743398244742137;0.97998046875;-0.0400390625;-0.22119140625;-13.75;-10.6875;17.125;
1441975360715655;-0.80908203125;0.1134033203125;-0.5616455078125;-0.131103515625;2.020406763735684;17.289722913189877;8.698887218323026;0.88818359375;-0.087890625;-0.2216796875;0.9375;-4.5625;11.0;
1441975360722656;-0.80950927734375;0.1112060546875;-0.56280517578125;-0.125244140625;2.012460231113866;17.348357272859882;8.674033517819556;0.826171875;-0.0791015625;-0.26123046875;19.75;0.375;6.25;
1441975360744657;-0.81011962890625;0.10760498046875;-0.56396484375;-0.11907958984375;2.0068546319710108;17.398163901410108;8.665057392112478;0.80908203125;-0.03515625;-0.29736328125;33.125;2.4375;2.6875;
1441975360773659;-0.8106689453125;0.10321044921875;-0.56524658203125;-0.1129150390625;2.0002262247160134;17.440431329469178;8.666874633130927;0.82666015625;0.0205078125;-0.31201171875;40.1875;3.125;0.6875;
1441975360788660;-0.81097412109375;0.0980224609375;-0.56707763671875;-0.1060791015625;1.9871625572766536;17.484163642248664;8.673360184084611;0.86865234375;0.07373046875;-0.3125;44.0625;3.625;1.0;
1441975360803661;-0.8109130859375;0.09228515625;-0.56951904296875;-0.098388671875;1.9661102982866603;17.53436652897357;8.679204896605853;0.9345703125;0.13134765625;-0.33349609375;51.375;6.625;3.625;
1441975360827662;-0.81048583984375;0.08624267578125;-0.5723876953125;-0.0904541015625;1.938679680524704;17.585257710554565;8.686590614413122;1.00341796875;0.1796875;-0.34521484375;58.75;10.125;7.9375;
1441975360864664;-0.80963134765625;0.080810546875;-0.575439453125;-0.0833740234375;1.9064074940810174;17.63063189385894;8.69334564515177;1.04736328125;0.22509765625;-0.3515625;61.6875;12.875;11.1875;
1441975360866664;-0.8084716796875;0.07696533203125;-0.57830810546875;-0.078125;1.8732483074359092;17.66650847722774;8.695376432650463;1.06884765625;0.24365234375;-0.3388671875;56.625;14.4375;13.125;
1441975360894666;-0.80731201171875;0.07525634765625;-0.58056640625;-0.07501220703125;1.845156833756373;17.694111352102528;8.68794222614056;1.07666015625;0.2197265625;-0.3271484375;41.875;14.0;13.1875;
1441975360899666;-0.806396484375;0.075439453125;-0.58197021484375;-0.07366943359375;1.8261931194968395;17.71609373676268;8.670906269923766;1.0458984375;0.1474609375;-0.30908203125;23.125;11.125;11.25;
1441975360932668;-0.8060302734375;0.076904296875;-0.5823974609375;-0.07305908203125;1.8198586387327815;17.741023743315147;8.642517235419708;0.9814453125;0.05517578125;-0.26611328125;6.1875;5.0625;7.8125;
1441975360937668;-0.80615234375;0.0782470703125;-0.58209228515625;-0.07232666015625;1.8237871978612963;17.766164829824174;8.614805589568016;0.91552734375;-0.05810546875;-0.2568359375;-3.5;-0.75;3.375;
1441975360960670;-0.806884765625;0.0782470703125;-0.58123779296875;-0.071044921875;1.837108992185003;17.78447957973997;8.60166628494695;0.87451171875;-0.15478515625;-0.23388671875;-5.1875;-6.125;-3.4375;
1441975360983671;-0.8082275390625;0.0765380859375;-0.57989501953125;-0.06884765625;1.8592391426089372;17.79749680291189;8.604592760339164;0.85595703125;-0.17236328125;-0.23681640625;1.6875;-10.25;-9.3125;
1441975361006672;-0.81011962890625;0.0736083984375;-0.57794189453125;-0.06610107421875;1.8907590517170438;17.805223505817015;8.62002565150095;0.8818359375;-0.12158203125;-0.26318359375;12.75;-13.1875;-11.25;
1441975361020673;-0.8126220703125;0.0703125;-0.5750732421875;-0.06365966796875;1.934696788973373;17.804490178593486;8.644068597746276;0.89599609375;-0.0576171875;-0.3134765625;20.375;-14.75;-11.3125;
1441975361043674;-0.81573486328125;0.06744384765625;-0.57110595703125;-0.062744140625;1.9925111787878877;17.78688758538162;8.676826897512148;0.91845703125;-0.00537109375;-0.35595703125;21.4375;-19.5;-11.0625;
1441975361057675;-0.81927490234375;0.06573486328125;-0.566162109375;-0.0634765625;2.0620221654424378;17.75914820015268;8.708029618223469;0.92041015625;0.04150390625;-0.3642578125;13.6875;-25.9375;-12.0;
1441975361079676;-0.8228759765625;0.06536865234375;-0.5606689453125;-0.0654296875;2.136957528900621;17.729302695903325;8.730636396519667;0.91650390625;0.0341796875;-0.365234375;1.4375;-32.4375;-12.9375;
1441975361103678;-0.826416015625;0.0657958984375;-0.55517578125;-0.067626953125;2.211475470729789;17.704858380705318;8.743536312197106;0.8984375;-0.01318359375;-0.349609375;-10.125;-36.5;-14.5625;
1441975361117678;-0.82977294921875;0.06640625;-0.5499267578125;-0.06903076171875;2.2825819132712386;17.692812239299762;8.746544982835992;0.87548828125;-0.0625;-0.33251953125;-14.9375;-37.9375;-14.9375;
1441975361139680;-0.83294677734375;0.06689453125;-0.54498291015625;-0.06951904296875;2.349722066581565;17.69120101003212;8.743419117402539;0.869140625;-0.08349609375;-0.34326171875;-12.3125;-36.75;-12.9375;
1441975361166681;-0.8358154296875;0.0675048828125;-0.54046630859375;-0.06939697265625;2.410887606665026;17.6976149190113;8.734319710646798;0.875;-0.06103515625;-0.3740234375;-7.3125;-33.6875;-9.0;
1441975361186682;-0.83831787109375;0.0687255859375;-0.53643798828125;-0.06927490234375;2.4649773470530256;17.708174480806353;8.71860030867689;0.89111328125;-0.0244140625;-0.4248046875;-4.0625;-29.125;-3.625;
1441975361199683;-0.8404541015625;0.07061767578125;-0.53277587890625;-0.06988525390625;2.5130679264879334;17.714723229394224;8.701084109071815;0.9140625;4.8828125E-4;-0.474609375;-5.125;-24.0625;0.8125;
1441975361223685;-0.842041015625;0.0731201171875;-0.52972412109375;-0.0714111328125;2.5516175987928165;17.714946870212266;8.68359518339013;0.912109375;0.005859375;-0.50390625;-10.5625;-19.625;2.5625;
1441975361237685;-0.84295654296875;0.07635498046875;-0.527587890625;-0.0731201171875;2.577056741746802;17.718173042698663;8.659404515113721;0.86181640625;0.00830078125;-0.48681640625;-17.0;-15.0625;3.375;
1441975361268687;-0.84295654296875;0.080322265625;-0.52685546875;-0.07440185546875;2.58341733096516;17.73142947258885;8.624129976892652;0.8134765625;-0.0048828125;-0.462890625;-20.125;-9.0;6.5;
1441975361283688;-0.842041015625;0.0848388671875;-0.5274658203125;-0.0751953125;2.5715473820363917;17.75454042909002;8.578950617149456;0.80517578125;-0.00927734375;-0.4541015625;-20.0;-0.625;12.1875;
1441975361297689;-0.84039306640625;0.08966064453125;-0.529296875;-0.0751953125;2.5442017929784404;17.78995544274551;8.523733623025377;0.81396484375;0.013671875;-0.4521484375;-18.5;8.0625;18.5625;
1441975361320690;-0.8380126953125;0.09466552734375;-0.5322265625;-0.07489013671875;2.5026366561157403;17.832309337754076;8.462289028201228;0.84423828125;0.0380859375;-0.4921875;-14.1875;17.5;25.375;
1441975361343691;-0.83514404296875;0.09979248046875;-0.53582763671875;-0.07452392578125;2.452513870892162;17.87896760499053;8.396415780315222;0.8681640625;0.04150390625;-0.50341796875;-12.875;25.125;28.75;
1441975361357692;-0.8316650390625;0.10516357421875;-0.540283203125;-0.07391357421875;2.391777203326657;17.93423988491043;8.322096263896409;0.8466796875;0.02734375;-0.49462890625;-13.125;30.8125;29.6875;
1441975361379693;-0.82733154296875;0.1107177734375;-0.54595947265625;-0.072509765625;2.316509330726257;0.0066674073231444;8.233367861824913;0.84130859375;0.00634765625;-0.46826171875;-12.8125;35.375;31.125;
1441975361403695;-0.822265625;0.1160888671875;-0.55279541015625;-0.0704345703125;2.2284546017575337;0.0945502878967105;8.13296238058918;0.9140625;0.0078125;-0.4775390625;-8.5;42.8125;36.3125;
1441975361425696;-0.8170166015625;0.12115478515625;-0.55963134765625;-0.0687255859375;2.1406995708706757;0.18301811292628223;8.03165915288896;1.05419921875;0.017578125;-0.51953125;-4.125;50.4375;40.1875;
1441975361441697;-0.812255859375;0.12567138671875;-0.565673828125;-0.0670166015625;2.064890024936704;0.270990214033591;7.932954806213223;1.08837890625;0.00732421875;-0.4990234375;-4.3125;50.4375;37.625;
1441975361470699;-0.8082275390625;0.12982177734375;-0.57073974609375;-0.06512451171875;2.0045940333081798;0.35961344872816114;7.835721476018834;0.998046875;-0.04296875;-0.39501953125;-4.375;41.875;31.8125;
1441975361480699;-0.80474853515625;0.1334228515625;-0.57501220703125;-0.063232421875;1.9558882647541187;0.44388131510692785;7.744953678402604;0.8935546875;-0.1044921875;-0.30078125;-4.0625;32.0;26.125;
1441975361499700;-0.8017578125;0.1361083984375;-0.57879638671875;-0.06121826171875;1.9146179860399797;0.5216120144151817;7.664952196926029;0.83154296875;-0.14990234375;-0.2548828125;-3.75;26.0;20.3125;
1441975361523702;-0.79949951171875;0.13702392578125;-0.58197021484375;-0.058837890625;1.8813252634991122;0.5850173366669651;7.60803352069492;0.8486328125;-0.1591796875;-0.2587890625;-0.375;22.625;15.625;
1441975361545703;-0.79803466796875;0.13616943359375;-0.58428955078125;-0.0567626953125;1.8556820471817157;0.6217320260587051;7.583718809432707;0.88427734375;-0.1220703125;-0.29052734375;8.0;19.75;10.75;
1441975361559704;-0.79779052734375;0.13470458984375;-0.58514404296875;-0.0557861328125;1.8457355457277758;0.6259184112125339;7.589802788258241;0.9013671875;-0.04443359375;-0.31005859375;14.25;15.0;6.375;
1441975361582705;-0.79833984375;0.1336669921875;-0.58453369140625;-0.05694580078125;1.8484800676558082;0.5945842112632075;7.620606461173691;0.93603515625;0.017578125;-0.35546875;11.875;7.875;2.8125;
1441975361597706;-0.79937744140625;0.133544921875;-0.582763671875;-0.0601806640625;1.8612281652417841;0.5365889019470682;7.665531911117426;0.966796875;0.05615234375;-0.3701171875;0.75;0.0625;-1.0625;
1441975361621707;-0.80078125;0.13446044921875;-0.58013916015625;-0.064697265625;1.883462935209292;0.46696894095917496;7.7123642818416815;0.98583984375;0.0673828125;-0.36767578125;-12.3125;-6.25;-4.125;
1441975361643709;-0.80230712890625;0.135986328125;-0.57708740234375;-0.06964111328125;1.9112381725047458;0.39676127687432905;7.755369661859126;0.9892578125;0.03125;-0.37060546875;-23.125;-11.1875;-7.1875;
1441975361658709;-0.80401611328125;0.13751220703125;-0.57373046875;-0.0745849609375;1.943607996562137;0.32658451149334866;7.798246138705208;0.97216796875;-0.01123046875;-0.3515625;-28.625;-14.625;-9.4375;
1441975361688711;-0.80609130859375;0.13848876953125;-0.5699462890625;-0.07952880859375;1.9819283025518777;0.25078941684731443;7.848907430404591;0.9462890625;-0.04638671875;-0.33056640625;-29.875;-17.875;-12.625;
1441975361703712;-0.80841064453125;0.13897705078125;-0.56573486328125;-0.08441162109375;2.0259730410691783;0.17193051254111485;7.904715151939181;0.923828125;-0.046875;-0.32373046875;-28.5625;-21.375;-15.875;
1441975361718713;-0.81103515625;0.139404296875;-0.56109619140625;-0.0894775390625;2.076525129936128;0.0913151885514359;7.961667354629432;0.9296875;-0.03369140625;-0.3203125;-27.0;-24.8125;-18.3125;
1441975361748715;-0.8138427734375;0.13983154296875;-0.55609130859375;-0.0947265625;2.1324342320724505;0.010501446895973272;8.017909807249346;0.9443359375;-0.017578125;-0.34228515625;-27.5;-27.3125;-19.4375;
1441975361763715;-0.816650390625;0.140380859375;-0.5509033203125;-0.09979248046875;2.191528929362818;17.93614999560017;8.067764579063608;0.9580078125;-0.00830078125;-0.361328125;-28.4375;-29.0625;-19.875;
1441975361777716;-0.8194580078125;0.1409912109375;-0.545654296875;-0.1046142578125;2.2524801983921283;17.868428084498188;8.11164104212661;0.9716796875;-0.01416015625;-0.3779296875;-28.625;-30.3125;-20.3125;
1441975361799718;-0.82220458984375;0.14166259765625;-0.54046630859375;-0.1092529296875;2.3134731047823194;17.806443077108405;8.150227431121948;0.9775390625;-0.02490234375;-0.390625;-28.25;-30.8125;-20.625;
1441975361823719;-0.8248291015625;0.142333984375;-0.535400390625;-0.1134033203125;2.3736856684758307;17.75301483628847;8.182194783320568;0.97412109375;-0.02880859375;-0.40380859375;-27.8125;-30.4375;-20.1875;
1441975361837720;-0.82733154296875;0.14306640625;-0.530517578125;-0.11712646484375;2.4322915431532115;17.707352621406322;8.207887405799674;0.94189453125;-0.0283203125;-0.4150390625;-26.125;-29.0;-19.375;
1441975361859721;-0.82952880859375;0.14385986328125;-0.526123046875;-0.1201171875;2.485347394553681;17.672778043567078;8.22532823937255;0.9150390625;-0.03564453125;-0.42529296875;-24.25;-27.3125;-18.0;
1441975361882722;-0.8314208984375;0.144775390625;-0.52239990234375;-0.12225341796875;2.53103508910978;17.65052983052265;8.233685516240747;0.89697265625;-0.03759765625;-0.43115234375;-21.4375;-24.5;-15.5;
1441975361905724;-0.83294677734375;0.14569091796875;-0.51947021484375;-0.12359619140625;2.567591614839766;17.638525558251246;8.235355228684544;0.89794921875;-0.03271484375;-0.4462890625;-17.3125;-20.75;-11.6875;
1441975361919724;-0.83392333984375;0.14678955078125;-0.517333984375;-0.12432861328125;2.593726794573896;17.635643831944478;8.229829738592315;0.900390625;-0.017578125;-0.46142578125;-12.6875;-16.0625;-7.4375;
1441975361943726;-0.834228515625;0.14825439453125;-0.51629638671875;-0.124755859375;2.605519828459138;17.63993387860863;8.217226281144374;0.89453125;0.00146484375;-0.47021484375;-9.625;-10.6875;-2.9375;
1441975361965727;-0.83380126953125;0.150390625;-0.51629638671875;-0.12518310546875;2.6030207363469398;17.650146964199752;8.196213353164111;0.90673828125;0.0146484375;-0.47998046875;-8.5;-4.0625;2.25;
1441975361981728;-0.83270263671875;0.15313720703125;-0.51715087890625;-0.12567138671875;2.58838263836032;17.665217227476248;8.167764932652194;0.91015625;0.025390625;-0.49365234375;-9.6875;3.0;7.5625;
1441975362003729;-0.8309326171875;0.15673828125;-0.518798828125;-0.126220703125;2.562406173043811;17.687201652931556;8.128790883437663;0.89501953125;0.04150390625;-0.49560546875;-11.125;10.1875;12.75;
1441975362017730;-0.82855224609375;0.1610107421875;-0.521240234375;-0.12652587890625;2.52598327527601;17.718853719556677;8.07859045638347;0.86279296875;0.04248046875;-0.49755859375;-13.625;16.375;17.9375;
1441975362039731;-0.82537841796875;0.16546630859375;-0.52484130859375;-0.126220703125;2.4750578609101903;17.76248138893918;8.018494941719352;0.82958984375;0.029296875;-0.4873046875;-14.25;22.0;22.625;
1441975362062733;-0.8216552734375;0.16973876953125;-0.52960205078125;-0.12518310546875;2.4115105062369717;17.818100882820335;7.950684310925194;0.82421875;0.01611328125;-0.4677734375;-11.5;28.75;26.625;
1441975362077733;-0.81732177734375;0.17364501953125;-0.53546142578125;-0.12310791015625;2.336397040988271;17.88961677032693;7.873113602881171;0.82470703125;0.0146484375;-0.4609375;-6.5625;35.5625;29.9375;
1441975362116736;-0.8125;0.17706298828125;-0.54229736328125;-0.1204833984375;2.251225113536604;17.971989769635872;7.789321910277005;0.83935546875;0.0166015625;-0.46142578125;0.375;42.0625;33.0625;
1441975362123736;-0.80718994140625;0.18011474609375;-0.5498046875;-0.11767578125;2.1586483400256555;0.06293298201930493;7.699339130481202;0.88916015625;0.04345703125;-0.462890625;6.125;48.0;36.25;
1441975362137737;-0.80157470703125;0.1834716796875;-0.55718994140625;-0.11566162109375;2.066183016535402;0.1546103156484222;7.603823015830701;0.9765625;0.08349609375;-0.48681640625;9.8125;53.0;39.75;
1441975362186740;-0.7962646484375;0.18731689453125;-0.56378173828125;-0.11474609375;1.9831639709950166;0.2407017625265628;7.507098116837973;1.03466796875;0.09716796875;-0.47802734375;6.0;53.4375;40.25;
1441975362200740;-0.791259765625;0.19171142578125;-0.5694580078125;-0.11376953125;1.9137774201033098;0.33542717371057107;7.399262250308078;0.9853515625;0.06689453125;-0.39111328125;-2.1875;46.125;37.0625;
1441975362213741;-0.78680419921875;0.19586181640625;-0.574462890625;-0.1126708984375;1.8558904118000328;0.43119097905048087;7.291769470443887;0.9052734375;-0.00927734375;-0.29833984375;-6.5;37.3125;34.0;
1441975362219742;-0.7828369140625;0.19866943359375;-0.57904052734375;-0.11151123046875;1.803422642005478;0.5162148371922911;7.200706261795733;0.865234375;-0.095703125;-0.25927734375;-7.0625;31.3125;27.25;
1441975362243743;-0.77978515625;0.19940185546875;-0.583251953125;-0.1097412109375;1.7572042916432797;0.5872121763587689;7.134911989217373;0.87646484375;-0.1220703125;-0.23486328125;-3.25;27.4375;19.125;
1441975362257744;-0.77789306640625;0.19842529296875;-0.58648681640625;-0.10791015625;1.72199749041757;0.6327426471021803;7.101817448821895;0.92919921875;-0.09619140625;-0.2587890625;7.25;24.5625;13.0625;
1441975362279745;-0.77728271484375;0.1962890625;-0.58807373046875;-0.107177734375;1.7008805111182197;0.6343972824647417;7.112504993168246;0.9794921875;-0.05126953125;-0.29345703125;14.375;19.125;6.75;
1441975362302746;-0.77777099609375;0.1939697265625;-0.58807373046875;-0.10821533203125;1.692922663318243;0.5925197200215857;7.15994122776892;1.00390625;0.00244140625;-0.3271484375;13.125;11.3125;-0.5625;
1441975362325748;-0.779052734375;0.19171142578125;-0.5865478515625;-0.1109619140625;1.6976895137438484;0.5129689161934586;7.237323106627696;1.0244140625;0.01416015625;-0.3466796875;5.25;3.625;-9.0625;
1441975362339748;-0.781005859375;0.18914794921875;-0.584228515625;-0.11407470703125;1.7128551445925646;0.4180118603244194;7.329758309220172;1.01708984375;0.009765625;-0.34765625;-3.75;-3.8125;-17.375;
1441975362363750;-0.78338623046875;0.18597412109375;-0.58154296875;-0.11688232421875;1.7351768545381983;0.3192965749408794;7.429667483171837;0.99365234375;-0.01708984375;-0.333984375;-6.3125;-9.8125;-23.5625;
1441975362377751;-0.78619384765625;0.18157958984375;-0.57861328125;-0.11920166015625;1.7631782884543294;0.21485644225965497;7.5423049064871615;0.9912109375;-0.04052734375;-0.3271484375;-3.375;-13.5;-28.5;
1441975362399752;-0.78961181640625;0.17608642578125;-0.5753173828125;-0.120849609375;1.800471236298007;0.10903614633185742;7.663635565050898;0.97900390625;-0.021484375;-0.32958984375;3.1875;-15.9375;-32.1875;
1441975362422753;-0.79339599609375;0.16998291015625;-0.57159423828125;-0.1224365234375;1.8459529599753932;3.7281400089667175E-4;7.790466416209633;0.9853515625;0.0029296875;-0.3447265625;9.875;-18.8125;-35.0;
1441975362437754;-0.79754638671875;0.1636962890625;-0.5672607421875;-0.1241455078125;1.9019402116553337;17.891798109952735;7.91727008447428;0.9892578125;0.02978515625;-0.35498046875;12.625;-22.1875;-37.3125;
1441975362461755;-0.80181884765625;0.157470703125;-0.56256103515625;-0.12603759765625;1.9648734188267114;17.787295572268807;8.038844116121032;0.97607421875;0.03369140625;-0.34765625;11.75;-26.25;-39.8125;
1441975362482757;-0.80615234375;0.15106201171875;-0.5577392578125;-0.12750244140625;2.0324939436897935;17.693714103177527;8.151939725710099;0.943359375;0.02294921875;-0.32958984375;10.375;-29.5625;-42.125;
1441975362497757;-0.81048583984375;0.14398193359375;-0.55316162109375;-0.12823486328125;2.100652592031906;17.610632797789904;8.260445421309498;0.91357421875;-0.00537109375;-0.3154296875;11.5625;-31.6875;-44.3125;
1441975362519759;-0.81488037109375;0.13580322265625;-0.5489501953125;-0.1275634765625;2.1686493085392513;17.542248829026292;8.364776798713738;0.89306640625;-0.00927734375;-0.30029296875;17.375;-31.75;-45.75;
1441975362559761;-0.8192138671875;0.1265869140625;-0.54510498046875;-0.125732421875;2.2351258479836744;17.485031319185023;8.46717030126389;0.8896484375;0.00244140625;-0.31396484375;27.25;-30.625;-45.9375;
1441975362561761;-0.82342529296875;0.11651611328125;-0.54156494140625;-0.12310791015625;2.2998434104006327;17.435173192617306;8.569144964224883;0.90625;0.0380859375;-0.3203125;37.3125;-29.125;-45.3125;
1441975362581762;-0.827392578125;0.10614013671875;-0.538330078125;-0.1202392578125;2.361576463251724;17.3897967712302;8.669037570703164;0.916015625;0.08251953125;-0.32470703125;44.75;-28.125;-44.375;
1441975362602763;-0.83087158203125;0.09613037109375;-0.535400390625;-0.1175537109375;2.4182793873589326;17.348198693736016;8.762899953830505;0.91845703125;0.1181640625;-0.31640625;47.625;-27.125;-42.8125;
1441975362617764;-0.833740234375;0.0869140625;-0.53302001953125;-0.11517333984375;2.4663593007621984;17.311041310013525;8.847884621860414;0.92236328125;0.14599609375;-0.3056640625;46.1875;-25.625;-40.0;
1441975362639766;-0.83612060546875;0.0787353515625;-0.531005859375;-0.1134033203125;2.508026481454494;17.27588164909352;8.924111868282466;0.9423828125;0.16455078125;-0.29833984375;42.75;-23.4375;-36.0;
1441975362662767;-0.83782958984375;0.07177734375;-0.52947998046875;-0.11212158203125;2.540527076064967;17.2442833978024;8.989702858214432;0.97265625;0.18115234375;-0.29150390625;37.0625;-21.6875;-31.625;
1441975362685768;-0.83917236328125;0.06610107421875;-0.5283203125;-0.11126708984375;2.566534456129736;17.21713663002853;9.043844547071467;0.99267578125;0.18505859375;-0.2724609375;30.9375;-20.4375;-27.3125;
1441975362699769;-0.840087890625;0.06146240234375;-0.52752685546875;-0.11077880859375;2.5857480660340992;17.192774833074584;9.089405490340434;0.99755859375;0.17578125;-0.255859375;24.625;-19.625;-23.3125;
1441975362731771;-0.8406982421875;0.05767822265625;-0.527099609375;-0.1103515625;2.598710044505547;17.173091932347823;9.126555953861855;0.99755859375;0.162109375;-0.24072265625;19.375;-18.0;-19.875;
1441975362745772;-0.84100341796875;0.05462646484375;-0.5269775390625;-0.11016845703125;2.6062627287336726;17.155035257004368;9.158056588977649;0.98828125;0.1435546875;-0.24072265625;15.75;-15.4375;-16.9375;
1441975362761773;-0.84100341796875;0.05218505859375;-0.52716064453125;-0.1104736328125;2.608839722784643;17.1349313432891;9.187071324304727;0.98779296875;0.13525390625;-0.25;11.8125;-13.125;-15.0;
1441975362782774;-0.84088134765625;0.0501708984375;-0.52740478515625;-0.1112060546875;2.610105045652684;17.11278414515821;9.214571401091941;1.0;0.125;-0.240234375;7.4375;-11.9375;-13.8125;
1441975362805775;-0.8404541015625;0.0484619140625;-0.52801513671875;-0.11212158203125;2.6059572983668207;17.089539815449996;9.241181651411843;0.9765625;0.11376953125;-0.2470703125;3.625;-10.25;-13.6875;
1441975362828776;-0.83984375;0.046875;-0.52899169921875;-0.11285400390625;2.596938197036755;17.068048172969235;9.266379098925642;0.9501953125;0.09912109375;-0.23974609375;1.125;-7.5625;-13.375;
1441975362842777;-0.8389892578125;0.04522705078125;-0.5303955078125;-0.11334228515625;2.5823310010560085;17.047380164827235;9.292099149309594;0.943359375;0.09765625;-0.24951171875;1.3125;-3.9375;-12.25;
1441975362857778;-0.83782958984375;0.043701171875;-0.53216552734375;-0.1138916015625;2.562463202503688;17.025262275527236;9.318539215626776;0.935546875;0.1064453125;-0.26025390625;3.1875;0.0625;-10.875;
1441975362879779;-0.83636474609375;0.0428466796875;-0.53436279296875;-0.11474609375;2.5360563413525656;17.002501826513093;9.34164723609009;0.953125;0.138671875;-0.2763671875;2.6875;3.25;-8.3125;
1441975362911781;-0.83465576171875;0.04266357421875;-0.536865234375;-0.11553955078125;2.503979496662476;16.98343995922855;9.358568812864625;0.95654296875;0.16259765625;-0.27490234375;0.1875;6.0;-4.5625;
1441975362918782;-0.8326416015625;0.04327392578125;-0.53985595703125;-0.11627197265625;2.4638039808742844;16.968485595685596;9.368455875402663;0.943359375;0.16259765625;-0.2900390625;-2.5625;9.6875;-0.5;
1441975362941783;-0.83026123046875;0.04473876953125;-0.543212890625;-0.1170654296875;2.416328538956515;16.956944774781213;9.371170418882258;0.9365234375;0.16064453125;-0.3046875;-4.625;14.125;3.875;
1441975362962784;-0.82757568359375;0.04736328125;-0.5467529296875;-0.11834716796875;2.3636756451852374;16.94695694818041;9.365515000386045;0.921875;0.16748046875;-0.31103515625;-7.6875;17.8125;8.375;
1441975362985785;-0.82470703125;0.051513671875;-0.5504150390625;-0.11981201171875;2.3058155313224353;16.945795658175435;9.344018990431515;0.90771484375;0.18603515625;-0.31982421875;-13.5;20.1875;14.375;
1441975362999786;-0.821533203125;0.0567626953125;-0.55419921875;-0.12139892578125;2.24285997967013;16.951445785261683;9.310662860172897;0.9111328125;0.17822265625;-0.33642578125;-19.875;22.5625;20.875;
1441975363022787;-0.818359375;0.06243896484375;-0.55810546875;-0.1224365234375;2.1770930350822137;16.968421089416086;9.266606933796137;0.9111328125;0.1484375;-0.33984375;-24.4375;23.875;24.375;
1441975363045789;-0.8150634765625;0.068603515625;-0.56201171875;-0.1231689453125;2.1093937439953194;16.995179351790636;9.212014458010245;0.91259765625;0.138671875;-0.3515625;-23.8125;25.3125;27.75;
1441975363059790;-0.81170654296875;0.0751953125;-0.56597900390625;-0.12353515625;2.039893823913492;17.033127113311853;9.146046042272971;0.912109375;0.13916015625;-0.36181640625;-23.8125;27.0625;31.5;
1441975363082791;-0.808349609375;0.08221435546875;-0.5697021484375;-0.12353515625;1.9722082612129779;17.084253609447092;9.066566715880883;0.92333984375;0.142578125;-0.37060546875;-23.625;27.75;35.75;
1441975363106792;-0.80511474609375;0.08941650390625;-0.57330322265625;-0.123291015625;1.9069940460501102;17.145697962415827;8.977074196670221;0.93310546875;0.14013671875;-0.3779296875;-23.125;27.375;38.9375;
1441975363120793;-0.80194091796875;0.09686279296875;-0.57666015625;-0.1226806640625;1.8452554509503276;17.220691311070404;8.874466398163475;0.94384765625;0.13818359375;-0.37744140625;-22.625;26.1875;41.0625;
1441975363142794;-0.7989501953125;0.10418701171875;-0.57977294921875;-0.12176513671875;1.7887935597389575;17.305373873122438;8.763907462978548;0.96923828125;0.12255859375;-0.37255859375;-21.6875;24.4375;42.625;
1441975363165796;-0.79608154296875;0.111328125;-0.58258056640625;-0.1204833984375;1.73816452423622;17.399999885533656;8.645543191862483;0.9951171875;0.115234375;-0.37060546875;-19.8125;22.5625;43.1875;
1441975363179796;-0.7935791015625;0.1182861328125;-0.58489990234375;-0.1192626953125;1.6970336593213948;17.49771542650397;8.5245281138449;1.01171875;0.11181640625;-0.36083984375;-17.5;20.125;43.625;
1441975363202798;-0.7913818359375;0.12548828125;-0.5865478515625;-0.118408203125;1.6665220587475127;17.597106294225423;8.399142484439487;1.02978515625;0.12060546875;-0.35986328125;-16.8125;16.75;43.75;
1441975363233800;-0.78961181640625;0.1328125;-0.58740234375;-0.11822509765625;1.6482894921176634;17.689714350915924;8.277097074779926;1.04541015625;0.11962890625;-0.3544921875;-19.3125;12.125;43.0625;
1441975363248800;-0.78814697265625;0.1402587890625;-0.58746337890625;-0.118896484375;1.640816506142218;17.770352564765254;8.162740315522708;1.044921875;0.10693359375;-0.34521484375;-23.1875;7.4375;40.625;
1441975363262801;-0.787109375;0.14752197265625;-0.5867919921875;-0.1202392578125;1.6436862926292206;17.83638080548216;8.06079907256077;1.02392578125;0.07373046875;-0.322265625;-28.125;2.3125;36.1875;
1441975363285803;-0.78662109375;0.1544189453125;-0.585205078125;-0.12225341796875;1.6584832885804424;17.883539557863678;7.976204843332198;0.97705078125;0.0498046875;-0.31298828125;-31.0625;-2.0;30.8125;
1441975363299803;-0.7867431640625;0.1607666015625;-0.5828857421875;-0.12481689453125;1.6832377471318605;17.91115262524484;7.911039685247389;0.93359375;0.03369140625;-0.31005859375;-33.375;-6.25;25.0;
1441975363322805;-0.78729248046875;0.1666259765625;-0.579833984375;-0.12750244140625;1.7170030625716952;17.92689754452882;7.85892841211445;0.904296875;0.0361328125;-0.31103515625;-34.4375;-10.625;20.25;
1441975363345806;-0.78839111328125;0.1712646484375;-0.57647705078125;-0.12994384765625;1.7562220285981103;17.929431077148738;7.826073767879258;0.8916015625;0.017578125;-0.3193359375;-33.8125;-14.375;15.375;
1441975363359807;-0.78985595703125;0.17437744140625;-0.57305908203125;-0.13177490234375;1.7975948168019644;17.92286222328813;7.81111442485068;0.892578125;0.01220703125;-0.3203125;-28.8125;-17.25;9.9375;
1441975363382808;-0.79168701171875;0.17626953125;-0.56964111328125;-0.13323974609375;1.8405028158977452;17.90791772777398;7.811189343562516;0.89794921875;0.03515625;-0.3271484375;-20.1875;-18.625;5.6875;
1441975363404809;-0.7935791015625;0.177734375;-0.566162109375;-0.13458251953125;1.8840730789703393;17.89041019892125;7.816008656601115;0.904296875;0.0751953125;-0.3369140625;-13.6875;-19.0625;3.8125;
1441975363419810;-0.79534912109375;0.17913818359375;-0.56292724609375;-0.1361083984375;1.9242327145283122;17.871108495202968;7.822230190437166;0.9287109375;0.10888671875;-0.3720703125;-10.875;-17.9375;4.0625;
1441975363442811;-0.7969970703125;0.18023681640625;-0.55975341796875;-0.13787841796875;1.9623018661674518;17.846372651023056;7.834058538159442;0.95458984375;0.1162109375;-0.39501953125;-11.0625;-16.0;3.75;
1441975363466813;-0.798583984375;0.18121337890625;-0.5567626953125;-0.13970947265625;1.9981234045405507;17.820875020056384;7.846993324772061;0.94677734375;0.11328125;-0.400390625;-11.375;-14.4375;1.75;
1441975363479814;-0.80023193359375;0.18206787109375;-0.5535888671875;-0.14154052734375;2.0359916040218335;17.794392986059673;7.861271378393265;0.9150390625;0.0888671875;-0.39208984375;-11.8125;-13.875;-1.0625;
1441975363502815;-0.8017578125;0.18280029296875;-0.55078125;-0.14312744140625;2.0700361589532057;17.771705789445665;7.873441428481748;0.86572265625;0.0595703125;-0.373046875;-12.5625;-15.0;-3.8125;
1441975363526816;-0.80316162109375;0.18280029296875;-0.5484619140625;-0.14410400390625;2.099132059517747;17.752117416711123;7.888234396679113;0.85009765625;0.033203125;-0.3408203125;-11.1875;-15.0625;-5.0;
1441975363539817;-0.80474853515625;0.181396484375;-0.54656982421875;-0.14410400390625;2.12583520647094;17.73380073763399;7.911879812744086;0.85595703125;0.00927734375;-0.34375;-5.9375;-13.25;-7.8125;
1441975363562818;-0.806640625;0.17877197265625;-0.54486083984375;-0.14337158203125;2.1530529075564293;17.714726542828394;7.944589517953521;0.85693359375;-0.001953125;-0.34326171875;2.6875;-11.8125;-11.75;
1441975363584820;-0.808837890625;0.17535400390625;-0.54290771484375;-0.14276123046875;2.1840076928677665;17.68722880396991;7.98848849118732;0.85498046875;-0.00244140625;-0.3515625;10.375;-11.4375;-15.5625;
1441975363601821;-0.81109619140625;0.17193603515625;-0.54058837890625;-0.142822265625;2.218289903509058;17.65171939265779;8.03743038497491;0.8671875;0.02001953125;-0.37060546875;12.75;-12.25;-18.6875;
1441975363630822;-0.813232421875;0.16888427734375;-0.53802490234375;-0.14398193359375;2.253492786314729;17.606699338726415;8.089662533699022;0.88671875;0.0322265625;-0.3818359375;9.3125;-13.3125;-21.1875;
1441975363644823;-0.81536865234375;0.166015625;-0.53521728515625;-0.1456298828125;2.291201268682233;17.55842088902743;8.142230895510457;0.90234375;0.02294921875;-0.37451171875;2.625;-14.625;-23.8125;
1441975363662824;-0.81756591796875;0.16278076171875;-0.53253173828125;-0.1470947265625;2.328922501054152;17.51116230068711;8.196169212523568;0.91064453125;-0.0107421875;-0.3642578125;-1.6875;-16.625;-27.1875;
1441975363682825;-0.81988525390625;0.1585693359375;-0.52996826171875;-0.1480712890625;2.367322288386693;17.463768051192755;8.256387625562478;0.91796875;-0.04541015625;-0.3671875;-0.6875;-16.875;-31.25;
1441975363714827;-0.82257080078125;0.15325927734375;-0.5272216796875;-0.14849853515625;2.411079987363358;17.416085806573374;8.323738548746832;0.9150390625;-0.0654296875;-0.37109375;4.3125;-16.0;-36.1875;
1441975363727828;-0.825439453125;0.147216796875;-0.5244140625;-0.148681640625;2.4578231713484584;17.36785364141196;8.395734579256429;0.87939453125;-0.0595703125;-0.39453125;9.8125;-15.5625;-39.9375;
1441975363742829;-0.82830810546875;0.140380859375;-0.52178955078125;-0.14825439453125;2.5043238930885736;17.323052773309076;8.47019595506378;0.84375;-0.04931640625;-0.392578125;13.5625;-15.625;-42.4375;
1441975363764830;-0.83099365234375;0.13275146484375;-0.5198974609375;-0.1470947265625;2.544161910201097;17.282827599894585;8.546806013379397;0.83154296875;-0.02001953125;-0.40478515625;19.375;-13.8125;-42.9375;
1441975363779831;-0.8333740234375;0.12451171875;-0.51861572265625;-0.1451416015625;2.5775344543391365;17.24852490205248;8.623516452599361;0.84130859375;0.01806640625;-0.42578125;26.4375;-9.25;-41.5;
1441975363810833;-0.8353271484375;0.1162109375;-0.51806640625;-0.14300537109375;2.602015046210418;17.21649615177506;8.699245265376351;0.8466796875;0.0625;-0.462890625;33.0;-3.375;-38.9375;
1441975363824833;-0.83673095703125;0.1087646484375;-0.5177001953125;-0.14166259765625;2.6215330200825533;17.181858491713175;8.77060263646233;0.8623046875;0.1083984375;-0.4736328125;35.1875;1.4375;-35.4375;
1441975363847835;-0.83758544921875;0.1026611328125;-0.5177001953125;-0.1412353515625;2.633822901426336;17.146115566393803;8.833712002855554;0.8818359375;0.12158203125;-0.45068359375;29.1875;1.375;-33.1875;
1441975363863836;-0.837646484375;0.0977783203125;-0.51861572265625;-0.14105224609375;2.6317117462096116;17.114417321954598;8.886873551273423;0.85791015625;0.09765625;-0.40576171875;20.0;2.25;-30.0;
1441975363893837;-0.837158203125;0.0933837890625;-0.5203857421875;-0.14031982421875;2.61742283568692;17.090200144926307;8.933017075102889;0.833984375;0.0732421875;-0.3701171875;14.5625;6.3125;-25.6875;
1441975363899838;-0.83624267578125;0.089111328125;-0.5230712890625;-0.138671875;2.5910844934816843;17.074725510324395;8.973995029157992;0.8564453125;0.0556640625;-0.38134765625;15.0625;11.9375;-21.9375;
1441975363923839;-0.835205078125;0.08502197265625;-0.5260009765625;-0.1363525390625;2.5609030758417566;17.06685775010752;9.009421515444846;0.884765625;0.06201171875;-0.3857421875;19.5;16.8125;-17.8125;
1441975363944840;-0.8341064453125;0.08148193359375;-0.52880859375;-0.1343994140625;2.5311048593767524;17.058294742216248;9.041636311342504;0.91357421875;0.0712890625;-0.38916015625;22.3125;17.5;-14.0625;
1441975363967842;-0.8326416015625;0.0792236328125;-0.53173828125;-0.13348388671875;2.4970487634502128;17.045845242949323;9.068043654100753;0.90380859375;0.0732421875;-0.37255859375;18.625;16.75;-12.4375;
1441975363983842;-0.830810546875;0.0780029296875;-0.53485107421875;-0.13275146484375;2.457573394668744;17.037330867665293;9.085378419535761;0.8828125;0.0615234375;-0.341796875;9.9375;16.5625;-9.8125;
1441975364004844;-0.8289794921875;0.07708740234375;-0.53814697265625;-0.13165283203125;2.415435101851414;17.034631460786407;9.097250370238902;0.8994140625;0.0244140625;-0.3291015625;4.6875;17.3125;-7.4375;
1441975364031845;-0.82733154296875;0.07611083984375;-0.5411376953125;-0.13018798828125;2.376970377530937;17.036353851551894;9.106358868197415;0.9091796875;0.0078125;-0.322265625;5.0625;17.3125;-5.875;
1441975364042846;-0.82574462890625;0.074951171875;-0.544189453125;-0.12835693359375;2.3381637352903057;17.040908132524205;9.114942539888533;0.89111328125;0.01171875;-0.3173828125;7.4375;16.0;-4.625;
1441975364064847;-0.82403564453125;0.07415771484375;-0.54730224609375;-0.126708984375;2.2976178421818885;17.045725167920317;9.120960821867513;0.90185546875;0.02734375;-0.31787109375;10.1875;16.1875;-3.3125;
1441975364089848;-0.8221435546875;0.0740966796875;-0.55029296875;-0.12579345703125;2.256735225768575;17.04731003479953;9.124025476457366;0.93896484375;0.05419921875;-0.3359375;8.875;17.3125;-0.5625;
1441975364110850;-0.8201904296875;0.07489013671875;-0.55316162109375;-0.12554931640625;2.2159941292451615;17.047709782700355;9.121926423973095;0.9619140625;0.0537109375;-0.341796875;2.625;17.4375;0.5;
1441975364126851;-0.818359375;0.0765380859375;-0.55560302734375;-0.12603759765625;2.179478155804248;17.04720634050319;9.114072856294602;0.955078125;0.03369140625;-0.3310546875;-3.6875;16.5625;1.3125;
1441975364141851;-0.81640625;0.07904052734375;-0.55780029296875;-0.1270751953125;2.1437078659188407;17.04736958063282;9.099616078096398;0.94482421875;0.02197265625;-0.3251953125;-10.0;14.125;2.1875;
1441975364162853;-0.81439208984375;0.081787109375;-0.56011962890625;-0.12799072265625;2.1058608129405583;17.051184522711722;9.081064017715702;0.92236328125;0.00341796875;-0.3173828125;-15.8125;13.3125;3.25;
1441975364186854;-0.8123779296875;0.08441162109375;-0.56256103515625;-0.12841796875;2.066526758617325;17.06052467411969;9.059565703006884;0.94189453125;-0.00146484375;-0.3203125;-16.125;14.375;4.875;
1441975364199855;-0.8104248046875;0.08685302734375;-0.56500244140625;-0.12860107421875;2.0276520994948255;17.07216186270106;9.037561886641631;0.962890625;-0.0126953125;-0.33447265625;-13.6875;15.3125;5.0625;
1441975364222856;-0.80841064453125;0.0892333984375;-0.5672607421875;-0.12945556640625;1.9909626400960105;17.074897928455222;9.021835617501868;0.94921875;-4.8828125E-4;-0.33349609375;-11.75;15.875;5.9375;
1441975364252858;-0.80670166015625;0.092041015625;-0.56884765625;-0.13140869140625;1.9630085345166979;17.06876519723573;9.00855888890155;0.9267578125;0.02783203125;-0.31494140625;-13.8125;15.5;5.8125;
1441975364261858;-0.804931640625;0.09552001953125;-0.57012939453125;-0.13427734375;1.937415423892406;17.056979263706765;8.994272992616798;0.8681640625;0.03173828125;-0.31494140625;-20.5;13.4375;4.1875;
1441975364282860;-0.80303955078125;0.09942626953125;-0.5714111328125;-0.13720703125;1.9103994428101057;17.04837491036784;8.974764728387546;0.82763671875;0.0283203125;-0.2958984375;-26.75;11.8125;4.5;
1441975364304861;-0.801025390625;0.10272216796875;-0.5728759765625;-0.1402587890625;1.881911795286167;17.031385242062907;8.965682413441346;0.83447265625;9.765625E-4;-0.30615234375;-29.4375;12.875;4.0;
1441975364321862;-0.7991943359375;0.105224609375;-0.574462890625;-0.142578125;1.8539132754589354;17.016847285127657;8.960555907630006;0.822265625;0.0126953125;-0.3017578125;-27.5;14.75;2.25;
1441975364342863;-0.79736328125;0.107421875;-0.57598876953125;-0.1448974609375;1.8269362623608358;16.999057385769106;8.959884942503493;0.8017578125;0.01416015625;-0.31494140625;-21.8125;16.625;1.125;
1441975364367864;-0.7952880859375;0.110107421875;-0.57769775390625;-0.1474609375;1.796160820244592;16.981700093329525;8.955796145044259;0.8232421875;0.052734375;-0.3369140625;-19.75;18.0625;1.9375;
1441975364382865;-0.7930908203125;0.11260986328125;-0.57958984375;-0.14996337890625;1.7631146699473792;16.96235637258081;8.95474252855729;0.86376953125;0.0595703125;-0.328125;-22.5;18.5;4.0;
1441975364410867;-0.79107666015625;0.11480712890625;-0.581298828125;-0.15228271484375;1.7332390674849687;16.942906615347894;8.955777654224558;0.85595703125;0.0478515625;-0.31201171875;-21.9375;18.875;2.9375;
1441975364424868;-0.7890625;0.11663818359375;-0.5830078125;-0.15484619140625;1.7042819905156688;16.915145174877352;8.965629830276113;0.83935546875;0.0302734375;-0.314453125;-20.125;18.625;0.8125;
1441975364447869;-0.786865234375;0.11859130859375;-0.5848388671875;-0.157470703125;1.6729176620511692;16.88638622370903;8.975709335752322;0.8173828125;0.0400390625;-0.30908203125;-20.125;19.875;-1.0;
1441975364478871;-0.78460693359375;0.1201171875;-0.58697509765625;-0.15972900390625;1.638737002176546;16.856718818833578;8.990093861077865;0.806640625;0.037109375;-0.310546875;-20.4375;21.25;-0.625;
1441975364484871;-0.782470703125;0.12115478515625;-0.58905029296875;-0.16168212890625;1.6064988590266087;16.82568793269756;9.009085453257292;0.806640625;0.017578125;-0.30224609375;-18.25;22.9375;-2.25;
1441975364501872;-0.78021240234375;0.12139892578125;-0.59161376953125;-0.16326904296875;1.570197843730978;16.78799447879315;9.039697212999936;0.80615234375;0.0087890625;-0.2998046875;-14.875;22.875;-4.1875;
1441975364523873;-0.7777099609375;0.121337890625;-0.594482421875;-0.1646728515625;1.5301032619457806;16.745987887711017;9.076633666142818;0.84716796875;0.04443359375;-0.30712890625;-9.875;25.9375;-4.0;
1441975364545875;-0.77496337890625;0.1212158203125;-0.5975341796875;-0.16668701171875;1.4882543621406286;16.688940031721057;9.126368172051174;0.9326171875;0.07373046875;-0.333984375;-7.75;29.3125;-2.9375;
1441975364561875;-0.77191162109375;0.12176513671875;-0.60064697265625;-0.16900634765625;1.443360410960962;16.630904390214443;9.172989659014736;0.97265625;0.125;-0.31396484375;-9.6875;30.0;-1.875;
1441975364591877;-0.768798828125;0.1229248046875;-0.603759765625;-0.171630859375;1.3976676508196897;16.57227737176186;9.216507046929937;0.98388671875;0.13623046875;-0.2890625;-13.125;29.6875;0.875;
1441975364612878;-0.7655029296875;0.12432861328125;-0.6070556640625;-0.17352294921875;1.347380207204666;16.52539910789726;9.250239222343978;0.962890625;0.11865234375;-0.25927734375;-16.6875;28.5;1.75;
1441975364628879;-0.76190185546875;0.12628173828125;-0.610595703125;-0.17547607421875;1.29187979534383;16.479462881477613;9.28055840974273;0.9140625;0.07373046875;-0.212890625;-14.9375;27.25;2.625;
1441975364650881;-0.7586669921875;0.12786865234375;-0.61358642578125;-0.17816162109375;1.2465562619798045;16.41544370236167;9.327358953215153;0.890625;0.04541015625;-0.1923828125;-17.25;28.6875;4.0;
1441975364673882;-0.756103515625;0.12896728515625;-0.61553955078125;-0.1812744140625;1.217516265180669;16.342186809402417;9.38332755492037;0.837890625;0.06640625;-0.1689453125;-18.8125;25.4375;0.75;
1441975364681882;-0.75421142578125;0.13037109375;-0.61669921875;-0.18408203125;1.1983811847126196;16.28730478119111;9.42081833209987;0.79931640625;0.0888671875;-0.1376953125;-18.8125;18.1875;-2.5;
1441975364702884;-0.7520751953125;0.13262939453125;-0.617919921875;-0.18719482421875;1.1755325333126876;16.236323322811554;9.449645053147687;0.8310546875;0.0830078125;-0.16650390625;-18.6875;13.4375;-2.5;
1441975364724885;-0.74993896484375;0.1351318359375;-0.619140625;-0.1898193359375;1.1506584574323229;16.197892053911875;9.466899156680562;0.88818359375;0.07666015625;-0.1611328125;-23.1875;13.75;-0.375;
1441975364747886;-0.74853515625;0.13739013671875;-0.61981201171875;-0.1917724609375;1.13406634612549;16.178568091360017;9.468852846096572;0.9306640625;0.1005859375;-0.15869140625;-21.5625;12.375;3.5625;
1441975364762887;-0.74700927734375;0.141357421875;-0.61968994140625;-0.19500732421875;1.1212606305732626;16.166192466017286;9.451154003284465;0.94287109375;0.1318359375;-0.146484375;-17.1875;6.375;5.8125;
1441975364809890;-0.74505615234375;0.147705078125;-0.61944580078125;-0.19866943359375;1.1000157092575846;16.183622439343583;9.392027799098573;0.9375;0.18798828125;-0.09716796875;-28.4375;-0.5;12.3125;
1441975364811890;-0.74298095703125;0.1546630859375;-0.619384765625;-0.20123291015625;1.0717354038947586;16.235683695982146;9.30027505467196;0.9072265625;0.13818359375;-0.0439453125;-39.5;-4.8125;17.8125;
1441975364839891;-0.7406005859375;0.161376953125;-0.6199951171875;-0.20281982421875;1.03470714317926;16.30253803384984;9.198930498219026;0.8740234375;0.06884765625;-0.02392578125;-37.375;-6.4375;20.4375;
1441975364844892;-0.73870849609375;0.16748046875;-0.62042236328125;-0.20355224609375;1.003262797970886;16.388572959121472;9.084500110598732;0.90185546875;0.05712890625;-0.01171875;-32.375;-4.0625;23.5625;
1441975364870893;-0.73681640625;0.17388916015625;-0.6204833984375;-0.20465087890625;0.9761989125325081;16.480251653664162;8.961412307163434;0.95947265625;0.10791015625;-0.0263671875;-25.5625;-5.875;26.5;
1441975364882894;-0.73443603515625;0.1812744140625;-0.62066650390625;-0.206298828125;0.9449442929982833;16.581692681220048;8.822199979546118;1.0068359375;0.1484375;0.0224609375;-28.125;-11.4375;29.4375;
1441975364912896;-0.73162841796875;0.18927001953125;-0.62066650390625;-0.2091064453125;0.914305585522666;16.672491124004555;8.686049035205228;1.08203125;0.1640625;0.06640625;-33.5625;-13.4375;33.5625;
1441975364921896;-0.72784423828125;0.1983642578125;-0.62060546875;-0.2139892578125;0.878954861659997;16.735331701155797;8.56431443428659;1.1494140625;0.20654296875;0.115234375;-40.8125;-16.0625;35.5;
1441975364942897;-0.7232666015625;0.209716796875;-0.61968994140625;-0.22119140625;0.8451506665096588;16.79443511712541;8.426601378660463;1.1318359375;0.259765625;0.19873046875;-53.875;-17.125;37.75;
1441975364964899;-0.718017578125;0.223876953125;-0.617431640625;-0.23065185546875;0.8175347729407519;16.867517938729645;8.252848051531409;1.0244140625;0.2412109375;0.2119140625;-73.8125;-17.75;38.6875;
1441975364981900;-0.71331787109375;0.2396240234375;-0.61328125;-0.24017333984375;0.8112552568529996;16.990080345917946;8.021542019672266;0.99462890625;0.19677734375;0.15478515625;-96.3125;-16.875;38.6875;
1441975365005901;-0.7069091796875;0.25213623046875;-0.61212158203125;-0.24920654296875;0.7689585532635234;17.047966125010266;7.870933145992116;1.00732421875;0.07958984375;0.13134765625;-106.1875;-13.5625;32.125;
1441975365024902;-0.700927734375;0.26141357421875;-0.61138916015625;-0.25799560546875;0.7265341762592176;17.029632997282697;7.811023145913752;1.00390625;0.04052734375;0.1572265625;-90.5;-7.25;26.75;
1441975365048903;-0.695556640625;0.2677001953125;-0.61151123046875;-0.26580810546875;0.6815601698587735;16.95428827900971;7.825321743869229;1.00244140625;0.10205078125;0.1875;-76.1875;-3.9375;18.875;
1441975365062904;-0.69110107421875;0.27056884765625;-0.61260986328125;-0.27197265625;0.6364030267092949;16.819033009725118;7.9214950973727;1.02294921875;0.07763671875;0.2119140625;-59.9375;-1.1875;8.5;
1441975365084905;-0.68731689453125;0.2705078125;-0.61444091796875;-0.27740478515625;0.5933858419892556;16.58836550063947;8.129001721162961;1.076171875;0.07763671875;0.18408203125;-38.5625;4.375;0.625;
1441975365101906;-0.6834716796875;0.2691650390625;-0.6165771484375;-0.2833251953125;0.5542562943305182;16.25118860369556;8.446376116698037;1.10205078125;0.15185546875;0.14453125;-22.75;11.875;-3.75;
1441975365130908;-0.67919921875;0.268798828125;-0.61785888671875;-0.29119873046875;0.5292935356152779;15.82935565877208;8.835444220835159;1.07666015625;0.28955078125;0.14892578125;-19.3125;17.0;-0.5625;
1441975365144909;-0.674072265625;0.2706298828125;-0.6190185546875;-0.298828125;0.5013381249397283;15.455535804315625;9.167666144731491;1.046875;0.375;0.08056640625;-32.375;22.25;1.375;
1441975365161910;-0.66754150390625;0.27484130859375;-0.62091064453125;-0.30560302734375;0.4527539882789045;15.116814382055408;9.458041580445675;1.0361328125;0.28515625;0.01708984375;-41.625;26.125;5.0;
1441975365183911;-0.661865234375;0.279052734375;-0.6224365234375;-0.31097412109375;0.41113682922390726;14.816585912002378;9.715940451753996;1.0751953125;0.17041015625;0.0341796875;-48.5625;28.3125;12.5625;
1441975365206912;-0.65740966796875;0.28314208984375;-0.622802734375;-0.31591796875;0.3862821877189512;14.573994329734395;9.91833758260041;1.126953125;0.14990234375;0.0146484375;-42.6875;23.5;14.0;
1441975365228914;-0.651123046875;0.288818359375;-0.623779296875;-0.32183837890625;0.3474278628341231;14.201719407750458;10.238917040303452;1.20751953125;0.16796875;-0.06591796875;-40.6875;20.5;12.125;
1441975365243915;-0.645263671875;0.294921875;-0.62457275390625;-0.32659912109375;0.3066001285928789;13.853615639156082;10.538442262997524;1.3388671875;0.06787109375;0.017578125;-52.375;22.875;11.5;
1441975365264916;-0.6416015625;0.300537109375;-0.62188720703125;-0.333740234375;0.3129128973811478;13.702142741922327;10.632170486840879;1.45458984375;-0.02392578125;-0.00390625;-49.125;20.0;9.8125;
1441975365287917;-0.6383056640625;0.29736328125;-0.62298583984375;-0.3406982421875;0.3724898647877056;13.131783191214463;11.184825447782156;1.525390625;0.060546875;-0.033203125;-58.0625;6.5;-5.5;
1441975365303918;-0.62890625;0.30096435546875;-0.62811279296875;-0.3455810546875;0.36162960339559086;12.189994619379034;12.0881113600625;1.42529296875;0.4482421875;0.17626953125;-18.0;22.125;-3.25;
1441975365329919;-0.6177978515625;0.29071044921875;-0.64727783203125;-0.33892822265625;0.4580535924414884;10.604939499504688;13.749069373407771;2.025390625;-0.62646484375;0.69677734375;-36.6875;7.0625;-31.1875;
1441975365347920;-0.63177490234375;0.26416015625;-0.6541748046875;-0.3211669921875;0.4964496000532693;11.203740559632399;13.348893772848609;1.9384765625;-0.48095703125;0.86767578125;73.0;105.25;34.0625;
1441975365363921;-0.63006591796875;0.2769775390625;-0.64080810546875;-0.3402099609375;0.5198617717390148;11.722766607448067;12.686926110020762;0.95361328125;1.84619140625;-0.92822265625;200.25;-5.3125;-38.125;
1441975365384923;-0.63018798828125;0.2833251953125;-0.62890625;-0.35662841796875;0.5942872028803174;12.20295496005069;12.102781040908777;1.62646484375;0.4462890625;0.0595703125;-140.6875;-36.3125;-41.25;
1441975365415924;-0.63519287109375;0.27935791015625;-0.62109375;-0.36444091796875;0.6992200516098909;12.613779467094352;11.672880185253248;1.68212890625;-0.05126953125;-0.09033203125;-101.4375;-27.0625;-64.625;
1441975365431925;-0.64068603515625;0.27337646484375;-0.6142578125;-0.370849609375;0.8190003747825666;12.899818137539418;11.382809822033;1.50439453125;0.3984375;-0.17822265625;-18.75;-8.75;-51.0;
1441975365447926;-0.64544677734375;0.27001953125;-0.60693359375;-0.37713623046875;0.923293398879774;13.12242589298578;11.144850715716366;1.53271484375;0.431640625;-0.23828125;-4.625;-1.6875;-52.0625;
1441975365468927;-0.65069580078125;0.2642822265625;-0.60125732421875;-0.38116455078125;1.029677047060782;13.282688333987686;10.989966329235305;1.62109375;0.30419921875;-0.27880859375;-16.375;-4.4375;-54.5625;
1441975365483928;-0.6561279296875;0.25628662109375;-0.59771728515625;-0.38299560546875;1.1323058459958002;13.386689307329288;10.911801088003457;1.59912109375;0.27490234375;-0.201171875;5.1875;-4.75;-56.625;
1441975365504929;-0.66192626953125;0.2467041015625;-0.595703125;-0.38238525390625;1.2256461701818426;13.472048940528214;10.8704449867193;1.54541015625;0.19921875;-0.197265625;24.5;2.875;-59.8125;
1441975365528931;-0.66632080078125;0.23602294921875;-0.5970458984375;-0.37945556640625;1.29332076975551;13.490272349397204;10.912316935031429;1.42529296875;0.1328125;-0.21630859375;41.625;8.0;-59.0625;
1441975365543932;-0.66961669921875;0.22833251953125;-0.599365234375;-0.37457275390625;1.3174545607381065;13.512302517916892;10.9464141629581;1.287109375;0.24169921875;-0.16796875;56.5;21.0;-37.25;
1441975365564933;-0.6717529296875;0.22711181640625;-0.60101318359375;-0.36871337890625;1.2852783427185452;13.572969744980458;10.918440684428766;1.12744140625;0.22216796875;-0.17919921875;52.25;20.125;-14.875;
1441975365587934;-0.67266845703125;0.23065185546875;-0.6025390625;-0.3624267578125;1.211748011115164;13.65395569344387;10.851805836432534;1.0625;0.17626953125;-0.2197265625;30.0625;8.5625;11.625;
1441975365605935;-0.673828125;0.23370361328125;-0.60443115234375;-0.3551025390625;1.134855621516629;13.751095661102703;10.775676951921566;1.0576171875;0.08447265625;-0.20458984375;12.9375;0.0625;27.5625;
1441975365624936;-0.67535400390625;0.2344970703125;-0.60736083984375;-0.3465576171875;1.0635632231749341;13.843873830501458;10.719129631523138;1.04345703125;0.02783203125;-0.1513671875;20.1875;-3.375;26.9375;
1441975365647938;-0.67657470703125;0.234619140625;-0.61163330078125;-0.33642578125;0.979621330866562;13.931316550951824;10.677978213492326;1.01806640625;0.02294921875;-0.1015625;36.0625;-1.4375;25.0625;
1441975365665939;-0.67852783203125;0.23382568359375;-0.61663818359375;-0.32354736328125;0.884061313710495;14.065659392644692;10.605884069155127;0.9755859375;-0.0146484375;-0.044921875;46.4375;-0.3125;30.0;
1441975365684940;-0.68121337890625;0.23199462890625;-0.62225341796875;-0.308349609375;0.7822253574920409;14.257926428365236;10.49045813597293;0.94677734375;0.00341796875;-0.05029296875;62.5;-1.5;39.3125;
1441975365707941;-0.684326171875;0.22967529296875;-0.62811279296875;-0.29071044921875;0.6727080807224913;14.550830318143776;10.286323159248797;0.9482421875;-0.001953125;-0.04345703125;77.75;-3.9375;44.625;
1441975365732942;-0.687255859375;0.2265625;-0.6343994140625;-0.27197265625;0.5648456028468082;14.933332661349805;9.999994037842386;0.9326171875;-0.03759765625;-0.03173828125;89.875;-8.0;50.0625;
1441975365755944;-0.69085693359375;0.220947265625;-0.64031982421875;-0.2530517578125;0.48524612919781784;15.39870259379997;9.641342091232124;0.953125;-0.0615234375;0.015625;98.0;-9.5625;51.6875;
1441975365767944;-0.69415283203125;0.21435546875;-0.64654541015625;-0.23291015625;0.4140952113726275;16.012896811784866;9.142199893596077;0.9560546875;-0.0322265625;0.07080078125;108.0;-7.75;49.6875;
1441975365783945;-0.6968994140625;0.20733642578125;-0.65301513671875;-0.21209716796875;0.35771924408976596;16.82739657339291;8.446542850381533;0.94287109375;0.0546875;0.09130859375;116.9375;-5.8125;52.5625;
1441975365804947;-0.698974609375;0.19921875;-0.65997314453125;-0.1903076171875;0.324204347740804;17.843790294446407;7.556777078351528;0.99609375;0.06005859375;0.1103515625;120.25;-3.75;54.9375;
1441975365827948;-0.70001220703125;0.189697265625;-0.66766357421875;-0.168212890625;0.3146871162848625;0.9462581960747098;6.58724197903829;1.013671875;0.06396484375;0.10498046875;128.4375;1.1875;56.1875;
1441975365858950;-0.698974609375;0.18157958984375;-0.6761474609375;-0.14642333984375;0.3396715423567729;2.1794118940917846;5.479000662858665;0.9990234375;0.11279296875;0.1376953125;134.5;8.8125;54.8125;
1441975365864950;-0.69622802734375;0.17626953125;-0.68426513671875;-0.12646484375;0.415125397885695;3.2062397537771306;4.556875295035381;0.9921875;0.2880859375;0.1904296875;126.8125;17.9375;65.625;
1441975365887951;-0.69183349609375;0.17010498046875;-0.69287109375;-0.11138916015625;0.4759651994217212;3.97607126560062;3.874831465180185;1.00439453125;0.3515625;0.14501953125;106.75;23.625;72.625;
1441975365911953;-0.68603515625;0.1651611328125;-0.7020263671875;-0.09649658203125;0.5714827605380484;4.621727563629147;3.310740566357851;0.94677734375;0.318359375;0.150390625;89.375;28.875;73.0;
1441975365924953;-0.67999267578125;0.15972900390625;-0.7110595703125;-0.08135986328125;0.6834496766762854;5.089587414724081;2.9271635772558833;0.900390625;0.28564453125;0.17333984375;83.125;35.4375;77.25;
1441975365955955;-0.67376708984375;0.155029296875;-0.71929931640625;-0.06805419921875;0.7961098902832612;5.426722027017243;2.663476833897005;0.91650390625;0.36279296875;0.13916015625;85.1875;39.875;82.6875;
1441975365971956;-0.66796875;0.15325927734375;-0.72607421875;-0.056884765625;0.9127836281307312;5.625693145335681;2.517060019164096;0.8798828125;0.45654296875;0.1298828125;73.375;40.6875;85.25;
1441975365992957;-0.6622314453125;0.15496826171875;-0.7315673828125;-0.04803466796875;1.034038304012904;5.7336372744889035;2.4376923802583463;0.80322265625;0.48828125;0.11376953125;51.125;35.875;88.75;
1441975366007958;-0.6571044921875;0.1591796875;-0.7357177734375;-0.04095458984375;1.1523044455323408;5.77224525662315;2.4100699994778885;0.8125;0.4384765625;0.15576171875;25.875;30.0625;90.0625;
1441975366023959;-0.6533203125;0.16259765625;-0.73858642578125;-0.03570556640625;1.2411472616509047;5.789556831524596;2.3996138336751267;0.8876953125;0.34228515625;0.15869140625;7.75;23.6875;85.875;
1441975366044960;-0.649658203125;0.1654052734375;-0.74139404296875;-0.03265380859375;1.3102674222417474;5.8271229136991955;2.36254188800639;0.92041015625;0.2333984375;0.17626953125;3.375;15.25;67.8125;
1441975366067962;-0.6473388671875;0.16912841796875;-0.7425537109375;-0.031982421875;1.3559539735821355;5.826868918030968;2.3498026237929173;0.8046875;0.166015625;0.2421875;-3.125;11.6875;50.1875;
1441975366085963;-0.64666748046875;0.17535400390625;-0.74163818359375;-0.03302001953125;1.3898461725811213;5.758840102658759;2.3875660063123725;0.6708984375;0.11279296875;0.2626953125;-17.5;-0.1875;36.625;
1441975366104964;-0.64874267578125;0.185791015625;-0.73699951171875;-0.0389404296875;1.391639748711261;5.5897035555452526;2.4891273327449563;0.58447265625;0.12548828125;0.208984375;-35.375;-10.625;36.375;
1441975366135966;-0.65313720703125;0.19720458984375;-0.7296142578125;-0.04779052734375;1.363200974336738;5.352905568094155;2.6423582213647423;0.6005859375;0.12744140625;0.1708984375;-73.9375;-29.4375;28.75;
1441975366143966;-0.65960693359375;0.20867919921875;-0.71978759765625;-0.05767822265625;1.320015258083919;5.040017463836412;2.867067447356685;0.61181640625;0.05126953125;0.16455078125;-90.9375;-47.375;11.875;
1441975366166967;-0.668212890625;0.21942138671875;-0.7076416015625;-0.068603515625;1.2656232640851757;4.641368899751472;3.1762614136283998;0.5810546875;0.05908203125;0.11181640625;-96.375;-61.25;4.75;
1441975366187968;-0.67755126953125;0.23138427734375;-0.69366455078125;-0.07940673828125;1.2407196373353009;4.164079614123289;3.55886728361674;0.6181640625;0.0947265625;0.02294921875;-97.9375;-72.8125;-2.6875;
1441975366203969;-0.6876220703125;0.243408203125;-0.677978515625;-0.09130859375;1.2372777854858912;3.630005603324598;3.9927917950246603;0.6630859375;0.07421875;-0.06689453125;-103.5625;-81.75;-11.6875;
1441975366226971;-0.6978759765625;0.255126953125;-0.6611328125;-0.10394287109375;1.2632247679314392;3.0769870971599027;4.4429962965829874;0.68359375;0.048828125;-0.166015625;-109.75;-88.3125;-18.0625;
1441975366248972;-0.70782470703125;0.2647705078125;-0.64453125;-0.11639404296875;1.309881983294713;2.557879188445133;4.868059907881232;0.7275390625;-0.029296875;-0.2666015625;-112.75;-91.6875;-24.0;
1441975366263973;-0.71868896484375;0.27227783203125;-0.62701416015625;-0.12744140625;1.3923176024126962;2.056243617857277;5.289436762514043;0.79736328125;-0.1708984375;-0.38720703125;-103.9375;-87.125;-33.5625;
1441975366292975;-0.7288818359375;0.2767333984375;-0.61114501953125;-0.1368408203125;1.4856599806403028;1.6381699605505806;5.646643756431502;0.83935546875;-0.22119140625;-0.46826171875;-89.125;-78.3125;-44.5625;
1441975366308975;-0.73828125;0.27886962890625;-0.59661865234375;-0.145751953125;1.5801190767615736;1.278667802765261;5.9567847497376105;0.92236328125;-0.2392578125;-0.5703125;-70.125;-65.75;-50.5;
1441975366323976;-0.74658203125;0.28033447265625;-0.58331298828125;-0.15460205078125;1.6756231307894685;0.9744759743740341;6.214512711505322;1.0;-0.26123046875;-0.69091796875;-58.625;-51.875;-58.375;
1441975366346978;-0.753662109375;0.28143310546875;-0.5714111328125;-0.162353515625;1.770999141565866;0.7321718306612013;6.416182209977826;0.97216796875;-0.3115234375;-0.7998046875;-56.75;-36.375;-63.1875;
1441975366367979;-0.759765625;0.28094482421875;-0.5616455078125;-0.16864013671875;1.853329002254709;0.5378452312301317;6.583165416571923;0.86083984375;-0.40478515625;-0.8134765625;-53.3125;-26.5;-66.3125;
1441975366383980;-0.7650146484375;0.27764892578125;-0.55499267578125;-0.17236328125;1.9124458480420736;0.38999377401163005;6.727497465091152;0.814453125;-0.4423828125;-0.7421875;-41.875;-20.0625;-68.0625;
1441975366408981;-0.77020263671875;0.27191162109375;-0.54998779296875;-0.17437744140625;1.961067312125533;0.2605501332917666;6.871672549633546;0.806640625;-0.44775390625;-0.65576171875;-19.0;-11.4375;-68.25;
1441975366435983;-0.77587890625;0.265625;-0.54473876953125;-0.17547607421875;2.0206782430848764;0.1418403470622983;7.011170060526083;0.783203125;-0.32666015625;-0.591796875;0.5625;-8.625;-64.875;
1441975366443983;-0.78179931640625;0.26080322265625;-0.5382080078125;-0.1766357421875;2.099918546504847;0.03633437062180867;7.130190818231349;0.77734375;-0.20654296875;-0.61572265625;8.3125;-11.25;-58.0625;
1441975366466984;-0.78759765625;0.25762939453125;-0.5308837890625;-0.17779541015625;2.1915694744331504;17.949960622873675;7.2224732220796515;0.7841796875;-0.18798828125;-0.63427734375;1.375;-19.0;-52.5625;
1441975366490986;-0.79327392578125;0.2540283203125;-0.52374267578125;-0.17889404296875;2.2821539754012043;17.868992653268492;7.311363299250791;0.80908203125;-0.19921875;-0.58544921875;-5.6875;-28.8125;-47.4375;
1441975366503987;-0.79888916015625;0.24951171875;-0.51702880859375;-0.17962646484375;2.369805641793188;17.793171329600213;7.400645707884061;0.8349609375;-0.154296875;-0.53955078125;-3.5;-32.0625;-46.0625;
1441975366526988;-0.804443359375;0.2449951171875;-0.510498046875;-0.17987060546875;2.458222201401227;17.72931526987631;7.480088083948771;0.8427734375;-0.12646484375;-0.5263671875;1.625;-31.5625;-47.8125;
1441975366550989;-0.80902099609375;0.24053955078125;-0.50506591796875;-0.18060302734375;2.530745769585339;17.669259893586926;7.5537627237169245;0.82861328125;-0.119140625;-0.5068359375;4.0;-32.875;-46.125;
1441975366563990;-0.8138427734375;0.23541259765625;-0.49969482421875;-0.1807861328125;2.6059149531668186;17.614171013889937;7.62773125589598;0.826171875;-0.12353515625;-0.49560546875;1.25;-26.1875;-45.4375;
1441975366586991;-0.81768798828125;0.2313232421875;-0.4947509765625;-0.18194580078125;2.67123789871237;17.56073808528341;7.691411875661338;0.85693359375;-0.1142578125;-0.49755859375;6.0625;-27.9375;-47.125;
1441975366610993;-0.82183837890625;0.22686767578125;-0.4893798828125;-0.18341064453125;2.742866765246617;17.50361597358813;7.758901326645095;0.8955078125;-0.06884765625;-0.4931640625;-0.875;-25.1875;-41.4375;
1441975366623993;-0.82635498046875;0.220947265625;-0.4840087890625;-0.18463134765625;2.817807584542245;17.442856396711157;7.837330072048071;0.9208984375;-0.03466796875;-0.49853515625;-0.8125;-28.625;-43.5625;
1441975366646995;-0.83135986328125;0.2142333984375;-0.478515625;-0.18463134765625;2.8997620052518114;17.39299149206818;7.913428595353587;0.90283203125;-0.02783203125;-0.45166015625;4.625;-31.5625;-50.375;
1441975366667996;-0.83636474609375;0.2071533203125;-0.4727783203125;-0.184814453125;2.985150169869733;17.34238681214145;7.990801652805245;0.85791015625;-0.0283203125;-0.43994140625;12.875;-34.375;-51.875;
1441975366684997;-0.841796875;0.19927978515625;-0.46649169921875;-0.1846923828125;3.080203348416645;17.293465939267634;8.070880124912415;0.833984375;0.03662109375;-0.431640625;14.6875;-35.1875;-51.0;
1441975366722999;-0.84735107421875;0.19171142578125;-0.45941162109375;-0.18524169921875;3.184475825532815;17.243226533982703;8.147682329029271;0.81103515625;0.10791015625;-0.4638671875;20.0;-37.3125;-51.1875;
1441975366727999;-0.85186767578125;0.18511962890625;-0.45269775390625;-0.18756103515625;3.2789345229697364;17.185314993076425;8.22035784634184;0.81591796875;0.158203125;-0.49658203125;15.875;-39.875;-50.0625;
1441975366753001;-0.85595703125;0.17889404296875;-0.4461669921875;-0.19073486328125;3.370037886842295;17.124872966530102;8.290382190817045;0.86083984375;0.1748046875;-0.4873046875;5.0;-37.5;-49.0625;
1441975366783003;-0.85968017578125;0.17254638671875;-0.44000244140625;-0.1942138671875;3.457072012441954;17.064292902084315;8.359842032723675;0.875;0.17236328125;-0.5263671875;-1.625;-34.1875;-50.25;
1441975366812004;-0.86297607421875;0.1669921875;-0.4342041015625;-0.1973876953125;3.5387823806306735;17.012748528757484;8.418238140528853;0.85400390625;0.1845703125;-0.52734375;-3.0;-31.3125;-50.625;
1441975366814004;-0.86590576171875;0.162109375;-0.4288330078125;-0.20037841796875;3.6145059056253666;16.967771827777057;8.46816382300109;0.8271484375;0.16796875;-0.52294921875;-4.5625;-29.0625;-46.8125;
1441975366833005;-0.8690185546875;0.1558837890625;-0.42364501953125;-0.202880859375;3.6921479772643253;16.923243349642693;8.525615342078709;0.8076171875;0.154296875;-0.5439453125;-6.375;-26.0;-43.4375;
1441975366848006;-0.87200927734375;0.14910888671875;-0.4185791015625;-0.20556640625;3.7698979201777303;16.876801186294834;8.586549905238197;0.78857421875;0.21337890625;-0.59228515625;0.9375;-21.75;-46.3125;
1441975366864007;-0.87530517578125;0.14111328125;-0.41363525390625;-0.207275390625;3.8508887620561643;16.83596736293523;8.651522569141987;0.80078125;0.1728515625;-0.60205078125;-1.0;-20.25;-52.4375;
1441975366887008;-0.87908935546875;0.13262939453125;-0.40789794921875;-0.2080078125;3.943866195875045;16.804309206774224;8.713192168686959;0.75439453125;0.18310546875;-0.5810546875;7.625;-20.25;-55.6875;
1441975366908010;-0.882080078125;0.125244140625;-0.402099609375;-0.21136474609375;4.033896724540796;16.757000350353504;8.774207558266141;0.72021484375;0.2294921875;-0.62646484375;14.25;-22.6875;-54.625;
1441975366932011;-0.88421630859375;0.11907958984375;-0.3975830078125;-0.21441650390625;4.105190710093325;16.71658654281813;8.825036125782447;0.724609375;0.2353515625;-0.60888671875;-2.4375;-22.1875;-55.5;
1441975366947012;-0.88671875;0.1129150390625;-0.39300537109375;-0.2159423828125;4.178426763309786;16.690049802253707;8.868773696387473;0.7060546875;0.18994140625;-0.56640625;-5.375;-17.25;-49.375;
1441975366968013;-0.88934326171875;0.10723876953125;-0.38677978515625;-0.21929931640625;4.270082510230662;16.65384494618643;8.91085100072715;0.71142578125;0.20361328125;-0.6484375;1.5;-16.125;-45.9375;
1441975366992014;-0.89141845703125;0.101806640625;-0.38055419921875;-0.22418212890625;4.360917450944692;16.60770756797899;8.954821071980788;0.7265625;0.3193359375;-0.71875;-6.8125;-22.3125;-45.1875;
1441975367007015;-0.89361572265625;0.096435546875;-0.37432861328125;-0.22833251953125;4.452253969732366;16.56908661149635;8.994240506376167;0.7392578125;0.29296875;-0.6474609375;-16.25;-25.125;-49.4375;
1441975367028017;-0.89593505859375;0.09014892578125;-0.3681640625;-0.231689453125;4.54574021865589;16.5351695586752;9.036432718272113;0.70751953125;0.2431640625;-0.65576171875;-15.3125;-24.875;-50.375;
1441975367051018;-0.89825439453125;0.08294677734375;-0.36285400390625;-0.23388671875;4.632263790378833;16.507651578138958;9.082070803875034;0.6884765625;0.26171875;-0.6494140625;-8.3125;-24.5625;-52.625;
1441975367066019;-0.9007568359375;0.07464599609375;-0.35748291015625;-0.2353515625;4.722934311598177;16.48403704599728;9.131908594819919;0.66796875;0.275390625;-0.6181640625;0.5625;-20.9375;-53.25;
1441975367088020;-0.9031982421875;0.0660400390625;-0.35198974609375;-0.23687744140625;4.816182034184132;16.46061010864017;9.18260064643186;0.6220703125;0.3056640625;-0.63671875;7.5;-18.5;-55.9375;
1441975367111021;-0.90533447265625;0.057373046875;-0.3468017578125;-0.2386474609375;4.906281588627288;16.435885136133436;9.233993324018606;0.5986328125;0.34765625;-0.654296875;8.8125;-17.25;-55.6875;
1441975367126022;-0.9078369140625;0.04730224609375;-0.3416748046875;-0.2386474609375;4.99928604414003;16.42181099423294;9.289176666800728;0.5966796875;0.3359375;-0.6337890625;7.1875;-16.75;-57.25;
1441975367148023;-0.90960693359375;0.03948974609375;-0.3370361328125;-0.23992919921875;5.080033128173153;16.403655062750122;9.333013348885322;0.55224609375;0.38330078125;-0.62353515625;21.8125;-14.9375;-58.3125;
1441975367171025;-0.91021728515625;0.034912109375;-0.333251953125;-0.2435302734375;5.141910940207016;16.374971337414873;9.362860602248267;0.52978515625;0.3623046875;-0.60205078125;9.0;-14.1875;-49.25;
1441975367187026;-0.91064453125;0.03106689453125;-0.3306884765625;-0.245849609375;5.186380015071187;16.355130362915375;9.38730657246096;0.5576171875;0.3525390625;-0.58203125;-10.875;-14.0625;-37.125;
1441975367208027;-0.9112548828125;0.0262451171875;-0.32904052734375;-0.2464599609375;5.222482892168146;16.344058479373647;9.415904301867789;0.6015625;0.3271484375;-0.57958984375;-6.6875;-11.3125;-32.125;
1441975367224028;-0.911376953125;0.0203857421875;-0.32916259765625;-0.24639892578125;5.241214289514305;16.33235420759178;9.453954655362642;0.6435546875;0.35205078125;-0.58056640625;5.1875;-7.875;-32.875;
1441975367246029;-0.9111328125;0.0145263671875;-0.329833984375;-0.24676513671875;5.254202513523211;16.316611525828087;9.494366447208836;0.68994140625;0.4541015625;-0.55810546875;15.625;0.5;-32.0;
1441975367268030;-0.9100341796875;0.01080322265625;-0.33050537109375;-0.25018310546875;5.263541889542622;16.283788017585966;9.528141797273966;0.7099609375;0.49072265625;-0.59521484375;13.375;4.625;-31.5;
1441975367291032;-0.90802001953125;0.009033203125;-0.33209228515625;-0.25537109375;5.257972499108327;16.24033233548867;9.556086265175262;0.71533203125;0.53857421875;-0.5986328125;-6.4375;3.75;-24.4375;
1441975367306032;-0.9058837890625;0.00762939453125;-0.3338623046875;-0.2607421875;5.249881571683683;16.19583238226865;9.58271515148806;0.74951171875;0.4931640625;-0.5849609375;-23.0;5.5;-19.5;
1441975367328034;-0.904052734375;0.005859375;-0.33563232421875;-0.2647705078125;5.24176149972606;16.159816369678964;9.60870643294925;0.7236328125;0.4658203125;-0.57080078125;-25.9375;7.4375;-18.75;
1441975367351035;-0.9027099609375;0.00299072265625;-0.3367919921875;-0.267822265625;5.243787159851866;16.129864609000887;9.637673961855267;0.7041015625;0.416015625;-0.5380859375;-19.6875;7.0625;-19.8125;
1441975367366036;-0.9014892578125;-6.103515625E-5;-0.3380126953125;-0.2705078125;5.245895451951195;16.102113298671966;9.66704105012731;0.65869140625;0.44287109375;-0.548828125;-11.125;7.3125;-22.375;
1441975367390037;-0.90020751953125;-0.00286865234375;-0.33966064453125;-0.2725830078125;5.241526017988801;16.077898383644154;9.69483971795164;0.603515625;0.455078125;-0.5634765625;-9.375;11.0625;-20.125;
1441975367411038;-0.8990478515625;-0.005615234375;-0.34173583984375;-0.2738037109375;5.231240312206925;16.058784777637115;9.721561322296683;0.58740234375;0.46240234375;-0.58837890625;-7.3125;14.8125;-16.4375;
1441975367433040;-0.898193359375;-0.00823974609375;-0.34326171875;-0.27471923828125;5.226349351368531;16.04341285399789;9.745110900854463;0.607421875;0.509765625;-0.6103515625;-2.125;17.0625;-12.9375;
1441975367448041;-0.89715576171875;-0.0103759765625;-0.344970703125;-0.27581787109375;5.217771791193709;16.026997428066615;9.766738155030893;0.615234375;0.54150390625;-0.646484375;-0.4375;15.125;-11.0;
1441975367471042;-0.89630126953125;-0.01251220703125;-0.34686279296875;-0.27606201171875;5.205851619936703;16.016067757692053;9.786987912263044;0.6279296875;0.5673828125;-0.58447265625;0.625;12.1875;-8.125;
1441975367486043;-0.89556884765625;-0.013916015625;-0.34765625;-0.2774658203125;5.20536872551402;16.00134629190707;9.801766446384711;0.62646484375;0.57763671875;-0.6025390625;4.8125;14.0625;-6.0625;
1441975367509044;-0.894775390625;-0.0135498046875;-0.3472900390625;-0.28045654296875;5.213172505095644;15.981791558132116;9.805425940646112;0.57470703125;0.59423828125;-0.634765625;-3.0;10.6875;-3.5625;
1441975367525045;-0.89422607421875;-0.01275634765625;-0.34619140625;-0.2835693359375;5.227490245286407;15.964192251727798;9.8042282024927;0.54150390625;0.5751953125;-0.60595703125;-14.6875;2.1875;0.625;
1441975367547046;-0.89422607421875;-0.01251220703125;-0.34375;-0.28656005859375;5.258655010088864;15.95013690487766;9.801649102064859;0.5419921875;0.541015625;-0.6142578125;-17.875;-2.625;-0.0625;
1441975367576048;-0.8948974609375;-0.0126953125;-0.3397216796875;-0.289306640625;5.308573405293153;15.941327911372522;9.795838106226276;0.49072265625;0.53076171875;-0.60791015625;-15.5;-7.875;-4.125;
1441975367591049;-0.89581298828125;-0.0125732421875;-0.33489990234375;-0.2919921875;5.365546914649757;15.935368279113948;9.785482453375048;0.42578125;0.5048828125;-0.6103515625;-13.6875;-14.125;-7.4375;
1441975367607050;-0.89691162109375;-0.01220703125;-0.33074951171875;-0.29339599609375;5.411935544779949;15.936997760662928;9.772926717740738;0.40478515625;0.51123046875;-0.59765625;-12.375;-19.0625;-6.375;
1441975367636051;-0.8983154296875;-0.01177978515625;-0.3267822265625;-0.29351806640625;5.453795470894936;15.946940263864015;9.757935107086457;0.41455078125;0.4794921875;-0.56201171875;-6.6875;-18.75;-3.4375;
1441975367651052;-0.899658203125;-0.011474609375;-0.3232421875;-0.29345703125;5.491353899637634;15.956799014573061;9.744741827811126;0.416015625;0.46826171875;-0.57958984375;-0.3125;-18.1875;-1.25;
1441975367667053;-0.900634765625;-0.010986328125;-0.32025146484375;-0.293701171875;5.522485509993584;15.963183871981364;9.733024872795529;0.443359375;0.52001953125;-0.5615234375;3.5625;-18.125;0.1875;
1441975367696055;-0.90118408203125;-0.010498046875;-0.31793212890625;-0.29449462890625;5.547132153872469;15.964039869301217;9.724625583385105;0.4853515625;0.55224609375;-0.5615234375;3.0625;-16.8125;0.9375;
1441975367735057;-0.90130615234375;-0.00982666015625;-0.31671142578125;-0.29559326171875;5.559600094239835;15.960579885452015;9.719049341945048;0.5283203125;0.6103515625;-0.56689453125;1.125;-14.25;1.625;
1441975367738057;-0.90118408203125;-0.0089111328125;-0.31634521484375;-0.29632568359375;5.560913217782735;15.95784611270515;9.713924185970695;0.5751953125;0.6220703125;-0.57080078125;-0.75;-10.375;2.4375;
1441975367748058;-0.90081787109375;-0.00750732421875;-0.316650390625;-0.297119140625;5.552933250170522;15.953920653033368;9.707994614582926;0.60400390625;0.64013671875;-0.5830078125;0.375;-6.5625;5.0625;
1441975367765059;-0.89996337890625;-0.00555419921875;-0.31744384765625;-0.29901123046875;5.539101779159851;15.942245582659108;9.702489507759678;0.62353515625;0.63134765625;-0.61865234375;-3.0625;-3.0625;8.0;
1441975367786060;-0.8990478515625;-0.003662109375;-0.31903076171875;-0.29998779296875;5.515149518504662;15.934708714344897;9.697999403697224;0.6142578125;0.60986328125;-0.58154296875;-10.3125;-1.25;8.75;
1441975367808061;-0.89794921875;-0.00177001953125;-0.32135009765625;-0.30078125;5.482905374093745;15.926720307588328;9.695395608961782;0.62646484375;0.556640625;-0.609375;-9.4375;3.8125;9.1875;
1441975367833063;-0.89666748046875;-4.2724609375E-4;-0.3240966796875;-0.30181884765625;5.448815975526213;15.915161922801945;9.698009435985322;0.6513671875;0.5654296875;-0.64892578125;-9.625;8.75;10.1875;
1441975367846063;-0.89532470703125;3.662109375E-4;-0.3272705078125;-0.3023681640625;5.411454146919121;15.904767517208988;9.704470102413326;0.6630859375;0.580078125;-0.65087890625;-10.0;12.375;8.375;
1441975367868065;-0.8939208984375;6.7138671875E-4;-0.33056640625;-0.30279541015625;5.374536024773104;15.893815917454422;9.71425822411435;0.64013671875;0.54296875;-0.640625;-8.0625;16.875;6.25;
1441975367891066;-0.8929443359375;1.8310546875E-4;-0.33319091796875;-0.30291748046875;5.34817682706556;15.885438208800862;9.726046701699316;0.6025390625;0.5244140625;-0.63623046875;-7.25;19.9375;5.375;
1441975367913067;-0.89202880859375;-7.32421875E-4;-0.33526611328125;-0.30322265625;5.329807593556033;15.876137115005404;9.73929501145408;0.55712890625;0.52490234375;-0.62841796875;-3.5625;19.125;2.5625;
1441975367937069;-0.89117431640625;-0.00152587890625;-0.3372802734375;-0.3035888671875;5.311909846661307;15.8668666067348;9.751701269672532;0.5146484375;0.52587890625;-0.5849609375;-1.5;17.25;0.9375;
1441975367951069;-0.89044189453125;-0.002197265625;-0.3389892578125;-0.3037109375;5.296244886278189;15.860093028538468;9.761944680072743;0.490234375;0.5205078125;-0.5556640625;-1.75;16.1875;2.0625;
1441975367966070;-0.88983154296875;-0.00244140625;-0.34051513671875;-0.30389404296875;5.281051607968274;15.85429852383045;9.76899364773295;0.49755859375;0.53955078125;-0.55224609375;0.5625;14.25;3.125;
1441975367988071;-0.88916015625;-0.002197265625;-0.34185791015625;-0.30438232421875;5.2661786941934166;15.847598171525567;9.773200657617071;0.501953125;0.5595703125;-0.556640625;0.375;12.5;5.625;
1441975368004072;-0.88848876953125;-0.001708984375;-0.34307861328125;-0.3048095703125;5.25127611939133;15.84189536269407;9.775478439653469;0.5078125;0.57080078125;-0.55078125;-1.9375;10.25;7.625;
1441975368026074;-0.88812255859375;-6.103515625E-4;-0.3436279296875;-0.30535888671875;5.241468571215919;15.838520488051625;9.77182531598678;0.52490234375;0.6005859375;-0.56201171875;-1.375;9.5;9.4375;
1441975368048075;-0.88751220703125;0.00146484375;-0.34375;-0.30694580078125;5.233617745794152;15.830539571519784;9.76323005772475;0.52734375;0.61474609375;-0.57763671875;-2.75;5.0625;11.5;
1441975368064076;-0.88714599609375;0.0040283203125;-0.34381103515625;-0.3079833984375;5.223394947612978;15.827650475286113;9.750023833507548;0.537109375;0.59521484375;-0.55078125;-10.0625;0.0;12.875;
1441975368086077;-0.8868408203125;0.00738525390625;-0.343505859375;-0.3092041015625;5.213896927599782;15.825899318308588;9.73108648260396;0.55322265625;0.5517578125;-0.53515625;-9.1875;-2.9375;13.5625;
1441975368108078;-0.886474609375;0.01104736328125;-0.34295654296875;-0.3106689453125;5.2058898790262464;15.823468780992377;9.710102486136481;0.560546875;0.55517578125;-0.5654296875;-12.6875;-4.8125;16.6875;
1441975368131080;-0.88592529296875;0.01513671875;-0.342529296875;-0.31256103515625;5.195333274975999;15.818499464918512;9.687880438499885;0.6064453125;0.576171875;-0.5869140625;-14.5625;-7.5;16.5;
1441975368147081;-0.88543701171875;0.0194091796875;-0.342041015625;-0.314208984375;5.184069471902845;15.815717691831386;9.663761715226604;0.630859375;0.5634765625;-0.58203125;-18.4375;-8.5;16.4375;
1441975368168082;-0.88494873046875;0.0238037109375;-0.3421630859375;-0.315185546875;5.16454958079841;15.816455526944774;9.639264704488697;0.63134765625;0.54052734375;-0.5927734375;-18.6875;-8.625;16.9375;
1441975368192083;-0.8846435546875;0.027587890625;-0.3426513671875;-0.3150634765625;5.141949496431008;15.822947592984942;9.61711967420371;0.6337890625;0.5078125;-0.5703125;-15.75;-6.5;18.8125;
1441975368207084;-0.88446044921875;0.03094482421875;-0.34326171875;-0.314697265625;5.11986329663568;15.830412430743337;9.59723086464706;0.6298828125;0.50341796875;-0.57421875;-9.125;-3.875;18.4375;
1441975368228085;-0.88409423828125;0.03424072265625;-0.34442138671875;-0.3140869140625;5.091550105551992;15.838059568612774;9.578949512091077;0.6162109375;0.50146484375;-0.57470703125;-6.625;-1.875;17.75;
1441975368251087;-0.883544921875;0.03753662109375;-0.34649658203125;-0.31304931640625;5.052691398884177;15.846650165974053;9.562490777772998;0.60693359375;0.50048828125;-0.57763671875;-5.5;1.8125;19.75;
1441975368267087;-0.8829345703125;0.04022216796875;-0.349365234375;-0.31121826171875;5.0066193243485;15.857832530937374;9.55040183926547;0.61328125;0.50439453125;-0.5537109375;-2.5;6.1875;22.25;
1441975368290089;-0.88201904296875;0.0426025390625;-0.35235595703125;-0.3101806640625;4.961593934521097;15.862393460369141;9.542617946513163;0.63232421875;0.51513671875;-0.55615234375;3.3125;10.375;22.6875;
1441975368311090;-0.881103515625;0.0447998046875;-0.3548583984375;-0.30950927734375;4.923034641412446;15.865053052732861;9.535363715914848;0.6474609375;0.5185546875;-0.52880859375;1.0625;11.0;19.75;
1441975368327091;-0.8802490234375;0.047607421875;-0.35699462890625;-0.30902099609375;4.886139633600402;15.868717031277816;9.52335052435392;0.630859375;0.50390625;-0.51220703125;-1.125;9.3125;17.5625;
1441975368348092;-0.8797607421875;0.05059814453125;-0.35888671875;-0.3077392578125;4.850283722197478;15.879535216613434;9.506963265271374;0.6142578125;0.47216796875;-0.4970703125;-3.5625;6.375;18.8125;
1441975368388094;-0.87939453125;0.0533447265625;-0.361083984375;-0.30572509765625;4.811264626436194;15.894677883381;9.490956690285056;0.61865234375;0.4541015625;-0.4970703125;0.1875;4.0625;20.4375;
1441975368390094;-0.8790283203125;0.055419921875;-0.36297607421875;-0.30419921875;4.779264640065076;15.905695172481758;9.47948126320596;0.6494140625;0.46240234375;-0.48486328125;5.375;3.9375;20.75;
1441975368411096;-0.87847900390625;0.05780029296875;-0.364501953125;-0.30364990234375;4.751259380024644;15.911142134921878;9.467451624079217;0.66552734375;0.50048828125;-0.498046875;5.3125;3.875;17.4375;
1441975368438097;-0.8778076171875;0.06036376953125;-0.365966796875;-0.3033447265625;4.723257218873463;15.915261951528171;9.454723599855638;0.6630859375;0.48046875;-0.49462890625;-1.1875;2.25;16.0;
1441975368447098;-0.876953125;0.0631103515625;-0.367431640625;-0.3033447265625;4.694560712657619;15.917378474929642;9.441720187384721;0.669921875;0.45654296875;-0.48974609375;-3.875;1.6875;15.1875;
1441975368468099;-0.87628173828125;0.0657958984375;-0.369140625;-0.3026123046875;4.662757730624718;15.924520230193213;9.427606161421643;0.6865234375;0.46142578125;-0.47412109375;-5.0;0.875;15.4375;
1441975368484100;-0.87554931640625;0.068603515625;-0.37109375;-0.30181884765625;4.627755845131367;15.931990487889488;9.41315224944403;0.68017578125;0.43408203125;-0.48291015625;-2.3125;2.25;16.0625;
1441975368508101;-0.87457275390625;0.0714111328125;-0.37359619140625;-0.30084228515625;4.586101902252081;15.939353949108256;9.399979589975572;0.68603515625;0.44140625;-0.47705078125;-1.875;3.375;17.9375;
1441975368528102;-0.87371826171875;0.07415771484375;-0.3763427734375;-0.29937744140625;4.541742061788239;15.950067505282426;9.38624675434878;0.69384765625;0.443359375;-0.45947265625;0.0;5.5;19.5625;
1441975368551104;-0.8724365234375;0.0770263671875;-0.37939453125;-0.2984619140625;4.493531762888567;15.955873286828743;9.374458582510513;0.7060546875;0.435546875;-0.47607421875;1.9375;6.875;20.3125;
1441975368567105;-0.87103271484375;0.07989501953125;-0.38275146484375;-0.29754638671875;4.441890320904823;15.961054404788191;9.363546695947361;0.71533203125;0.45361328125;-0.44921875;-0.1875;8.0625;21.25;
1441975368588106;-0.86932373046875;0.0833740234375;-0.386474609375;-0.296630859375;4.383097817658317;15.96674370990113;9.349673506790998;0.72607421875;0.4580078125;-0.45751953125;-0.125;10.75;22.4375;
1441975368612107;-0.86737060546875;0.0875244140625;-0.3907470703125;-0.295654296875;4.315253289708194;15.973568702619481;9.33254081093086;0.72998046875;0.46240234375;-0.470703125;-2.1875;12.6875;26.75;
1441975368627108;-0.865234375;0.092041015625;-0.3955078125;-0.29425048828125;4.239641458656746;15.983692878382875;9.312800272767745;0.74365234375;0.4609375;-0.44921875;-2.875;14.0625;31.375;
1441975368664110;-0.86273193359375;0.09686279296875;-0.40045166015625;-0.29327392578125;4.160546754601671;15.990859492335321;9.292799957772036;0.75244140625;0.45361328125;-0.45751953125;-1.8125;16.4375;35.125;
1441975368671111;-0.86004638671875;0.10162353515625;-0.40545654296875;-0.29278564453125;4.081397508054198;15.994110795053468;9.274861977853613;0.751953125;0.45556640625;-0.45703125;-5.1875;18.8125;36.8125;
1441975368688111;-0.8572998046875;0.10662841796875;-0.4102783203125;-0.29229736328125;4.002873813417816;15.998751647847651;9.25429155045893;0.7294921875;0.4580078125;-0.4482421875;-7.3125;20.8125;37.375;
1441975368709113;-0.8546142578125;0.11236572265625;-0.41448974609375;-0.29205322265625;3.9283480168999447;16.005813058028963;9.226661287990071;0.72412109375;0.45068359375;-0.45751953125;-8.6875;20.75;38.875;
1441975368731114;-0.851806640625;0.11865234375;-0.418701171875;-0.29180908203125;3.8513481230538633;16.015215519489924;9.19438190805142;0.72119140625;0.45556640625;-0.474609375;-12.4375;18.75;41.625;
1441975368747115;-0.848876953125;0.12530517578125;-0.423095703125;-0.29119873046875;3.7701215036051554;16.02910745755007;9.157803533668238;0.72998046875;0.4541015625;-0.46533203125;-13.3125;17.625;44.6875;
1441975368768116;-0.84564208984375;0.132080078125;-0.42779541015625;-0.29071044921875;3.6845447186047573;16.042240277095743;9.121105484810052;0.74365234375;0.44140625;-0.4677734375;-13.0;18.125;47.4375;
1441975368791117;-0.8421630859375;0.13873291015625;-0.43292236328125;-0.29010009765625;3.5940940681967186;16.05566221639404;9.085470679243466;0.75048828125;0.44287109375;-0.4599609375;-13.9375;20.25;49.1875;
1441975368807118;-0.83880615234375;0.1453857421875;-0.43798828125;-0.2890625;3.504269198296419;16.07438466701602;9.046451982544102;0.759765625;0.4208984375;-0.431640625;-12.75;22.125;49.375;
1441975368828120;-0.83526611328125;0.15228271484375;-0.4429931640625;-0.28814697265625;3.4138295152329796;16.09423976743658;9.004599334653582;0.76513671875;0.416015625;-0.4404296875;-10.875;22.25;50.375;
1441975368858121;-0.83172607421875;0.15966796875;-0.44781494140625;-0.28680419921875;3.3232044347507737;16.12208382297991;8.954367308518217;0.779296875;0.43359375;-0.43603515625;-11.9375;21.875;52.8125;
1441975368867122;-0.82806396484375;0.16748046875;-0.45294189453125;-0.28497314453125;3.2274965106892037;16.157775599864763;8.896893019821315;0.80029296875;0.427734375;-0.453125;-11.5;20.8125;56.3125;
1441975368888123;-0.82421875;0.17547607421875;-0.45867919921875;-0.28204345703125;3.123657093409543;16.205951531018407;8.831273980712268;0.8359375;0.4208984375;-0.4541015625;-10.125;20.9375;59.8125;
1441975368918125;-0.820068359375;0.18365478515625;-0.46527099609375;-0.278076171875;3.0093369536242625;16.26688342536081;8.757141426213519;0.873046875;0.404296875;-0.46630859375;-5.75;23.5625;64.5;
1441975368927125;-0.81561279296875;0.19146728515625;-0.47216796875;-0.27423095703125;2.8931408813442956;16.328484912572417;8.683371567829584;0.89990234375;0.36572265625;-0.46826171875;-1.6875;27.25;67.8125;
1441975368948126;-0.81072998046875;0.19976806640625;-0.47900390625;-0.27093505859375;2.7761055055199115;16.392071632670667;8.602915159377345;0.890625;0.3486328125;-0.4365234375;-0.9375;29.5;67.6875;
1441975368972128;-0.80535888671875;0.208740234375;-0.4857177734375;-0.26824951171875;2.658210810293867;16.45884382643828;8.513475350280023;0.88037109375;0.31591796875;-0.400390625;-5.375;29.0625;68.0;
1441975368986129;-0.79974365234375;0.2183837890625;-0.49237060546875;-0.2652587890625;2.5400500510084756;16.54040243868726;8.407493702704471;0.87451171875;0.27197265625;-0.3994140625;-11.8125;30.3125;68.625;
1441975369010130;-0.79449462890625;0.22747802734375;-0.4990234375;-0.2608642578125;2.4274561384208675;16.643513431412778;8.288182366882854;0.873046875;0.18310546875;-0.39501953125;-14.75;30.0625;68.4375;
1441975369031131;-0.78985595703125;0.2352294921875;-0.50579833984375;-0.25506591796875;2.3230491276655383;16.76389868034807;8.163360381162883;0.87890625;0.1064453125;-0.3642578125;-7.4375;26.375;66.125;
1441975369055132;-0.785400390625;0.24176025390625;-0.51275634765625;-0.24871826171875;2.223753122037109;16.89200942162693;8.038199289388539;0.89697265625;0.091796875;-0.36376953125;4.25;26.0;63.5625;
1441975369070133;-0.78118896484375;0.24761962890625;-0.51910400390625;-0.24310302734375;2.1361517688757528;17.01555494649692;7.916824903963565;0.94384765625;0.09765625;-0.3759765625;11.25;27.3125;60.9375;
1441975369098135;-0.77716064453125;0.253173828125;-0.52459716796875;-0.23834228515625;2.0610157040388044;17.13376535403685;7.797687464683593;0.96484375;0.111328125;-0.3759765625;10.3125;26.3125;56.6875;
1441975369106135;-0.77313232421875;0.2587890625;-0.52960205078125;-0.23431396484375;1.9931782432012535;17.250333887245862;7.676431181281831;0.97021484375;0.103515625;-0.38330078125;6.5;24.3125;52.25;
1441975369129137;-0.76898193359375;0.26434326171875;-0.534423828125;-0.230712890625;1.9290770669580664;17.368083754984813;7.552151543597911;0.984375;0.07568359375;-0.3671875;2.3125;22.375;48.5;
