1441975655716529;0.25677490234375;-0.67047119140625;-0.56268310546875;-0.409912109375;14.698691025900322;13.662150013224744;17.380138884320292;-2.7802734375;1.01416015625;-0.14990234375;50.625;95.625;455.9375;
1441975655739530;0.23028564453125;-0.6790771484375;-0.59857177734375;-0.3572998046875;13.95396673814075;13.624632101428267;17.489789829881108;-2.85498046875;0.35546875;0.1025390625;-160.75;115.75;410.6875;
1441975655753531;0.19696044921875;-0.700439453125;-0.6055908203125;-0.32232666015625;13.363528903284047;13.73289041380841;17.544972003503037;-2.6259765625;-0.052734375;0.13671875;-125.625;84.25;368.75;
1441975655776532;0.1649169921875;-0.72149658203125;-0.6029052734375;-0.29803466796875;12.896708758899608;13.852502546553014;17.55089051536986;-2.6533203125;-0.55322265625;0.02880859375;67.9375;56.375;292.625;
1441975655799533;0.146484375;-0.729248046875;-0.6114501953125;-0.27020263671875;12.496978432030886;13.872899572554712;17.59038984840693;-2.43603515625;-0.11083984375;-0.00927734375;115.625;28.0625;231.875;
1441975655813534;0.14019775390625;-0.7225341796875;-0.63458251953125;-0.236083984375;12.126640746090153;13.779522989500174;17.674127982104267;-1.95458984375;-0.3681640625;0.15185546875;-3.1875;56.6875;194.3125;
1441975655835535;0.14239501953125;-0.7034912109375;-0.66748046875;-0.198486328125;11.798952420328105;13.598145390675683;17.790176442584535;-1.56591796875;-0.51416015625;0.2099609375;-139.125;90.8125;176.3125;
1441975655859537;0.14776611328125;-0.6728515625;-0.7059326171875;-0.1646728515625;11.548133988605391;13.338406483774124;17.893200661426114;-1.392578125;-0.533203125;0.275390625;-239.1875;111.6875;156.8125;
1441975655873538;0.1513671875;-0.64080810546875;-0.74078369140625;-0.13323974609375;11.326591567767935;13.083925810915074;17.989370029378577;-1.376953125;-0.39892578125;0.08251953125;-304.4375;91.5;151.0;
1441975655896539;0.15374755859375;-0.62335205078125;-0.759033203125;-0.108154296875;11.160604075983878;12.955604383429566;0.08472109672347658;-1.37353515625;-0.52294921875;0.01025390625;-292.6875;74.25;144.1875;
1441975655919540;0.16064453125;-0.62371826171875;-0.75885009765625;-0.09698486328125;11.139279033290762;12.972705720741105;0.16375839178343915;-1.1328125;-0.38720703125;-0.0556640625;-164.0625;69.75;116.9375;
1441975655933541;0.17120361328125;-0.63299560546875;-0.749267578125;-0.0931396484375;11.198983047034956;13.065574486578534;0.23867752236241635;-0.85205078125;-0.0361328125;0.0234375;-9.1875;60.9375;79.0625;
1441975655956542;0.189453125;-0.6373291015625;-0.7410888671875;-0.09368896484375;11.359043924552457;13.136716125903538;0.3214582190931997;-0.7578125;0.47314453125;0.0087890625;61.3125;66.125;18.375;
1441975655979544;0.21502685546875;-0.62799072265625;-0.74169921875;-0.09686279296875;11.614091474933028;13.119517172000908;0.40461627193829514;-0.82861328125;0.85791015625;-0.06982421875;27.75;77.875;-39.8125;
1441975655993544;0.24371337890625;-0.60797119140625;-0.74896240234375;-0.100830078125;11.918304298525632;13.031754722276531;0.4789534654422175;-0.90283203125;1.00439453125;-0.02294921875;-61.9375;83.4375;-90.9375;
1441975656015546;0.27667236328125;-0.58673095703125;-0.75311279296875;-0.1099853515625;12.307612787370449;12.954961969522337;0.5468724345743324;-0.82373046875;0.8779296875;0.09716796875;-122.9375;86.1875;-135.8125;
1441975656039547;0.31292724609375;-0.57080078125;-0.7484130859375;-0.1275634765625;12.787519844712406;12.942520645549227;0.6080202675922792;-0.75927734375;0.75537109375;0.21240234375;-110.6875;91.5;-177.875;
1441975656053548;0.34954833984375;-0.559814453125;-0.73590087890625;-0.1514892578125;13.315906058700508;12.99104816879108;0.6673329882951151;-0.857421875;0.72119140625;0.224609375;-47.0;95.0;-222.1875;
1441975656076549;0.3861083984375;-0.5513916015625;-0.7174072265625;-0.1796875;13.87722044295419;13.090697194234334;0.7382498693766382;-0.98828125;0.69970703125;0.2470703125;11.625;94.0;-247.5;
1441975656099550;0.42474365234375;-0.5401611328125;-0.695068359375;-0.21160888671875;14.498405357952699;13.221408639275754;0.8339206011223687;-0.93115234375;0.89013671875;0.158203125;48.6875;93.9375;-270.6875;
1441975656114551;0.46185302734375;-0.52105712890625;-0.67584228515625;-0.24176025390625;15.118782317786913;13.319164879600883;0.9350050445117137;-1.05224609375;0.87158203125;-0.0556640625;53.8125;94.1875;-303.375;
1441975656144553;0.49658203125;-0.495849609375;-0.66064453125;-0.2667236328125;15.701234376490731;13.388974897934727;1.050621528821856;-1.3408203125;0.73974609375;-0.15185546875;10.0625;75.375;-305.375;
1441975656159554;0.53106689453125;-0.46661376953125;-0.64581298828125;-0.28851318359375;16.27687370453893;13.49464451953799;1.2260806651752236;-1.3251953125;0.69091796875;-0.14599609375;-35.75;62.5625;-290.5625;
1441975656174555;0.563720703125;-0.438232421875;-0.6285400390625;-0.30841064453125;16.822174711930625;13.776189299178531;1.5705389789054665;-1.2490234375;0.41943359375;-0.04150390625;-59.25;65.5;-287.3125;
1441975656196556;0.591796875;-0.41290283203125;-0.61016845703125;-0.32708740234375;17.288439069492256;14.47674573522076;2.3148917990033637;-1.375;0.2421875;-0.0029296875;-52.4375;73.625;-275.5625;
1441975656219557;0.61517333984375;-0.39111328125;-0.5914306640625;-0.34466552734375;17.57722359510792;16.422464216734927;4.285009114433636;-1.44140625;0.109375;0.005859375;-34.1875;70.0;-251.1875;
1441975656233558;0.6329345703125;-0.375;-0.57208251953125;-0.36260986328125;17.496645161657543;0.9981366133076389;6.850991189926533;-1.48095703125;-0.05712890625;0.06982421875;-16.3125;65.875;-224.0625;
1441975656255559;0.64501953125;-0.36505126953125;-0.552001953125;-0.382080078125;17.23319605638766;2.1172507156628613;7.920180073577807;-1.4853515625;-0.0888671875;0.12890625;17.0625;60.6875;-194.9375;
1441975656279561;0.6534423828125;-0.3582763671875;-0.53411865234375;-0.3992919921875;16.976286003453225;2.5752093386864003;8.321749534883681;-1.46044921875;-0.07958984375;0.05126953125;55.6875;53.25;-168.6875;
1441975656293562;0.6597900390625;-0.35296630859375;-0.51910400390625;-0.41314697265625;16.75773484093148;2.808885580440613;8.507072329047245;-1.48828125;0.0068359375;-0.01904296875;61.3125;44.625;-140.0625;
1441975656316563;0.6632080078125;-0.35064697265625;-0.50946044921875;-0.42156982421875;16.6247963707721;2.9064501199061046;8.569909914393673;-1.4697265625;0.08349609375;-0.00927734375;52.0625;37.9375;-115.75;
1441975656339564;0.6661376953125;-0.34912109375;-0.502685546875;-0.42626953125;16.53145764943851;2.941354874721005;8.585348180130808;-1.41748046875;0.1435546875;-0.02587890625;38.1875;35.1875;-93.5625;
1441975656361565;0.6683349609375;-0.34771728515625;-0.49884033203125;-0.428466796875;16.47421423880231;2.9549043829084405;8.592471180381708;-1.35302734375;0.169921875;-0.03955078125;21.875;31.125;-74.3125;
1441975656376566;0.668701171875;-0.34722900390625;-0.49713134765625;-0.43035888671875;16.450548627261533;2.9776938847602796;8.607441315974215;-1.255859375;0.15234375;-0.015625;8.5;24.0625;-56.0;
1441975656399568;0.6666259765625;-0.34814453125;-0.49615478515625;-0.43389892578125;16.449067477311313;3.0313849457989543;8.639052747103658;-1.18212890625;0.10498046875;-0.0048828125;9.4375;13.6875;-38.5625;
1441975656413568;0.66259765625;-0.35150146484375;-0.49603271484375;-0.43743896484375;16.476813378709906;3.0771471825537504;8.651954294961776;-1.1103515625;0.0732421875;-0.0078125;24.0625;2.5;-28.4375;
1441975656435570;0.657470703125;-0.3563232421875;-0.4979248046875;-0.43914794921875;16.539464947505532;3.0990932313421617;8.644414734795905;-1.037109375;0.140625;-0.0283203125;35.0;-2.25;-15.625;
1441975656459571;0.65191650390625;-0.36126708984375;-0.5020751953125;-0.438720703125;16.630029806174292;3.1032851107429194;8.630178474494606;-1.01611328125;0.18212890625;-0.02880859375;31.1875;-6.3125;-0.25;
1441975656473572;0.64556884765625;-0.365966796875;-0.508544921875;-0.436767578125;16.747816950080775;3.1072898739522152;8.62526712146867;-1.0185546875;0.16943359375;-0.0361328125;19.875;-12.875;15.3125;
1441975656495573;0.637939453125;-0.3709716796875;-0.51654052734375;-0.434326171875;16.888709026442037;3.1228048067294005;8.633066998633844;-1.02197265625;0.10888671875;-0.02880859375;9.9375;-21.125;31.375;
1441975656519575;0.62835693359375;-0.377197265625;-0.52569580078125;-0.43194580078125;17.056208919472883;3.155311875269204;8.651760012232359;-1.0224609375;0.029296875;-0.013671875;8.1875;-28.75;47.3125;
1441975656533575;0.61724853515625;-0.385009765625;-0.53570556640625;-0.4287109375;17.249829080383833;3.17007078939949;8.648740215930324;-1.017578125;0.01220703125;0.005859375;14.125;-35.4375;61.5;
1441975656566577;0.60540771484375;-0.3927001953125;-0.547119140625;-0.42425537109375;17.46274847717469;3.1879942717248286;8.654945497195298;-1.07177734375;0.0087890625;-0.03759765625;18.25;-41.3125;77.0;
1441975656579578;0.5916748046875;-0.401123046875;-0.560302734375;-0.4185791015625;17.709082445344546;3.22633073598746;8.682914070959972;-1.123046875;-0.07861328125;-0.06201171875;11.9375;-49.1875;93.9375;
1441975656593579;0.57550048828125;-0.4117431640625;-0.57373046875;-0.41253662109375;17.984283357953;2.9897661523473325;8.424788043694807;-1.107421875;-0.17431640625;-0.0224609375;10.125;-55.5625;112.0;
1441975656616580;0.55682373046875;-0.4254150390625;-0.58660888671875;-0.40606689453125;17.71217979505977;12.451563753958443;17.84917194541699;-1.06201171875;-0.205078125;-0.01025390625;21.5625;-58.25;128.4375;
1441975656639581;0.536376953125;-0.4410400390625;-0.59912109375;-0.39862060546875;17.3860320877074;12.52715315074023;17.87899160668763;-1.0263671875;-0.1708984375;-0.00634765625;37.1875;-56.75;144.5;
1441975656653582;0.5146484375;-0.4571533203125;-0.6119384765625;-0.38946533203125;17.038523979679958;12.587606976873095;17.895157873348857;-1.0244140625;-0.10791015625;-0.015625;45.9375;-55.3125;157.75;
1441975656675583;0.4923095703125;-0.47308349609375;-0.62518310546875;-0.37823486328125;16.674289241331916;12.641040030859363;17.91098464588157;-1.02978515625;-0.044921875;-0.013671875;44.5;-55.125;168.5;
1441975656699585;0.46978759765625;-0.48779296875;-0.6390380859375;-0.36474609375;16.298261615812358;12.678651284350469;17.923103089540636;-0.98828125;-0.00537109375;-0.01806640625;37.625;-53.875;178.25;
1441975656713586;0.4473876953125;-0.501220703125;-0.65325927734375;-0.34930419921875;15.915514185612107;12.70596832878066;17.936462898758666;-0.90576171875;0.013671875;-0.00537109375;25.9375;-52.6875;185.0625;
1441975656735587;0.42529296875;-0.51324462890625;-0.6671142578125;-0.332763671875;15.536136642971249;12.7245619812423;17.94898407965963;-0.837890625;0.0390625;0.001953125;14.5625;-50.6875;189.5;
1441975656759588;0.40411376953125;-0.52392578125;-0.6800537109375;-0.31585693359375;15.171118134461713;12.738927736402943;17.96283572969297;-0.806640625;0.0888671875;0.013671875;7.0;-47.8125;188.1875;
1441975656773589;0.3841552734375;-0.5328369140625;-0.692138671875;-0.29925537109375;14.827708186028966;12.744271134753687;17.97347874016555;-0.7880859375;0.16552734375;0.00439453125;1.5625;-44.25;181.375;
1441975656796590;0.3658447265625;-0.539794921875;-0.70318603515625;-0.28350830078125;14.513791401280546;12.741307342443903;17.981177120332372;-0.765625;0.21826171875;0.0048828125;-4.375;-41.5625;170.5;
1441975656819592;0.349365234375;-0.545166015625;-0.712890625;-0.269287109375;14.234824420545046;12.733646303413357;17.985834834623216;-0.7470703125;0.26318359375;0.00537109375;-10.0625;-39.0;156.0625;
1441975656833592;0.33453369140625;-0.54974365234375;-0.7210693359375;-0.25701904296875;13.990105044443924;12.726312368266294;17.98736330408095;-0.7490234375;0.26611328125;0.02001953125;-11.9375;-35.875;139.1875;
1441975656856594;0.32122802734375;-0.55401611328125;-0.7275390625;-0.24627685546875;13.775104647698251;12.72433721698044;17.989685130857108;-0.7314453125;0.255859375;0.04541015625;-8.9375;-33.0625;122.75;
1441975656879595;0.31146240234375;-0.55767822265625;-0.73150634765625;-0.23870849609375;13.620730012842339;12.728827104973607;17.992375813843744;-0.67724609375;0.2763671875;0.06591796875;-3.8125;-28.6875;107.9375;
1441975656893596;0.30413818359375;-0.5609130859375;-0.73382568359375;-0.2332763671875;13.507525802024768;12.73733154170576;17.995220506604845;-0.6318359375;0.29736328125;0.08203125;2.4375;-22.75;89.375;
1441975656915597;0.29925537109375;-0.56329345703125;-0.735107421875;-0.22979736328125;13.433291433441505;12.7450340231587;17.997139266216976;-0.60498046875;0.31201171875;0.08544921875;6.5625;-16.75;68.3125;
1441975656939599;0.2967529296875;-0.5645751953125;-0.7357177734375;-0.22796630859375;13.394930910786437;12.749615156143276;17.998571401296708;-0.58056640625;0.314453125;0.08837890625;6.4375;-11.75;48.75;
1441975656953599;0.2967529296875;-0.564453125;-0.73583984375;-0.22784423828125;13.394044344382198;12.748640656614551;17.998776651847074;-0.5556640625;0.31591796875;0.0947265625;3.8125;-6.8125;30.4375;
1441975656977601;0.29925537109375;-0.56329345703125;-0.7352294921875;-0.22943115234375;13.430509430600033;12.745362262602033;17.999071659069763;-0.55078125;0.3076171875;0.1015625;0.0625;-2.0625;12.1875;
1441975656999602;0.3040771484375;-0.5611572265625;-0.73394775390625;-0.232421875;13.500445648646101;12.740224534456248;4.0171537467088164E-4;-0.5615234375;0.3017578125;0.09423828125;-3.0625;2.3125;-5.0625;
1441975657013603;0.310791015625;-0.557861328125;-0.73223876953125;-0.23675537109375;13.599509632924136;12.730281052995378;1.3877503401260485E-4;-0.56591796875;0.30126953125;0.08544921875;-5.8125;6.75;-21.625;
1441975657035604;0.31939697265625;-0.5538330078125;-0.729736328125;-0.24249267578125;13.728234439235147;12.719432778255907;17.999466854735044;-0.55615234375;0.3017578125;0.0947265625;-9.375;10.4375;-36.9375;
1441975657058605;0.33026123046875;-0.5491943359375;-0.725830078125;-0.25018310546875;13.895063668922878;12.710426897392642;17.998143362037013;-0.57275390625;0.33642578125;0.09619140625;-10.25;14.375;-53.4375;
1441975657073606;0.3431396484375;-0.543701171875;-0.72052001953125;-0.25994873046875;14.099454526129131;12.700622659936435;17.993329281311592;-0.625;0.35888671875;0.0830078125;-9.0;18.25;-71.8125;
1441975657095607;0.35650634765625;-0.53741455078125;-0.71466064453125;-0.27105712890625;14.320692068930322;12.684097449502723;17.97970084517158;-0.68896484375;0.36572265625;0.07568359375;-7.375;20.75;-89.6875;
1441975657119609;0.37078857421875;-0.53045654296875;-0.70758056640625;-0.28375244140625;14.566131805417717;12.663869169106542;17.958452393373534;-0.7451171875;0.345703125;0.07080078125;-6.125;21.5625;-106.125;
1441975657134610;0.3856201171875;-0.5234375;-0.6988525390625;-0.29833984375;14.834571130024548;12.642786490203113;17.92742253149132;-0.76708984375;0.32275390625;0.0810546875;-3.125;22.0;-118.875;
1441975657155611;0.40081787109375;-0.516357421875;-0.6881103515625;-0.3150634765625;15.12764611330455;12.618993797841348;17.882739964202365;-0.783203125;0.3115234375;0.08935546875;4.9375;22.25;-131.3125;
1441975657179612;0.4158935546875;-0.5089111328125;-0.676025390625;-0.3333740234375;15.435973388322573;12.58286993587349;17.818279974329293;-0.8583984375;0.3017578125;0.06103515625;14.5;21.0;-144.3125;
1441975657193613;0.429931640625;-0.50103759765625;-0.66357421875;-0.3519287109375;15.739588828490769;12.525048446883359;17.729521967891813;-0.9599609375;0.24853515625;0.05419921875;20.8125;17.9375;-152.6875;
1441975657215614;0.4427490234375;-0.49310302734375;-0.65118408203125;-0.36993408203125;16.028602479497334;12.442538752856402;17.61544045917399;-1.03369140625;0.1796875;0.0625;23.0;13.8125;-151.875;
1441975657239616;0.45452880859375;-0.48541259765625;-0.638671875;-0.38726806640625;16.303110558855543;12.332819710389742;17.472851646267785;-1.06982421875;0.134765625;0.07275390625;24.25;10.375;-146.0;
1441975657253616;0.46514892578125;-0.4783935546875;-0.6258544921875;-0.40386962890625;16.560867368764463;12.192001243797815;17.295853755926323;-1.0849609375;0.0888671875;0.08837890625;26.0625;9.5625;-140.6875;
1441975657284618;0.474609375;-0.47210693359375;-0.613037109375;-0.419677734375;16.79843454847109;12.004656639116128;17.06975054207949;-1.08837890625;0.0576171875;0.09716796875;29.5;10.0625;-133.9375;
1441975657299619;0.48309326171875;-0.4661865234375;-0.6007080078125;-0.43414306640625;17.011041822697244;11.747846566232344;16.776155666496038;-1.0732421875;0.04736328125;0.09716796875;33.3125;9.9375;-126.4375;
1441975657313620;0.49066162109375;-0.46038818359375;-0.58966064453125;-0.44677734375;17.189611274623836;11.39244891337057;16.390372065705236;-1.0771484375;0.060546875;0.0947265625;31.625;9.625;-117.875;
1441975657335621;0.49749755859375;-0.4547119140625;-0.58013916015625;-0.4573974609375;17.329645612431655;10.919162870853189;15.894712501746943;-1.0830078125;0.07373046875;0.0908203125;25.625;8.3125;-106.5625;
1441975657358623;0.50341796875;-0.44970703125;-0.572021484375;-0.466064453125;17.428322212825737;10.350229762997024;15.308682880564735;-1.07861328125;0.07080078125;0.0927734375;18.3125;7.0;-93.9375;
1441975657373623;0.5081787109375;-0.4456787109375;-0.56512451171875;-0.47314453125;17.487567179070894;9.740857066865997;14.684271355232594;-1.044921875;0.06640625;0.0947265625;13.5;7.0;-81.0625;
1441975657395625;0.51171875;-0.44305419921875;-0.5592041015625;-0.47882080078125;17.518188746867683;9.186753893329604;14.11449131149341;-1.01171875;0.0625;0.09814453125;12.0625;7.25;-68.4375;
1441975657419626;0.51397705078125;-0.44183349609375;-0.55426025390625;-0.48321533203125;17.53194254325376;8.75602223848632;13.666902886974484;-0.98193359375;0.08056640625;0.08544921875;13.125;7.375;-56.5;
1441975657433627;0.51507568359375;-0.4417724609375;-0.55059814453125;-0.4862060546875;17.538929500055765;8.484482094663443;13.379578630967808;-0.94775390625;0.11474609375;0.07373046875;14.375;6.875;-45.375;
1441975657455628;0.51556396484375;-0.4420166015625;-0.54833984375;-0.48809814453125;17.54169475505584;8.329206836308908;13.21305866885236;-0.94287109375;0.15478515625;0.0546875;13.9375;5.125;-34.5625;
1441975657478629;0.51519775390625;-0.442626953125;-0.54730224609375;-0.4891357421875;17.541990781477026;8.29330623981756;13.168381825891931;-0.9287109375;0.15478515625;0.0537109375;9.8125;2.875;-24.6875;
1441975657493630;0.51397705078125;-0.444091796875;-0.54681396484375;-0.4896240234375;17.54503382753927;8.357641982177887;13.222195486457622;-0.91357421875;0.1513671875;0.07080078125;7.625;1.0625;-15.5625;
1441975657515631;0.511962890625;-0.4462890625;-0.54681396484375;-0.48968505859375;17.54891282507039;8.51224480772233;13.36452986644591;-0.90966796875;0.15380859375;0.072265625;9.8125;0.5;-7.375;
1441975657538633;0.5091552734375;-0.4490966796875;-0.54754638671875;-0.4892578125;17.54972279586862;8.765717571168155;13.605199563513205;-0.908203125;0.14404296875;0.0771484375;11.8125;0.0;0.375;
1441975657553634;0.50579833984375;-0.4525146484375;-0.54888916015625;-0.488037109375;17.54739264572425;9.11125618104494;13.938654371350989;-0.90185546875;0.140625;0.08544921875;12.625;-0.6875;8.5625;
1441975657575635;0.50201416015625;-0.45635986328125;-0.55096435546875;-0.48602294921875;17.53610898367483;9.530615548772998;14.34786084853058;-0.9150390625;0.138671875;0.08203125;12.3125;-1.25;16.6875;
1441975657598636;0.4981689453125;-0.46026611328125;-0.55377197265625;-0.4830322265625;17.513008519798866;9.980855339053985;14.792528245715712;-0.93310546875;0.1328125;0.0703125;10.8125;-1.8125;24.5625;
1441975657613637;0.49407958984375;-0.46429443359375;-0.55743408203125;-0.47918701171875;17.47247931579664;10.433607754015085;15.243570966068216;-0.94140625;0.1181640625;0.0712890625;6.5625;-2.0;32.0;
1441975657635638;0.48968505859375;-0.46875;-0.56146240234375;-0.4747314453125;17.41616801720526;10.857332348374424;15.666303482552962;-0.93994140625;0.10693359375;0.0869140625;3.125;-1.4375;39.875;
1441975657658640;0.4847412109375;-0.47369384765625;-0.56573486328125;-0.4697265625;17.342592791002655;11.236545141012321;16.043880739555007;-0.95703125;0.08984375;0.0830078125;2.5625;-1.125;47.5;
1441975657673641;0.479248046875;-0.4788818359375;-0.570556640625;-0.4642333984375;17.25016527149137;11.552490710819113;16.358926794660015;-0.9833984375;0.080078125;0.078125;3.8125;-1.25;54.8125;
1441975657695642;0.473388671875;-0.48443603515625;-0.57586669921875;-0.45782470703125;17.141293036093174;11.824084137028544;16.631611282681554;-0.98779296875;0.07470703125;0.0888671875;3.6875;-1.6875;61.8125;
1441975657718643;0.46734619140625;-0.49005126953125;-0.58184814453125;-0.45050048828125;17.0172445723605;12.04652018020261;16.859051830123455;-0.98193359375;0.09423828125;0.08642578125;1.5625;-1.25;68.4375;
1441975657733644;0.46160888671875;-0.495361328125;-0.58819580078125;-0.44232177734375;16.88618406534227;12.225234863027994;17.048119438197716;-0.9833984375;0.12548828125;0.0927734375;-1.6875;-0.25;73.375;
1441975657755645;0.45623779296875;-0.5;-0.59490966796875;-0.43359375;16.751750010749856;12.359945826205236;17.19890548792641;-0.99365234375;0.1416015625;0.0849609375;-7.1875;0.375;76.5;
1441975657778647;0.4510498046875;-0.504150390625;-0.60174560546875;-0.4246826171875;16.616241150113424;12.461245474013412;17.31919752475299;-1.0087890625;0.13916015625;0.0791015625;-12.375;0.1875;78.4375;
1441975657793647;0.44580078125;-0.50830078125;-0.60833740234375;-0.41583251953125;16.480402973715428;12.543799766684922;17.419786381764606;-1.02001953125;0.13037109375;0.0908203125;-15.4375;0.375;80.0625;
1441975657815649;0.4405517578125;-0.5123291015625;-0.6146240234375;-0.40716552734375;16.346461720460326;12.61035430129342;17.503420294733164;-1.0166015625;0.13427734375;0.08935546875;-14.25;0.5;80.875;
1441975657838650;0.4354248046875;-0.5162353515625;-0.62060546875;-0.3985595703125;16.21505278501858;12.666776794391582;17.576675114124335;-0.99365234375;0.14599609375;0.0927734375;-13.0625;0.8125;79.9375;
1441975657853651;0.43072509765625;-0.51983642578125;-0.6260986328125;-0.39031982421875;16.091951270638678;12.713837536175843;17.640273257620777;-0.97705078125;0.16650390625;0.09423828125;-12.5;1.375;78.1875;
1441975657875652;0.42645263671875;-0.5228271484375;-0.63116455078125;-0.38262939453125;15.979064614424338;12.748661512002082;17.691883059872445;-0.99462890625;0.18701171875;0.08447265625;-12.5625;1.5;74.3125;
1441975657898653;0.42242431640625;-0.525390625;-0.63616943359375;-0.37530517578125;15.871563615924439;12.773395605075411;17.734143052863796;-1.00537109375;0.18603515625;0.07275390625;-13.375;0.375;70.3125;
1441975657921655;0.4189453125;-0.52734375;-0.64093017578125;-0.368408203125;15.773953926067978;12.79022359002018;17.76994694780796;-0.97265625;0.19873046875;0.080078125;-14.125;-0.25;66.75;
1441975657935656;0.41619873046875;-0.52850341796875;-0.64520263671875;-0.3623046875;15.691764337302258;12.798801966365884;17.798210884533063;-0.9462890625;0.20849609375;0.0859375;-15.4375;-0.0625;61.3125;
1441975657958657;0.4140625;-0.52923583984375;-0.6488037109375;-0.357177734375;15.624803956551114;12.803392167776321;17.82063509535666;-0.947265625;0.20361328125;0.08447265625;-16.75;-0.25;54.8125;
1441975657973658;0.4124755859375;-0.52978515625;-0.65167236328125;-0.35302734375;15.572066298896347;12.807101017149769;17.839205759118816;-0.95849609375;0.208984375;0.08203125;-15.1875;-0.4375;47.375;
1441975657995659;0.4114990234375;-0.52984619140625;-0.654052734375;-0.349609375;15.532490170838226;12.807497087424553;17.854033197194124;-0.9482421875;0.22412109375;0.07568359375;-12.625;-0.6875;39.6875;
1441975658018660;0.411376953125;-0.52935791015625;-0.6558837890625;-0.3470458984375;15.509206992690753;12.80506143983779;17.865875917013696;-0.9267578125;0.24365234375;0.080078125;-12.5;-0.25;31.5625;
1441975658033661;0.412109375;-0.5283203125;-0.65692138671875;-0.3458251953125;15.506296558167218;12.798776214814493;17.871492593384147;-0.91845703125;0.2470703125;0.0810546875;-12.6875;0.625;22.75;
1441975658055662;0.41363525390625;-0.52703857421875;-0.656982421875;-0.3458251953125;15.522380445045778;12.793198467383968;17.874197162125522;-0.92626953125;0.24755859375;0.08447265625;-10.75;0.875;12.9375;
1441975658078664;0.41595458984375;-0.5252685546875;-0.65643310546875;-0.3468017578125;15.555082287893878;12.784922498214913;17.87310665918597;-0.9384765625;0.25537109375;0.08056640625;-7.6875;1.25;3.0625;
1441975658101665;0.4190673828125;-0.52301025390625;-0.6552734375;-0.34857177734375;15.603328698538173;12.774867443094296;17.86972412327246;-0.93310546875;0.25537109375;0.07861328125;-6.8125;2.0;-6.1875;
1441975658115666;0.423095703125;-0.52020263671875;-0.6534423828125;-0.351318359375;15.66963443705362;12.762006131651033;17.862785247164524;-0.92431640625;0.26220703125;0.08447265625;-6.6875;3.3125;-15.1875;
1441975658138667;0.427734375;-0.5169677734375;-0.65106201171875;-0.35491943359375;15.749854532999603;12.745510667383009;17.850983577715326;-0.9287109375;0.25537109375;0.07861328125;-5.9375;4.1875;-24.1875;
1441975658161668;0.43292236328125;-0.51324462890625;-0.6483154296875;-0.35906982421875;15.841019596358441;12.724507336412898;17.834938912631284;-0.923828125;0.24951171875;0.07080078125;-5.6875;4.0625;-32.0;
1441975658175669;0.43865966796875;-0.5089111328125;-0.6451416015625;-0.3638916015625;15.944522184519021;12.69633877374752;17.811833090513353;-0.919921875;0.24609375;0.0693359375;-6.125;4.3125;-38.9375;
1441975658199671;0.44482421875;-0.504150390625;-0.64154052734375;-0.36932373046875;16.05831721384591;12.66133336634401;17.78128711138096;-0.93359375;0.2353515625;0.0751953125;-6.6875;4.6875;-45.5625;
1441975658221672;0.45123291015625;-0.4991455078125;-0.6375732421875;-0.37530517578125;16.179529651310027;12.618831227171103;17.741939018951417;-0.94189453125;0.21875;0.06982421875;-6.125;4.4375;-51.0;
1441975658235673;0.45751953125;-0.4942626953125;-0.633056640625;-0.3817138671875;16.304286462947072;12.571947948851113;17.694722565891386;-0.9482421875;0.20654296875;0.068359375;-5.0625;4.0625;-55.375;
1441975658259674;0.4638671875;-0.4892578125;-0.62811279296875;-0.3885498046875;16.434051646666;12.515471667961528;17.63600336230407;-0.96484375;0.2041015625;0.06494140625;-2.125;3.6875;-59.125;
1441975658281675;0.47003173828125;-0.484130859375;-0.62310791015625;-0.39556884765625;16.563295517340325;12.443835059866531;17.561311905798917;-0.98486328125;0.19140625;0.0576171875;-0.4375;3.3125;-62.0;
1441975658295676;0.47589111328125;-0.47906494140625;-0.6180419921875;-0.402587890625;16.68922069583643;12.357360493696964;17.470660839718846;-0.978515625;0.17041015625;0.06787109375;0.5;2.75;-62.875;
1441975658318677;0.4813232421875;-0.47442626953125;-0.61273193359375;-0.40966796875;16.810822067067377;12.258770873801579;17.364640347637426;-0.97607421875;0.150390625;0.06396484375;1.75;2.1875;-62.6875;
1441975658341679;0.48626708984375;-0.47015380859375;-0.60748291015625;-0.41656494140625;16.92455934084814;12.144107088682023;17.240889495833823;-0.9765625;0.1357421875;0.0693359375;4.75;2.25;-61.25;
1441975658355680;0.49066162109375;-0.46624755859375;-0.6024169921875;-0.423095703125;17.02816300549131;12.01226100893169;17.099035074480348;-0.98828125;0.12451171875;0.06884765625;6.9375;2.0;-59.0;
1441975658378681;0.49468994140625;-0.462646484375;-0.5977783203125;-0.42889404296875;17.12021548824689;11.867313417266393;16.945596819844436;-0.99267578125;0.11962890625;0.07275390625;7.5;1.75;-55.5625;
1441975658400682;0.498291015625;-0.4593505859375;-0.5936279296875;-0.43402099609375;17.200076196775573;11.708388890431316;16.779500525430795;-0.99365234375;0.115234375;0.068359375;6.5625;1.4375;-51.125;
1441975658415683;0.50140380859375;-0.4564208984375;-0.59002685546875;-0.4383544921875;17.266635627946886;11.54338975410295;16.608835288999472;-0.99365234375;0.1015625;0.064453125;5.3125;1.3125;-45.9375;
1441975658438684;0.50408935546875;-0.4539794921875;-0.58709716796875;-0.4417724609375;17.319783799179095;11.387418134331599;16.449170478071657;-0.98583984375;0.09375;0.0654296875;3.6875;1.25;-39.9375;
1441975658460686;0.50634765625;-0.45208740234375;-0.5848388671875;-0.4442138671875;17.360516696403025;11.256397068962938;16.316426684780932;-0.97998046875;0.1025390625;0.0673828125;2.4375;1.5;-33.9375;
1441975658475686;0.50823974609375;-0.45050048828125;-0.583251953125;-0.4456787109375;17.390667574093392;11.153296272998752;16.214494436355256;-0.982421875;0.10693359375;0.05615234375;0.4375;1.5625;-27.6875;
1441975658506688;0.5096435546875;-0.44940185546875;-0.582275390625;-0.44647216796875;17.41076089015393;11.083864516145344;16.147119294258587;-0.9775390625;0.11328125;0.0595703125;-1.9375;1.6875;-21.4375;
1441975658520689;0.5106201171875;-0.44879150390625;-0.58172607421875;-0.4466552734375;17.423351258306496;11.053193780614105;16.11888770275318;-0.97900390625;0.11572265625;0.0615234375;-3.0625;1.875;-15.4375;
1441975658535690;0.51104736328125;-0.44879150390625;-0.58160400390625;-0.44635009765625;17.42773176001022;11.06537009165402;16.13280613364156;-0.9716796875;0.1142578125;0.05859375;-2.9375;1.75;-9.75;
1441975658558691;0.51092529296875;-0.4493408203125;-0.58172607421875;-0.44580078125;17.425382061636334;11.109402240311816;16.176838282299357;-0.97509765625;0.11181640625;0.05712890625;-1.75;1.375;-4.125;
1441975658580692;0.51019287109375;-0.45037841796875;-0.582275390625;-0.44482421875;17.413954478578546;11.186919365474132;16.253693151107946;-0.96875;0.10986328125;0.0556640625;-0.25;0.75;1.1875;
1441975658595693;0.509033203125;-0.451904296875;-0.5831298828125;-0.4434814453125;17.39547363643625;11.291552340146286;16.356966819996526;-0.96435546875;0.1123046875;0.06201171875;0.75;0.5;6.5;
1441975658618695;0.50738525390625;-0.45391845703125;-0.58428955078125;-0.4417724609375;17.368825486040375;11.41714767498379;16.48034849418602;-0.95166015625;0.109375;0.06298828125;1.6875;0.375;11.375;
1441975658642696;0.50555419921875;-0.45611572265625;-0.58575439453125;-0.439697265625;17.33632412498449;11.547544520440937;16.609419731499166;-0.95361328125;0.12109375;0.06201171875;2.5625;0.125;15.6875;
1441975658655697;0.50335693359375;-0.4583740234375;-0.58758544921875;-0.4373779296875;17.296192925435633;11.669296230764182;16.73041980971015;-0.96435546875;0.1201171875;0.05810546875;2.0625;-0.3125;19.5;
1441975658678698;0.5009765625;-0.4609375;-0.589599609375;-0.43475341796875;17.250709856541686;11.79281493855532;16.853186542648686;-0.966796875;0.11328125;0.0693359375;1.3125;-1.0625;23.5;
1441975658700699;0.498291015625;-0.4637451171875;-0.5916748046875;-0.4320068359375;17.200193029318857;11.909262550857695;16.96786938892552;-0.97021484375;0.109375;0.06103515625;1.5;-1.1875;27.1875;
1441975658715700;0.4952392578125;-0.466796875;-0.5938720703125;-0.42919921875;17.14392636266757;12.01549438929513;17.071130825504696;-0.986328125;0.10693359375;0.06640625;3.125;-1.375;30.1875;
1441975658738701;0.49212646484375;-0.469970703125;-0.59625244140625;-0.426025390625;17.083277302509643;12.117211543635548;17.170956788482616;-0.97998046875;0.109375;0.06982421875;3.9375;-1.625;32.9375;
1441975658762703;0.4888916015625;-0.47320556640625;-0.5987548828125;-0.42266845703125;17.018975321384428;12.209003693417186;17.261239329359938;-0.974609375;0.11767578125;0.06689453125;3.0625;-1.4375;35.625;
1441975658775704;0.48553466796875;-0.47650146484375;-0.6011962890625;-0.41925048828125;16.952830251322464;12.291614704561374;17.341865583394405;-0.97119140625;0.1162109375;0.0703125;2.8125;-1.5625;37.5;
1441975658798705;0.48211669921875;-0.4798583984375;-0.6036376953125;-0.4158935546875;16.885525741637707;12.36418438303262;17.411906882478092;-0.97314453125;0.1220703125;0.0673828125;3.4375;-1.5625;38.9375;
1441975658820706;0.478759765625;-0.48309326171875;-0.60614013671875;-0.412353515625;16.8172966529521;12.429030744120222;17.475497193185863;-0.978515625;0.13134765625;0.07080078125;3.9375;-1.5;39.4375;
1441975658835707;0.4757080078125;-0.48602294921875;-0.60870361328125;-0.40863037109375;16.750712627714588;12.485948593678158;17.533642293034088;-0.96875;0.14208984375;0.0712890625;2.5;-1.4375;39.3125;
1441975658858708;0.4727783203125;-0.48870849609375;-0.6112060546875;-0.40521240234375;16.68730973165693;12.53042123484143;17.579310053736513;-0.9658203125;0.154296875;0.06396484375;0.375;-1.1875;38.6875;
1441975658880710;0.4700927734375;-0.49127197265625;-0.61328125;-0.40203857421875;16.62970342539184;12.571921248379397;17.62114696199239;-0.9619140625;0.1611328125;0.08056640625;0.1875;-0.75;36.6875;
1441975658895710;0.46759033203125;-0.49371337890625;-0.6151123046875;-0.399169921875;16.576647966849563;12.608330201106893;17.65715790317299;-0.95751953125;0.16064453125;0.072265625;1.0625;-0.375;34.375;
1441975658918712;0.46533203125;-0.495849609375;-0.61663818359375;-0.396728515625;16.530336723092777;12.63750318285091;17.685389104227387;-0.95361328125;0.17626953125;0.07421875;1.875;-0.125;31.5625;
1441975658940713;0.46343994140625;-0.497802734375;-0.61785888671875;-0.3946533203125;16.490996379821514;12.663852482296862;17.710377220496433;-0.9501953125;0.1787109375;0.0791015625;2.1875;0.1875;28.25;
1441975658955714;0.46197509765625;-0.49932861328125;-0.6187744140625;-0.39306640625;16.460683790994317;12.683622161508007;17.728909906807726;-0.9453125;0.1884765625;0.06884765625;2.1875;0.1875;24.25;
1441975658978715;0.4608154296875;-0.50048828125;-0.61932373046875;-0.39202880859375;16.438984774973413;12.697439460649996;17.74075319123727;-0.94873046875;0.19140625;0.07568359375;2.4375;0.1875;19.875;
1441975659001716;0.46014404296875;-0.501220703125;-0.61956787109375;-0.3914794921875;16.426868987921907;12.706289471796604;17.747912912770815;-0.94287109375;0.1953125;0.072265625;2.5;0.125;15.125;
1441975659015717;0.4599609375;-0.5015869140625;-0.61944580078125;-0.391357421875;16.424152192886375;12.712503791850256;17.752562334918963;-0.94580078125;0.201171875;0.07568359375;2.25;0.4375;10.1875;
1441975659038719;0.46026611328125;-0.50152587890625;-0.618896484375;-0.39190673828125;16.432716444586575;12.713349801871049;17.75123328180733;-0.9443359375;0.2041015625;0.06787109375;2.0625;0.4375;5.0;
1441975659060720;0.4609375;-0.501220703125;-0.61798095703125;-0.39300537109375;16.449952171601534;12.711121359571314;17.745869331909464;-0.94482421875;0.19873046875;0.06787109375;2.125;0.5625;-0.125;
1441975659075721;0.46185302734375;-0.500732421875;-0.61663818359375;-0.3946533203125;16.47505861007032;12.706210923954863;17.736194922999946;-0.94775390625;0.19677734375;0.0693359375;3.1875;0.625;-4.875;
1441975659098722;0.46319580078125;-0.5;-0.61492919921875;-0.396728515625;16.508633620288176;12.69957899136544;17.724386056001432;-0.94921875;0.19287109375;0.0703125;4.5625;0.875;-9.375;
1441975659122723;0.46484375;-0.4989013671875;-0.613037109375;-0.39910888671875;16.548519069681003;12.687731380117667;17.707876405492446;-0.9521484375;0.1943359375;0.06298828125;4.875;1.125;-13.5;
1441975659135724;0.46673583984375;-0.49749755859375;-0.6109619140625;-0.40179443359375;16.593992368101407;12.670516126148229;17.68616294719117;-0.95361328125;0.19189453125;0.06201171875;4.25;1.0625;-17.25;
1441975659158725;0.46881103515625;-0.495849609375;-0.6087646484375;-0.40478515625;16.643951249114483;12.646993500681212;17.658115102745843;-0.95703125;0.19189453125;0.0673828125;3.9375;1.0;-20.8125;
1441975659180727;0.47113037109375;-0.4940185546875;-0.6063232421875;-0.40802001953125;16.69898968798166;12.619852181297617;17.626262680971884;-0.9638671875;0.1904296875;0.06689453125;3.6875;0.875;-23.8125;
1441975659197728;0.4735107421875;-0.491943359375;-0.603759765625;-0.41143798828125;16.75686741309054;12.585118098235322;17.58685367015374;-0.96533203125;0.18310546875;0.06494140625;4.0;0.9375;-26.375;
1441975659218729;0.4759521484375;-0.489990234375;-0.60101318359375;-0.4150390625;16.816550151439397;12.548851173738262;17.544645088106986;-0.96142578125;0.171875;0.06787109375;4.0;0.875;-28.3125;
1441975659240730;0.4783935546875;-0.4879150390625;-0.59820556640625;-0.418701171875;16.8770815908279;12.50577923000147;17.495668470045274;-0.96875;0.169921875;0.06103515625;4.75;0.8125;-29.6875;
1441975659257731;0.48077392578125;-0.48590087890625;-0.5953369140625;-0.42236328125;16.93701328070575;12.458915624579053;17.442396299891016;-0.974609375;0.1650390625;0.06298828125;5.1875;0.5625;-30.75;
1441975659278732;0.483154296875;-0.4837646484375;-0.5926513671875;-0.42584228515625;16.995007192637786;12.404656122679974;17.383163029119576;-0.97314453125;0.1611328125;0.0576171875;5.1875;0.25;-30.9375;
1441975659300734;0.48541259765625;-0.48162841796875;-0.59014892578125;-0.42919921875;17.049894591977118;12.342549490980005;17.31662613595008;-0.96728515625;0.15283203125;0.0576171875;3.875;0.1875;-30.5;
1441975659317735;0.48748779296875;-0.47967529296875;-0.587646484375;-0.43243408203125;17.101792936421262;12.278087486284527;17.24706718792781;-0.96826171875;0.14111328125;0.06005859375;3.625;-0.125;-29.5;
1441975659338736;0.48944091796875;-0.477783203125;-0.58538818359375;-0.43536376953125;17.149201936410293;12.210058092242168;17.175021391647647;-0.9736328125;0.14013671875;0.0537109375;3.75;-0.375;-28.1875;
1441975659360737;0.49127197265625;-0.47607421875;-0.5833740234375;-0.43792724609375;17.191602102585005;12.144003262421098;17.105840312315866;-0.9794921875;0.13671875;0.05908203125;3.3125;-0.4375;-26.4375;
1441975659377738;0.49298095703125;-0.474365234375;-0.58160400390625;-0.44024658203125;17.229994504560707;12.072906555024908;17.032695271723092;-0.984375;0.142578125;0.046875;2.125;-0.5625;-24.875;
1441975659398739;0.49432373046875;-0.47296142578125;-0.58001708984375;-0.44232177734375;17.262123459438623;12.005189755692689;16.962260529821215;-0.98486328125;0.13134765625;0.05029296875;1.1875;-0.6875;-22.4375;
1441975659420740;0.495361328125;-0.47198486328125;-0.5784912109375;-0.44415283203125;17.28923321641468;11.948959215363917;16.902104457705704;-0.97509765625;0.12548828125;0.060546875;1.9375;-0.5;-19.9375;
1441975659437741;0.49603271484375;-0.47137451171875;-0.57720947265625;-0.4456787109375;17.30966753457003;11.903881368254918;16.85259193062693;-0.9736328125;0.123046875;0.0556640625;3.25;-0.25;-16.9375;
1441975659458743;0.49664306640625;-0.47100830078125;-0.57623291015625;-0.4466552734375;17.325207963349335;11.877726371019529;16.823588275659617;-0.96728515625;0.12548828125;0.056640625;3.875;0.0;-13.8125;
1441975659480744;0.49713134765625;-0.47064208984375;-0.57574462890625;-0.44708251953125;17.33464723537357;11.86130908043743;16.80698275205262;-0.96826171875;0.12890625;0.04833984375;2.375;0.125;-10.75;
1441975659497745;0.49755859375;-0.4703369140625;-0.57568359375;-0.44708251953125;17.33917575731221;11.855007917649885;16.802588665737158;-0.96533203125;0.1318359375;0.0498046875;-0.1875;0.0625;-7.4375;
1441975659518746;0.49774169921875;-0.4703369140625;-0.5758056640625;-0.4466552734375;17.338632681729457;11.868938489543613;16.818641879968975;-0.96630859375;0.123046875;0.04931640625;-2.0;0.0;-4.3125;
1441975659540747;0.4976806640625;-0.47052001953125;-0.57623291015625;-0.446044921875;17.332971573336433;11.889298976331045;16.841285947116283;-0.96533203125;0.1279296875;0.0419921875;-2.4375;0.125;-1.3125;
1441975659557748;0.49749755859375;-0.47100830078125;-0.5767822265625;-0.445068359375;17.323705183872256;11.928609966835742;16.8830689836064;-0.9638671875;0.1318359375;0.04931640625;-2.4375;0.125;1.25;
1441975659578749;0.49713134765625;-0.47149658203125;-0.57757568359375;-0.44390869140625;17.3105237663736;11.967625733986628;16.925283257251106;-0.966796875;0.14111328125;0.0458984375;-2.625;0.25;3.5;
1441975659600751;0.49664306640625;-0.47210693359375;-0.5784912109375;-0.442626953125;17.294683643158038;12.009969417285824;16.970825945971384;-0.96630859375;0.1376953125;0.048828125;-3.0;0.3125;5.5625;
1441975659618752;0.49603271484375;-0.472900390625;-0.57940673828125;-0.44122314453125;17.27686188984152;12.058419769652723;17.021966112342987;-0.97119140625;0.126953125;0.0537109375;-3.125;0.3125;7.75;
1441975659638753;0.49530029296875;-0.47381591796875;-0.58050537109375;-0.43963623046875;17.25562845644311;12.109606871343665;17.076192917872568;-0.97021484375;0.1240234375;0.0498046875;-2.5625;0.5;9.8125;
1441975659660754;0.49456787109375;-0.47479248046875;-0.58172607421875;-0.43780517578125;17.232274809550162;12.164487940525447;17.135001950507945;-0.9697265625;0.12158203125;0.05224609375;-2.6875;0.6875;11.8125;
1441975659677755;0.49371337890625;-0.47576904296875;-0.5831298828125;-0.43572998046875;17.205518684818923;12.21841786454624;17.19377769487035;-0.97021484375;0.123046875;0.05224609375;-3.5;0.875;13.6875;
1441975659698756;0.49285888671875;-0.476806640625;-0.5845947265625;-0.43359375;17.177635024492133;12.270973664944034;17.251341324368134;-0.97412109375;0.11572265625;0.0537109375;-4.25;0.9375;15.6875;
1441975659720758;0.4918212890625;-0.47802734375;-0.586181640625;-0.431396484375;17.146404267538603;12.322460540384785;17.307298816424513;-0.9794921875;0.1142578125;0.0556640625;-4.4375;1.0625;17.3125;
1441975659737759;0.4906005859375;-0.47943115234375;-0.58770751953125;-0.4290771484375;17.112798822879615;12.376190616859994;17.364672043291314;-0.97216796875;0.11328125;0.05615234375;-3.8125;1.0625;18.8125;
1441975659758760;0.4893798828125;-0.4808349609375;-0.58929443359375;-0.42669677734375;17.07822065718668;12.42630305770159;17.41877901832426;-0.9697265625;0.123046875;0.05810546875;-3.0;1.1875;19.875;
1441975659780761;0.48809814453125;-0.482177734375;-0.59100341796875;-0.42431640625;17.042319598199384;12.468992560124635;17.46581463296883;-0.9716796875;0.12841796875;0.05517578125;-3.25;1.1875;20.625;
1441975659797762;0.4869384765625;-0.4835205078125;-0.59259033203125;-0.42193603515625;17.00790686079143;12.511310432639418;17.512480716809797;-0.9716796875;0.1298828125;0.060546875;-3.75;1.125;20.9375;
1441975659818763;0.4857177734375;-0.4847412109375;-0.59423828125;-0.4195556640625;16.97288082522855;12.546658452117569;17.55255972340559;-0.97216796875;0.13427734375;0.0556640625;-3.75;1.125;20.8125;
1441975659840764;0.48468017578125;-0.48602294921875;-0.595703125;-0.417236328125;16.94026002504553;12.583931122961992;17.594185126835388;-0.9609375;0.1416015625;0.060546875;-3.8125;1.375;20.1875;
1441975659857765;0.48370361328125;-0.487060546875;-0.59716796875;-0.41510009765625;16.909724120975195;12.611688571379442;17.626647254724002;-0.958984375;0.154296875;0.05419921875;-3.75;1.5625;19.0625;
1441975659878767;0.48297119140625;-0.48797607421875;-0.598388671875;-0.4130859375;16.883451718072727;12.639069660682681;17.65873522363946;-0.9501953125;0.15673828125;0.0625;-4.0;1.4375;17.4375;
1441975659900768;0.482421875;-0.488525390625;-0.59954833984375;-0.41131591796875;16.861434135626045;12.657101266992347;17.682175831831863;-0.95361328125;0.16650390625;0.0546875;-4.25;1.75;15.3125;
1441975659917769;0.482177734375;-0.489013671875;-0.6004638671875;-0.40972900390625;16.844235884234877;12.676524002914267;17.706786231260512;-0.94970703125;0.1728515625;0.0595703125;-4.6875;1.5625;12.5;
1441975659938770;0.48211669921875;-0.48931884765625;-0.60113525390625;-0.40850830078125;16.832368581727476;12.691415702295869;17.726134206553283;-0.93896484375;0.18212890625;0.0498046875;-4.9375;1.8125;9.6875;
1441975659960771;0.48223876953125;-0.48968505859375;-0.601318359375;-0.4075927734375;16.82603353913153;12.710482630717747;17.747716713621788;-0.921875;0.19189453125;0.0595703125;-4.0625;2.5625;6.1875;
1441975659977772;0.4825439453125;-0.49017333984375;-0.60107421875;-0.406982421875;16.82458604292218;12.734274315625782;17.772049858161534;-0.90478515625;0.1904296875;0.060546875;-1.9375;3.875;3.1875;
1441975659998774;0.4830322265625;-0.4910888671875;-0.60028076171875;-0.406494140625;16.826473955888105;12.772699622128433;17.80834228296562;-0.88916015625;0.19775390625;0.06298828125;0.25;5.5;0.875;
1441975660020775;0.48382568359375;-0.491943359375;-0.59912109375;-0.40631103515625;16.834357728192956;12.813809463061478;17.84639538935101;-0.87451171875;0.203125;0.06689453125;2.9375;9.0;-0.8125;
1441975660037776;0.48468017578125;-0.49237060546875;-0.5985107421875;-0.4056396484375;16.83849614480652;12.848250782066389;17.882236606077516;-0.86669921875;0.17333984375;0.05419921875;4.0;9.0625;-2.25;
1441975660061777;0.48590087890625;-0.49200439453125;-0.598876953125;-0.404052734375;16.83793047024789;12.872917936619746;17.91715109067516;-0.9033203125;0.20751953125;0.037109375;-0.75;7.25;-2.0625;
1441975660088779;0.48773193359375;-0.49078369140625;-0.5999755859375;-0.40167236328125;16.836772232181342;12.890751521255446;17.953888773289385;-0.93115234375;0.2373046875;0.03125;-10.0;5.8125;-1.875;
1441975660097779;0.4896240234375;-0.4898681640625;-0.60064697265625;-0.39947509765625;16.83797781844521;12.917816624884006;17.997375025542315;-0.91064453125;0.21826171875;0.056640625;-18.125;8.1875;-0.25;
1441975660118780;0.4901123046875;-0.49053955078125;-0.6007080078125;-0.39801025390625;16.829610641434098;12.954129600221503;0.03760594736056638;-0.8896484375;0.14990234375;0.0615234375;-15.125;10.5;3.3125;
1441975660140782;0.48919677734375;-0.49273681640625;-0.60064697265625;-0.39654541015625;16.805004927736963;13.000529807481557;0.07918083468752253;-0.845703125;0.15576171875;0.0537109375;-2.6875;8.8125;6.75;
1441975660157783;0.48712158203125;-0.49530029296875;-0.60137939453125;-0.39471435546875;16.76419291118986;13.031501101232701;0.10438037297716417;-0.81103515625;0.189453125;0.03466796875;5.6875;6.3125;12.0;
1441975660179784;0.4840087890625;-0.49786376953125;-0.60272216796875;-0.393310546875;16.71558274934713;13.036224778604822;0.10087634614407076;-0.7470703125;0.2158203125;0.02978515625;6.3125;2.0;17.3125;
1441975660200785;0.4796142578125;-0.5010986328125;-0.6043701171875;-0.39202880859375;16.654228273157297;13.03241211272471;0.0837981256350486;-0.6552734375;0.18896484375;0.0478515625;8.1875;-2.9375;20.9375;
1441975660217786;0.47393798828125;-0.5052490234375;-0.6064453125;-0.39031982421875;16.575064512115272;13.029652295138462;0.06399573706458445;-0.55615234375;0.158203125;0.05517578125;13.375;-6.625;27.75;
1441975660239787;0.4678955078125;-0.50927734375;-0.6099853515625;-0.386962890625;16.476444096621446;13.023282528447549;0.04898585422797193;-0.44921875;0.15673828125;0.06396484375;17.125;-8.1875;35.375;
1441975660262789;0.46234130859375;-0.51263427734375;-0.6148681640625;-0.38134765625;16.363801512666594;13.020474963617467;0.05152867089368267;-0.34423828125;0.17626953125;0.07080078125;8.875;-7.9375;42.375;
1441975660277789;0.4576416015625;-0.5146484375;-0.62127685546875;-0.373779296875;16.243574930528183;13.009688572639385;0.06273798953891983;-0.28125;0.2080078125;0.0693359375;-4.75;-5.3125;47.125;
1441975660299791;0.45416259765625;-0.515380859375;-0.62841796875;-0.3651123046875;16.12730869895189;12.994758033609322;0.08251544011508538;-0.27392578125;0.25;0.07568359375;-20.75;-2.875;48.75;
1441975660320792;0.45123291015625;-0.51568603515625;-0.6356201171875;-0.355712890625;16.012139836728743;12.983302795863287;0.11116674309271411;-0.318359375;0.26416015625;0.07421875;-33.125;-0.375;48.0;
1441975660338793;0.4486083984375;-0.51617431640625;-0.64251708984375;-0.3458251953125;15.896923033679117;12.980421642969175;0.14951453857169822;-0.3544921875;0.265625;0.09716796875;-37.5;3.875;49.0625;
1441975660360794;0.44647216796875;-0.515869140625;-0.6497802734375;-0.33526611328125;15.782782825093884;12.972065372263053;0.18947307199186136;-0.36376953125;0.220703125;0.08740234375;-37.9375;6.6875;53.625;
1441975660380795;0.4444580078125;-0.51470947265625;-0.65802001953125;-0.32354736328125;15.661520383405941;12.953963552590327;0.22924983923783157;-0.37060546875;0.23046875;0.0791015625;-44.625;7.5625;53.1875;
1441975660397796;0.44329833984375;-0.512451171875;-0.666259765625;-0.3115234375;15.54946331510009;12.931129492709832;0.2713157481837418;-0.3857421875;0.302734375;0.08251953125;-54.125;6.9375;53.6875;
1441975660419798;0.443115234375;-0.50897216796875;-0.67437744140625;-0.29986572265625;15.452896394456912;12.900834001650974;0.31114318863269486;-0.44775390625;0.36083984375;0.07080078125;-61.625;7.625;48.125;
1441975660440799;0.4429931640625;-0.50567626953125;-0.6815185546875;-0.2891845703125;15.366838668680845;12.874112642635813;0.34865553741794375;-0.572265625;0.376953125;0.080078125;-66.25;8.125;43.5625;
1441975660457800;0.44403076171875;-0.50201416015625;-0.68768310546875;-0.279296875;15.30043567070485;12.852506007665141;0.3904691523434976;-0.6767578125;0.3974609375;0.05859375;-61.4375;5.875;41.125;
1441975660479801;0.4456787109375;-0.497802734375;-0.6932373046875;-0.270263671875;15.249210726583511;12.82910994065217;0.4296014592064327;-0.75537109375;0.40771484375;0.04541015625;-60.5625;8.5;34.1875;
1441975660500802;0.447265625;-0.49267578125;-0.69903564453125;-0.261962890625;15.205396827496829;12.79294582134866;0.4571552800779906;-0.87939453125;0.4599609375;0.04833984375;-60.1875;7.6875;28.25;
1441975660523804;0.449462890625;-0.48675537109375;-0.70465087890625;-0.25408935546875;15.173304292899498;12.752693566085751;0.48298587678156735;-1.02685546875;0.51806640625;0.05029296875;-63.0625;2.1875;24.875;
1441975660539804;0.45281982421875;-0.4794921875;-0.7099609375;-0.2470703125;15.162597966231335;12.705430757535044;0.5055142530622553;-1.138671875;0.53955078125;0.02587890625;-66.8125;-0.625;22.0625;
1441975660560806;0.45587158203125;-0.47210693359375;-0.71527099609375;-0.24041748046875;15.152750769000727;12.6543427484748;0.5227050992401819;-1.18115234375;0.3779296875;0.0205078125;-70.0;-0.375;22.5;
1441975660584807;0.45672607421875;-0.468017578125;-0.719482421875;-0.23406982421875;15.119180874861145;12.625693802929508;0.5423653688062648;-1.1552734375;0.2646484375;0.08349609375;-66.125;0.5625;28.125;
1441975660599808;0.45550537109375;-0.4661865234375;-0.72357177734375;-0.22747802734375;15.05953279159872;12.607664827853654;0.5607863058105049;-1.12451171875;0.27978515625;0.0830078125;-46.125;-2.4375;38.0625;
1441975660620809;0.45367431640625;-0.46575927734375;-0.72698974609375;-0.220947265625;14.992578693146498;12.60173260839756;0.5833871265737959;-1.10546875;0.373046875;0.07763671875;-35.375;-7.375;44.4375;
1441975660638810;0.4534912109375;-0.462646484375;-0.73150634765625;-0.21270751953125;14.934398772845643;12.581780589299909;0.6138118333637325;-1.12451171875;0.4599609375;0.0341796875;-29.625;-9.625;45.125;
1441975660659811;0.45428466796875;-0.4586181640625;-0.73577880859375;-0.20489501953125;14.891406825617494;12.558567223143337;0.6444066423835134;-1.1396484375;0.451171875;0.0546875;-49.25;-4.0625;43.9375;
1441975660680813;0.4530029296875;-0.45751953125;-0.7386474609375;-0.19976806640625;14.842743836664562;12.547083548524487;0.6590693189802758;-1.14501953125;0.4013671875;0.09619140625;-50.625;0.25;40.75;
1441975660703814;0.4498291015625;-0.45916748046875;-0.74066162109375;-0.19573974609375;14.778286580880778;12.549262329409032;0.6676755436084971;-1.1171875;0.3154296875;0.11181640625;-24.125;-7.3125;45.375;
1441975660719815;0.44677734375;-0.46441650390625;-0.74005126953125;-0.19256591796875;14.715022566008964;12.589811398364699;0.6930896365702272;-1.04150390625;0.4169921875;0.16455078125;-4.375;-9.375;44.25;
1441975660740816;0.4454345703125;-0.467529296875;-0.739501953125;-0.1903076171875;14.679168940874533;12.617428020300526;0.7136718274607285;-1.0810546875;0.59521484375;0.08935546875;15.1875;-4.6875;38.4375;
1441975660771818;0.44415283203125;-0.4697265625;-0.7393798828125;-0.18829345703125;14.647501049783758;12.635144427869836;0.7278278699498071;-1.15087890625;0.58349609375;0.08837890625;6.8125;-3.125;28.5;
1441975660779818;0.44305419921875;-0.4730224609375;-0.7379150390625;-0.1883544921875;14.63076818314225;12.662123135693292;0.7371142659188912;-1.1044921875;0.521484375;0.12890625;4.6875;-2.8125;27.625;
1441975660800819;0.44091796875;-0.4794921875;-0.73468017578125;-0.1898193359375;14.607940433975688;12.712643753618584;0.7471977113317692;-1.05517578125;0.45166015625;0.15869140625;19.8125;-0.25;22.625;
1441975660823821;0.43890380859375;-0.486328125;-0.73101806640625;-0.19110107421875;14.584485542901206;12.768806225182956;0.7615591223927772;-1.08837890625;0.60693359375;0.1298828125;40.5;-1.6875;18.1875;
1441975660841822;0.4383544921875;-0.49005126953125;-0.7283935546875;-0.19281005859375;14.584599452695484;12.802086293025443;0.7681752230617465;-1.17138671875;0.78662109375;0.09912109375;40.1875;-1.4375;12.125;
1441975660861823;0.43804931640625;-0.493896484375;-0.72528076171875;-0.195556640625;14.59457583773813;12.837004306924696;0.771673838375123;-1.234375;0.7470703125;0.1328125;25.8125;-0.5625;5.0625;
1441975660883824;0.43682861328125;-0.5013427734375;-0.71954345703125;-0.2003173828125;14.604348847430083;12.902253159799507;0.7774112032999552;-1.20751953125;0.63720703125;0.1796875;33.0625;2.4375;4.4375;
1441975660899825;0.43499755859375;-0.50885009765625;-0.71429443359375;-0.2041015625;14.600905186745326;12.96541233688091;0.7841146035181793;-1.154296875;0.64990234375;0.16943359375;61.75;4.9375;2.6875;
1441975660920826;0.43487548828125;-0.51409912109375;-0.71026611328125;-0.20538330078125;14.598256317422145;13.020307944445968;0.8062293423520006;-1.11572265625;0.71826171875;0.1484375;58.125;3.8125;3.4375;
1441975660951828;0.436767578125;-0.51715087890625;-0.70721435546875;-0.20416259765625;14.598638339362239;13.0701491795387;0.8468882623103957;-1.0537109375;0.6962890625;0.08935546875;35.375;10.25;3.75;
1441975660959828;0.43890380859375;-0.51849365234375;-0.70538330078125;-0.20245361328125;14.600759547384847;13.103779154629166;0.8825201145107544;-1.0517578125;0.732421875;0.06005859375;14.0;19.6875;1.5;
1441975660980830;0.44036865234375;-0.52288818359375;-0.701416015625;-0.20184326171875;14.59751537306397;13.164478804578888;0.9240035387103538;-1.060546875;0.6689453125;0.1474609375;6.25;22.6875;4.0625;
1441975661003831;0.44140625;-0.530029296875;-0.6954345703125;-0.20166015625;14.585857727068447;13.252012486965882;0.9754125835809191;-0.9970703125;0.63330078125;0.06884765625;26.25;22.25;6.4375;
1441975661019832;0.4417724609375;-0.5369873046875;-0.68988037109375;-0.20166015625;14.569194367058309;13.331772214035784;1.018461058753576;-0.96923828125;0.712890625;0.037109375;43.9375;26.8125;5.3125;
1441975661040833;0.443115234375;-0.5418701171875;-0.68548583984375;-0.20050048828125;14.556160993034414;13.39807749544877;1.0644677527552977;-0.9775390625;0.783203125;0.0380859375;43.8125;23.4375;3.25;
1441975661064834;0.44573974609375;-0.5455322265625;-0.6815185546875;-0.19818115234375;14.54631101213023;13.462334434949385;1.1208345013114709;-0.91064453125;0.736328125;0.00146484375;27.25;24.5625;1.25;
1441975661081835;0.4486083984375;-0.54937744140625;-0.6776123046875;-0.1944580078125;14.524488837106816;13.53061733270717;1.186259183064075;-0.83935546875;0.697265625;0.0244140625;18.4375;32.625;-1.375;
1441975661100837;0.4547119140625;-0.550537109375;-0.6741943359375;-0.18896484375;14.519614488480338;13.598427144663686;1.2757044856321855;-0.77001953125;0.79736328125;0.05029296875;16.75;40.375;-4.3125;
1441975661123838;0.462890625;-0.5484619140625;-0.67218017578125;-0.1820068359375;14.527685992216723;13.651578548792886;1.3752695103765666;-0.72802734375;0.794921875;0.0205078125;-4.125;53.5;-15.75;
1441975661139839;0.478759765625;-0.5494384765625;-0.66278076171875;-0.17236328125;14.548368061804588;13.814598835432454;1.5840617051360415;-0.68994140625;0.75927734375;0.02392578125;-26.1875;59.0625;-22.875;
1441975661162840;0.49822998046875;-0.52996826171875;-0.665771484375;-0.16619873046875;14.709761644577691;13.807671721655238;1.719388125187646;-0.58544921875;0.55419921875;-0.5986328125;-30.375;85.3125;-28.4375;
1441975661183841;0.5091552734375;-0.5321044921875;-0.659423828125;-0.1512451171875;14.634404912163554;13.939301197762362;1.9075211207201996;-1.513671875;0.841796875;0.65234375;-112.4375;77.125;-86.6875;
1441975661199842;0.52142333984375;-0.51361083984375;-0.667724609375;-0.135986328125;14.672011602249663;13.873443973246241;2.008793475590763;-0.58154296875;0.98388671875;-0.265625;-30.5625;94.9375;-11.0625;
1441975661222844;0.516845703125;-0.5133056640625;-0.67254638671875;-0.130859375;14.604756515511376;13.814375062228521;1.970413723256074;-1.2177734375;0.54345703125;0.4365234375;-145.9375;60.5;-23.4375;
1441975661243845;0.50933837890625;-0.5257568359375;-0.66986083984375;-0.12451171875;14.441435447456609;13.853504612305121;1.966053910449886;-0.8798828125;0.8359375;0.3603515625;-9.3125;7.625;21.375;
1441975661259846;0.50445556640625;-0.5308837890625;-0.6710205078125;-0.1163330078125;14.317086876707801;13.847354630269873;1.9636378125396705;-0.51708984375;0.9873046875;0.14111328125;53.3125;18.5;45.9375;
1441975661282847;0.49798583984375;-0.52587890625;-0.6810302734375;-0.108154296875;14.237363633950226;13.730352362338643;1.9033730225604697;-0.591796875;0.83349609375;0.05712890625;2.25;12.125;39.5;
1441975661303848;0.48590087890625;-0.5216064453125;-0.69354248046875;-0.10443115234375;14.152383988336505;13.574896832104642;1.779002028706416;-0.685546875;0.74560546875;0.24462890625;-55.9375;-16.0;31.0625;
1441975661319849;0.47088623046875;-0.525146484375;-0.70086669921875;-0.1060791015625;14.048759470557043;13.47769214455231;1.6465488386335465;-0.5888671875;0.59521484375;0.474609375;-36.375;-47.875;39.3125;
1441975661341850;0.453857421875;-0.5341796875;-0.70501708984375;-0.10772705078125;13.903010630565944;13.424315215573044;1.5260851031781895;-0.5771484375;0.681640625;0.32275390625;19.875;-65.1875;41.6875;
1441975661363852;0.4384765625;-0.53765869140625;-0.71307373046875;-0.100830078125;13.720352610598287;13.34262621496214;1.4419639269132574;-0.7822265625;1.03125;0.22314453125;47.8125;-68.0;52.6875;
1441975661379853;0.42718505859375;-0.53619384765625;-0.7227783203125;-0.0872802734375;13.532499133274413;13.255085592471492;1.408569378206006;-0.78173828125;1.06298828125;0.18359375;-12.9375;-52.3125;71.4375;
1441975661401854;0.417236328125;-0.534423828125;-0.73162841796875;-0.0711669921875;13.335866931902542;13.181582114751802;1.4021161624532932;-0.791015625;0.94140625;0.06396484375;-64.25;-29.875;83.75;
1441975661423855;0.4029541015625;-0.5283203125;-0.74554443359375;-0.05267333984375;13.102801850537507;13.05349116184242;1.3701324514542446;-0.880859375;0.978515625;0.03369140625;-72.75;-17.6875;94.8125;
1441975661439856;0.38275146484375;-0.52288818359375;-0.7606201171875;-0.03973388671875;12.859338964437335;12.90860236721453;1.2885478898560303;-1.1396484375;0.94482421875;0.2138671875;-105.75;-39.0;116.25;
1441975661462857;0.3555908203125;-0.5303955078125;-0.76861572265625;-0.03875732421875;12.599519253806855;12.840908092556917;1.155732362891639;-1.19921875;0.7685546875;0.35400390625;-90.3125;-82.8125;116.25;
1441975661485859;0.32513427734375;-0.54486083984375;-0.77166748046875;-0.04486083984375;12.34108639653407;12.82493945026691;0.9983635025781729;-1.140625;0.9853515625;0.3740234375;14.625;-131.3125;109.25;
1441975661501859;0.2965087890625;-0.55902099609375;-0.77288818359375;-0.0479736328125;12.079261123852733;12.829511897398223;0.8715675971856487;-0.99560546875;1.16845703125;0.3125;73.9375;-156.375;98.8125;
1441975661522861;0.27166748046875;-0.5618896484375;-0.7801513671875;-0.0438232421875;11.823528380215826;12.77356261285713;0.7799196162939918;-0.91162109375;1.39111328125;0.1015625;68.6875;-137.25;103.0625;
1441975661543862;0.24676513671875;-0.569580078125;-0.783203125;-0.0374755859375;11.541496430496409;12.764120977000486;0.7126427286990693;-1.0791015625;0.94873046875;0.0810546875;-13.375;-111.6875;112.9375;
1441975661559863;0.22357177734375;-0.57952880859375;-0.78302001953125;-0.033203125;11.286636272785517;12.782488505166222;0.6495200262895267;-0.80859375;0.83056640625;-0.02197265625;17.3125;-97.25;127.5;
1441975661582864;0.20556640625;-0.595458984375;-0.77606201171875;-0.031005859375;11.085276558576776;12.862027328557456;0.60746861885367;-0.59228515625;0.85986328125;-0.04296875;40.125;-90.6875;112.0625;
1441975661603865;0.18951416015625;-0.6070556640625;-0.77142333984375;-0.0233154296875;10.870383833337966;12.917735731338574;0.5912645407924867;-0.5322265625;1.00830078125;-0.13916015625;71.6875;-73.3125;97.0625;
1441975661619866;0.170166015625;-0.6180419921875;-0.767333984375;-0.01715087890625;10.639993462869477;12.964861424051012;0.5529440234973833;-0.61376953125;1.064453125;-0.28173828125;53.1875;-41.25;105.75;
1441975661641867;0.14862060546875;-0.63311767578125;-0.7596435546875;-0.01007080078125;10.379973121650782;13.043125096735297;0.5126981952657977;-0.64892578125;0.9638671875;-0.09326171875;53.9375;-60.875;111.625;
1441975661666869;0.1275634765625;-0.651611328125;-0.747802734375;-0.00146484375;10.110911500568761;13.153688286166844;0.4811716501069786;-0.369140625;0.89453125;-0.11962890625;84.625;-62.4375;123.9375;
1441975661679870;0.110107421875;-0.6590576171875;-0.74395751953125;0.00897216796875;9.874278866274478;13.189053596438017;0.4613367814402144;-0.181640625;1.06103515625;-0.15771484375;112.1875;-50.125;128.3125;
1441975661709871;0.09259033203125;-0.6646728515625;-0.74114990234375;0.02154541015625;9.623410950502356;13.213091269874944;0.44851703649171876;-0.14794921875;1.0048828125;-0.0478515625;36.25;-33.6875;115.25;
1441975661723872;0.0755615234375;-0.67437744140625;-0.73394775390625;0.0301513671875;9.402799009754599;13.272631683294229;0.42127369518782853;-0.1201171875;0.9013671875;-0.00390625;24.0625;-25.9375;123.75;
1441975661739873;0.05999755859375;-0.68365478515625;-0.72650146484375;0.03594970703125;9.217886458339954;13.333316881690576;0.3860708968561928;-0.01953125;0.8515625;0.03955078125;61.5;-37.0625;106.75;
1441975661761874;0.04840087890625;-0.6888427734375;-0.7222900390625;0.03814697265625;9.099495247889564;13.367261708040452;0.3498151267797733;0.0517578125;0.931640625;-0.01171875;58.125;-41.0625;83.6875;
1441975661785876;0.039306640625;-0.69390869140625;-0.71826171875;0.033935546875;9.053673050792886;13.402592361360375;0.29644211878135934;0.00537109375;0.73291015625;0.0068359375;32.8125;-39.3125;55.8125;
1441975661798876;0.032470703125;-0.70098876953125;-0.7120361328125;0.02508544921875;9.063431614979574;13.456496260141186;0.23301074006846356;-0.07861328125;0.70654296875;0.0693359375;39.3125;-54.375;25.8125;
1441975661821878;0.02899169921875;-0.7054443359375;-0.70819091796875;0.0093994140625;9.159294730501825;13.491029340271162;0.1554393378240503;-0.091796875;0.708984375;-0.00732421875;53.0625;-63.8125;-0.75;
1441975661843879;0.03033447265625;-0.70867919921875;-0.704833984375;-0.0126953125;9.348282629566018;13.517776477978614;0.07203586062860957;-0.1025390625;0.67333984375;0.06005859375;39.9375;-77.125;-42.6875;
1441975661858880;0.037841796875;-0.71185302734375;-0.7003173828125;-0.0394287109375;9.626455184856828;13.546589540569054;17.996111017949932;-0.1162109375;0.72119140625;0.09423828125;37.1875;-83.0625;-89.375;
1441975661881881;0.0506591796875;-0.71282958984375;-0.69598388671875;-0.07086181640625;9.987634249551238;13.561870387408161;17.923188354567042;-0.17724609375;0.72119140625;0.10791015625;37.5;-77.125;-136.625;
1441975661903882;0.06964111328125;-0.715576171875;-0.68756103515625;-0.1025390625;10.40327700585387;13.599354520971596;17.87791819659756;-0.23291015625;0.58837890625;0.17529296875;28.75;-75.25;-176.9375;
1441975661918883;0.09454345703125;-0.71551513671875;-0.6788330078125;-0.1357421875;10.881807248345272;13.626110308891384;17.85165884794864;-0.25927734375;0.68505859375;0.03173828125;47.75;-49.8125;-205.25;
1441975661941885;0.12188720703125;-0.71026611328125;-0.6724853515625;-0.16900634765625;11.382594048813623;13.62069804621437;17.830299547132643;-0.3671875;0.6513671875;-0.00341796875;34.5625;-34.375;-235.75;
1441975661972886;0.14947509765625;-0.704345703125;-0.66375732421875;-0.20263671875;11.89367455674723;13.620522910255765;17.808575202812257;-0.50732421875;0.6123046875;0.115234375;4.5625;-29.9375;-245.6875;
1441975661986887;0.17767333984375;-0.69891357421875;-0.6505126953125;-0.23858642578125;12.437327360259669;13.638723819530258;17.784456695963925;-0.54150390625;0.55322265625;0.142578125;11.9375;-28.8125;-251.0;
1441975662003888;0.2071533203125;-0.6895751953125;-0.63629150390625;-0.277099609375;13.022056349760405;13.638018877611072;17.748559521428813;-0.513671875;0.58837890625;0.07568359375;32.5;-31.6875;-269.3125;
1441975662023889;0.23870849609375;-0.67791748046875;-0.62042236328125;-0.31396484375;13.620721485365232;13.63688226037421;17.726669186678283;-0.57421875;0.53955078125;0.04833984375;21.9375;-41.75;-289.5;
1441975662038890;0.2696533203125;-0.66436767578125;-0.60455322265625;-0.34716796875;14.192919001598888;13.630519495387995;17.713998501354656;-0.67919921875;0.32958984375;0.02783203125;14.3125;-29.875;-294.625;
1441975662061892;0.29974365234375;-0.6466064453125;-0.589111328125;-0.38092041015625;14.77462080483545;13.584785608384886;17.6709072885731;-0.82666015625;0.33447265625;-0.0908203125;2.5625;-22.3125;-281.5;
1441975662083893;0.3299560546875;-0.62310791015625;-0.57562255859375;-0.414306640625;15.364530628939626;13.462207651603244;17.574039395944677;-0.861328125;0.36865234375;-0.14990234375;-11.9375;-37.6875;-287.4375;
1441975662098894;0.357177734375;-0.60003662109375;-0.5601806640625;-0.44561767578125;15.921916889306356;13.299931340694918;17.42599723613801;-0.9501953125;0.21923828125;-0.01953125;-38.3125;-50.3125;-290.6875;
1441975662121895;0.3782958984375;-0.582763671875;-0.541015625;-0.47393798828125;16.408731991226496;13.137580586766923;17.239849095181235;-1.05322265625;-0.08935546875;0.11083984375;-25.625;-46.1875;-273.25;
1441975662143896;0.39324951171875;-0.5689697265625;-0.52264404296875;-0.49853515625;16.804136676788506;12.896620146551967;16.959500248359724;-1.11962890625;-0.328125;0.07421875;15.1875;-34.0;-237.5;
1441975662158897;0.4049072265625;-0.5574951171875;-0.50640869140625;-0.5185546875;17.11827473333647;12.536372978315416;16.562528226679888;-1.130859375;-0.26318359375;0.09814453125;31.625;-32.875;-197.6875;
1441975662181898;0.41448974609375;-0.54718017578125;-0.490966796875;-0.53643798828125;17.37393038757334;11.905697529789002;15.893864520086993;-1.08447265625;-0.22705078125;0.14208984375;31.125;-25.125;-163.6875;
1441975662205900;0.42034912109375;-0.53631591796875;-0.47698974609375;-0.55517578125;17.516148569214753;10.60796071782433;14.55039683368615;-1.1142578125;-0.19482421875;0.109375;32.4375;-23.5625;-147.25;
1441975662220901;0.42584228515625;-0.52618408203125;-0.4661865234375;-0.5697021484375;17.519043670460793;9.184387799676987;13.098875715403151;-1.197265625;-0.15673828125;0.08203125;40.0;-42.4375;-136.1875;
1441975662241902;0.4302978515625;-0.5205078125;-0.4564208984375;-0.579345703125;17.47820023331284;8.253206735767547;12.14083593232249;-1.2421875;-0.11767578125;0.072265625;23.25;-36.4375;-113.375;
1441975662263903;0.4346923828125;-0.515380859375;-0.44720458984375;-0.5877685546875;17.40449945239748;7.558329266014453;11.422337921938054;-1.197265625;0.0927734375;0.017578125;22.6875;-17.9375;-93.5625;
1441975662287904;0.44183349609375;-0.50592041015625;-0.43841552734375;-0.59722900390625;17.259129539378566;6.9634204746504125;10.822203438827247;-1.1416015625;0.185546875;-0.02880859375;19.0625;-17.3125;-95.4375;
1441975662301905;0.4505615234375;-0.493896484375;-0.43084716796875;-0.606201171875;17.07511642831589;6.56707523275124;10.437279124101117;-1.08447265625;0.21142578125;-0.01416015625;0.75;-21.6875;-103.875;
1441975662331907;0.45977783203125;-0.48199462890625;-0.42352294921875;-0.614013671875;16.88898105095158;6.2888924597569655;10.175514311511757;-1.0712890625;0.1259765625;0.0185546875;-15.5625;-27.8125;-108.4375;
1441975662340907;0.4703369140625;-0.46990966796875;-0.41473388671875;-0.621337890625;16.690109975358876;6.039649912039772;9.94407379038987;-1.01611328125;0.0537109375;-4.8828125E-4;-20.5625;-23.75;-105.25;
1441975662361909;0.48089599609375;-0.4566650390625;-0.40399169921875;-0.630126953125;16.457928446648083;5.84683700963229;9.762153760357618;-0.94873046875;-0.009765625;-0.01806640625;-23.0625;-16.375;-112.6875;
1441975662385910;0.4906005859375;-0.44293212890625;-0.391357421875;-0.640380859375;16.20212295520718;5.708227863462803;9.623236055141474;-0.93115234375;-0.13671875;0.01416015625;-16.4375;-18.4375;-125.0625;
1441975662399911;0.4971923828125;-0.4300537109375;-0.37744140625;-0.65228271484375;15.94357926691818;5.636990649950986;9.53115110887402;-0.931640625;-0.29443359375;-0.00146484375;-4.875;-21.3125;-132.25;
1441975662422912;0.501953125;-0.41864013671875;-0.36248779296875;-0.6644287109375;15.694710476099125;5.591689081931966;9.4511669532559;-0.94970703125;-0.30224609375;0.01953125;16.3125;-25.625;-131.0625;
1441975662444913;0.50750732421875;-0.40643310546875;-0.34735107421875;-0.67572021484375;15.440027993687732;5.547547331813464;9.378281602544014;-0.931640625;-0.23388671875;-0.01318359375;29.75;-22.1875;-128.875;
1441975662460914;0.51312255859375;-0.39373779296875;-0.33184814453125;-0.68670654296875;15.180085142628789;5.511268067364362;9.314016886896528;-0.86376953125;-0.203125;0.017578125;22.5625;-20.4375;-132.3125;
1441975662481916;0.51800537109375;-0.380615234375;-0.31573486328125;-0.697998046875;14.91337386889083;5.489361339476719;9.259671112290627;-0.873046875;-0.2353515625;0.04150390625;21.25;-20.5625;-135.0;
1441975662503917;0.52105712890625;-0.36846923828125;-0.298583984375;-0.70965576171875;14.652255834966503;5.482477539007631;9.206857274582049;-0.84033203125;-0.25830078125;0.07275390625;25.5;-21.75;-137.75;
1441975662527918;0.52178955078125;-0.35723876953125;-0.28070068359375;-0.7220458984375;14.397856926821987;5.495418622074755;9.158642756148414;-0.81201171875;-0.2841796875;0.0498046875;37.9375;-19.3125;-135.5625;
1441975662541919;0.5216064453125;-0.3455810546875;-0.26324462890625;-0.73431396484375;14.145684032792529;5.519094808977622;9.120002503672548;-0.8203125;-0.26123046875;0.0615234375;53.125;-19.4375;-133.5;
1441975662563920;0.52313232421875;-0.3338623046875;-0.24676513671875;-0.74432373046875;13.903873656272237;5.525894375804505;9.07883367138375;-0.7255859375;-0.16259765625;0.0986328125;53.8125;-22.6875;-131.6875;
1441975662586922;0.5257568359375;-0.322265625;-0.2314453125;-0.75244140625;13.674677032117582;5.522708855992432;9.039431533359705;-0.65185546875;-0.095703125;0.1259765625;37.75;-18.5;-128.125;
1441975662601922;0.5272216796875;-0.3118896484375;-0.2174072265625;-0.75994873046875;13.46896045562679;5.527460186239351;9.006313191003457;-0.60986328125;-0.171875;0.1650390625;24.5625;-15.875;-121.25;
1441975662623924;0.52667236328125;-0.3040771484375;-0.20599365234375;-0.76666259765625;13.309391451393685;5.544337691082422;8.982571201054359;-0.57568359375;-0.14111328125;0.16162109375;27.1875;-14.75;-109.3125;
1441975662639925;0.52447509765625;-0.297607421875;-0.1949462890625;-0.7735595703125;13.167424367406403;5.570834093614275;8.959459522756903;-0.52880859375;-0.13916015625;0.16357421875;28.0625;-13.875;-99.4375;
1441975662661926;0.5198974609375;-0.29205322265625;-0.18408203125;-0.78143310546875;13.03740481180734;5.614273385555252;8.939911706149045;-0.52294921875;-0.158203125;0.16943359375;36.875;-11.375;-90.375;
1441975662683927;0.5150146484375;-0.28729248046875;-0.17340087890625;-0.78875732421875;12.918502936512375;5.656325399245445;8.917281270883302;-0.43408203125;-0.0703125;0.13818359375;50.875;-13.1875;-83.75;
1441975662706928;0.511962890625;-0.28411865234375;-0.16436767578125;-0.79388427734375;12.82689773188649;5.680357871521483;8.89074156902582;-0.30224609375;0.0087890625;0.1083984375;51.0625;-8.0625;-77.1875;
1441975662721929;0.507568359375;-0.282958984375;-0.1572265625;-0.79852294921875;12.769616295620303;5.711166010976758;8.869100922377097;-0.2568359375;0.02587890625;0.08984375;35.5625;-0.875;-64.1875;
1441975662751931;0.4986572265625;-0.284912109375;-0.15191650390625;-0.804443359375;12.758042275013452;5.771718370292669;8.856324528270578;-0.30029296875;0.009765625;0.08984375;39.3125;1.25;-48.25;
1441975662766932;0.489990234375;-0.289306640625;-0.14996337890625;-0.80853271484375;12.793645581028942;5.8270754092459764;8.850956111546258;-0.3349609375;0.08349609375;0.07080078125;62.8125;2.125;-29.75;
1441975662781933;0.48370361328125;-0.2945556640625;-0.1507568359375;-0.810302734375;12.854802412542268;5.864441132892301;8.851083327856411;-0.36572265625;0.19189453125;0.03271484375;52.3125;4.1875;-11.9375;
1441975662805934;0.47705078125;-0.30291748046875;-0.15460205078125;-0.8104248046875;12.967803042338774;5.900075561146217;8.856909043920087;-0.39111328125;0.123046875;0.0185546875;33.125;5.1875;3.3125;
1441975662826935;0.4735107421875;-0.3160400390625;-0.1627197265625;-0.805908203125;13.15641466089382;5.902542493192409;8.85819777615563;-0.4150390625;0.18310546875;-0.0068359375;27.9375;11.4375;24.1875;
1441975662841936;0.4793701171875;-0.32928466796875;-0.17620849609375;-0.79425048828125;13.378330974692;5.831595410660009;8.857935772228064;-0.43896484375;0.4169921875;-0.1728515625;-0.8125;25.0625;45.0625;
1441975662863937;0.48248291015625;-0.34130859375;-0.19158935546875;-0.78363037109375;13.603387852925742;5.786932507859852;8.879969752907433;-0.61865234375;0.12255859375;-0.20751953125;-64.0625;26.9375;64.9375;
1441975662886939;0.4761962890625;-0.3609619140625;-0.20831298828125;-0.77435302734375;13.923237189787113;5.798469145585031;8.90714991372884;-0.69970703125;-0.056640625;-0.0625;-59.375;31.1875;101.3125;
1441975662901940;0.47332763671875;-0.38348388671875;-0.22900390625;-0.75927734375;14.304367217957171;5.7697690151885475;8.927222796407944;-0.7587890625;0.3154296875;-0.10546875;-9.125;48.0625;140.125;
1441975662923941;0.47039794921875;-0.40643310546875;-0.25457763671875;-0.74078369140625;14.731332513593536;5.743378387087652;8.972433522457804;-0.9658203125;0.35498046875;-0.37353515625;-42.0625;61.5625;163.125;
1441975662946942;0.458251953125;-0.43646240234375;-0.28143310546875;-0.72137451171875;15.256936355762953;5.780170320269799;9.037421125036428;-1.26513671875;0.107421875;-0.259765625;-61.875;58.5625;192.25;
1441975662961943;0.44854736328125;-0.470947265625;-0.31439208984375;-0.6915283203125;15.8963033556588;5.770765684111146;9.09847789074335;-1.3759765625;0.435546875;-0.1953125;-19.375;74.75;235.0;
1441975662985944;0.4432373046875;-0.50262451171875;-0.35784912109375;-0.65032958984375;16.61424645332917;5.7587894669219235;9.237993397236394;-1.7841796875;0.5615234375;-0.431640625;-64.0;103.25;280.6875;
1441975663006946;0.42279052734375;-0.5369873046875;-0.397705078125;-0.6121826171875;17.357370735716266;6.3012325411848495;9.853877500351027;-2.29833984375;0.1201171875;-0.25244140625;-144.1875;107.3125;332.3125;
1441975663022946;0.3797607421875;-0.58331298828125;-0.42413330078125;-0.5794677734375;17.63907482549718;12.014725344511906;15.48054825409509;-2.5498046875;-0.43505859375;0.03955078125;-65.3125;94.6875;373.625;
1441975663043948;0.3287353515625;-0.63262939453125;-0.44561767578125;-0.54156494140625;16.797290782710757;13.725934971218964;17.06632441352847;-2.52978515625;-0.0791015625;-0.052734375;96.125;101.5;413.0625;
1441975663066949;0.29248046875;-0.66497802734375;-0.48138427734375;-0.490478515625;15.904601835011798;13.945901136392363;17.327113152770668;-2.6767578125;0.68310546875;-0.32177734375;135.25;119.9375;442.75;
1441975663081950;0.26904296875;-0.6796875;-0.52899169921875;-0.43121337890625;15.054065774009393;13.900744271258706;17.469966674378696;-2.93408203125;0.70068359375;-0.1123046875;-30.8125;126.0625;435.0;
1441975663103951;0.23968505859375;-0.6939697265625;-0.56451416015625;-0.37738037109375;14.258777651493451;13.868530949152646;17.557870185154556;-2.68798828125;-0.005859375;0.2763671875;-174.9375;122.9375;412.4375;
1441975663126952;0.2054443359375;-0.71502685546875;-0.57904052734375;-0.3336181640625;13.564076831188677;13.939645898429326;17.619639453562243;-2.47509765625;-0.177734375;0.15478515625;-105.6875;101.375;388.3125;
1441975663142953;0.18023681640625;-0.7274169921875;-0.5933837890625;-0.29388427734375;12.989572156162813;13.961793481717352;17.67613251078277;-2.4013671875;0.1650390625;-0.11328125;24.1875;89.0625;338.5;
