1441975949427328;0.145263671875;-0.76702880859375;-0.61993408203125;-0.0797119140625;10.75992927056771;14.163323017372019;0.3737282960623604;-2.54296875;-0.1845703125;-0.2734375;-177.9375;90.0625;185.875;
1441975949458330;0.1358642578125;-0.75982666015625;-0.63348388671875;-0.05462646484375;10.478117716497186;14.0711420384396;0.4080138270207292;-2.06103515625;-0.47216796875;-0.17529296875;-151.1875;75.25;159.6875;
1441975949472330;0.13153076171875;-0.75555419921875;-0.64080810546875;-0.03582763671875;10.286727468077485;14.020727499953747;0.45095622913982064;-1.50830078125;-0.52490234375;-0.130859375;-101.625;62.375;130.75;
1441975949487331;0.13250732421875;-0.7523193359375;-0.6448974609375;-0.02447509765625;10.198914191909376;13.9916298154588;0.49387988522661563;-1.03857421875;-0.486328125;-0.1162109375;-64.1875;61.8125;104.875;
1441975949510333;0.13201904296875;-0.74993896484375;-0.6480712890625;-0.01373291015625;10.105252956106868;13.96808389554539;0.529017685999467;-0.6826171875;-0.31494140625;0.03173828125;-39.4375;57.5625;85.3125;
1441975949533334;0.13201904296875;-0.744873046875;-0.654052734375;-0.004638671875;10.034602242870061;13.922179053315164;0.5585663872920684;-0.3330078125;-0.09814453125;0.12109375;-23.375;47.125;63.6875;
1441975949547335;0.1336669921875;-0.7364501953125;-0.6632080078125;0.0015869140625;10.007562494824844;13.85111322337976;0.5829459450431163;-0.09130859375;0.0576171875;0.17529296875;-39.125;37.1875;35.625;
1441975949570336;0.13787841796875;-0.7266845703125;-0.67303466796875;0.00439453125;10.032278313909904;13.774369369690918;0.6051854669221397;0.0029296875;0.09423828125;0.119140625;-66.625;26.9375;8.875;
1441975949593337;0.144775390625;-0.7158203125;-0.68316650390625;0.00360107421875;10.11068325289554;13.69465465208949;0.6243489449342784;-0.04296875;0.216796875;0.06787109375;-74.6875;21.625;-14.5625;
1441975949607338;0.15264892578125;-0.70489501953125;-0.6927490234375;-0.001220703125;10.230985123899238;13.618121234588063;0.6311008685713028;-0.2109375;0.357421875;0.00927734375;-80.875;16.625;-31.0;
1441975949630339;0.15985107421875;-0.69500732421875;-0.70098876953125;-0.00921630859375;10.370392733345644;13.550474158665184;0.6219316885463562;-0.31982421875;0.47802734375;-0.037109375;-79.375;3.75;-46.0;
1441975949653341;0.166259765625;-0.68896484375;-0.70526123046875;-0.0189208984375;10.51037402504106;13.513540278447046;0.6050457696341347;-0.3603515625;0.5;-0.06787109375;-69.5625;-11.1875;-53.375;
1441975949667342;0.17156982421875;-0.6866455078125;-0.7059326171875;-0.02886962890625;10.63708752896612;13.505206659191199;0.5858277924401131;-0.36279296875;0.505859375;-0.06396484375;-37.0625;-18.0;-54.5;
1441975949698343;0.1756591796875;-0.686279296875;-0.70477294921875;-0.038818359375;10.750962146852633;13.510884849272818;0.5634996432609178;-0.33349609375;0.6279296875;-0.0478515625;-6.3125;-19.8125;-53.5625;
1441975949713344;0.1787109375;-0.68560791015625;-0.70404052734375;-0.049072265625;10.859663285065176;13.511831588154248;0.534900226077314;-0.3125;0.81494140625;-0.0361328125;10.0625;-22.0625;-53.0625;
1441975949734345;0.18084716796875;-0.68408203125;-0.70428466796875;-0.0587158203125;10.95738937137683;13.503676922486914;0.5033576487589679;-0.2919921875;0.8994140625;0.013671875;10.75;-27.1875;-54.875;
1441975949750346;0.1829833984375;-0.68121337890625;-0.7056884765625;-0.06756591796875;11.050435337962302;13.48462665814016;0.472936708144729;-0.25634765625;0.96826171875;0.03076171875;4.5;-29.3125;-54.6875;
1441975949773348;0.1854248046875;-0.6785888671875;-0.706787109375;-0.0755615234375;11.138403728870939;13.468030259742408;0.44738270359154286;-0.25048828125;0.95068359375;0.0546875;-5.1875;-27.125;-53.5;
1441975949787348;0.18731689453125;-0.67645263671875;-0.70751953125;-0.08270263671875;11.2142541096182;13.454389166392927;0.42335098757573336;-0.3095703125;0.93115234375;0.041015625;-5.5625;-22.625;-48.0625;
1441975949810350;0.1884765625;-0.67376708984375;-0.708984375;-0.08905029296875;11.278184223145857;13.43442712466955;0.3980639559306573;-0.333984375;1.0458984375;0.02392578125;-4.5;-21.6875;-44.0625;
1441975949833351;0.18896484375;-0.67108154296875;-0.71063232421875;-0.0950927734375;11.333832802060707;13.412686936289086;0.3706297650071447;-0.33251953125;1.0517578125;0.02783203125;-9.625;-22.5;-39.5625;
1441975949854352;0.188720703125;-0.66949462890625;-0.71142578125;-0.1005859375;11.37766058844196;13.398541696277746;0.343823594293151;-0.3388671875;0.9609375;0.04443359375;-10.3125;-23.8125;-33.5;
1441975949870353;0.18792724609375;-0.66851806640625;-0.7117919921875;-0.10577392578125;11.413735770243896;13.388212499219138;0.31670716777605057;-0.3408203125;0.97802734375;0.0390625;-3.1875;-23.75;-28.5;
1441975949893355;0.186767578125;-0.668701171875;-0.711181640625;-0.1107177734375;11.443697179282513;13.386716984158097;0.2909224709090883;-0.36767578125;0.94970703125;0.0576171875;1.9375;-23.3125;-22.875;
1441975949914356;0.18572998046875;-0.669189453125;-0.71014404296875;-0.115966796875;11.476965169647984;13.388154914942579;0.2649781183870448;-0.37353515625;0.9521484375;0.03515625;8.9375;-22.9375;-19.9375;
1441975949930357;0.18524169921875;-0.66949462890625;-0.70904541015625;-0.12164306640625;11.518448631067061;13.389165745612502;0.23938391345255738;-0.41357421875;0.97900390625;0.0263671875;11.5625;-23.0625;-19.8125;
1441975949953358;0.185302734375;-0.67059326171875;-0.7069091796875;-0.12774658203125;11.567622333931373;13.398245473731714;0.2160680902562182;-0.44921875;0.880859375;0.04052734375;12.3125;-22.0625;-19.5625;
1441975949974359;0.18621826171875;-0.6724853515625;-0.7037353515625;-0.13397216796875;11.624680075498949;13.416061416288882;0.19783958761643758;-0.48681640625;0.7919921875;0.041015625;19.6875;-20.375;-18.875;
1441975949990360;0.18865966796875;-0.67449951171875;-0.69989013671875;-0.14031982421875;11.69580532406889;13.438953514019238;0.1868040379167049;-0.53173828125;0.7451171875;0.0478515625;27.5625;-15.0625;-18.625;
1441975950013361;0.19317626953125;-0.67559814453125;-0.69622802734375;-0.147216796875;11.789386564174144;13.458980946923928;0.18169584030296565;-0.58349609375;0.71044921875;0.0380859375;28.8125;-8.4375;-21.875;
1441975950034363;0.1998291015625;-0.675048828125;-0.693115234375;-0.155029296875;11.909650473760475;13.47108400855536;0.18004074415902055;-0.63232421875;0.634765625;0.0234375;23.5;-3.8125;-28.5;
1441975950050364;0.209228515625;-0.672119140625;-0.69110107421875;-0.16412353515625;12.064901095238008;13.469910509713186;0.18126043029095582;-0.6767578125;0.62451171875;-0.001953125;12.375;-1.0;-40.125;
1441975950073365;0.2210693359375;-0.66754150390625;-0.689208984375;-0.17498779296875;12.256719279295751;13.462113183150727;0.1834610228574275;-0.72314453125;0.5546875;-0.00244140625;-2.125;1.1875;-53.75;
1441975950094366;0.23590087890625;-0.66156005859375;-0.6865234375;-0.18817138671875;12.494968929488286;13.453123147041254;0.18801565246173207;-0.77197265625;0.50537109375;-0.01318359375;-10.3125;2.0;-69.5;
1441975950110367;0.25128173828125;-0.655517578125;-0.68359375;-0.1998291015625;12.726375497239516;13.448215946869533;0.2025794105690352;-0.806640625;0.388671875;-0.03125;-13.8125;3.5;-88.4375;
1441975950133368;0.26934814453125;-0.6492919921875;-0.67877197265625;-0.212646484375;12.992175898843586;13.455843572977248;0.22843795536625983;-0.84326171875;0.318359375;-0.07373046875;-14.5;12.6875;-107.125;
1441975950154369;0.2899169921875;-0.6424560546875;-0.67169189453125;-0.228271484375;13.305689755751002;13.474610100943904;0.25855654220311847;-0.94287109375;0.39111328125;-0.13623046875;-10.375;20.875;-124.5;
1441975950178371;0.31231689453125;-0.6329345703125;-0.6644287109375;-0.24578857421875;13.656395210137468;13.484460535191985;0.28686698780611036;-1.09423828125;0.56787109375;-0.18798828125;-4.0;22.1875;-149.3125;
1441975950194372;0.3355712890625;-0.62158203125;-0.65606689453125;-0.26593017578125;14.042764128554927;13.490241306185842;0.3073997553397956;-1.21875;0.59716796875;-0.22265625;-12.5625;18.6875;-168.4375;
1441975950214373;0.3582763671875;-0.61090087890625;-0.6444091796875;-0.2884521484375;14.450442302242566;13.515264970609797;0.32623147390566654;-1.23828125;0.46875;-0.22607421875;-12.25;11.5;-185.625;
1441975950230374;0.38055419921875;-0.60076904296875;-0.62939453125;-0.31341552734375;14.881751584854047;13.562953299877162;0.3478794267683016;-1.2255859375;0.37646484375;-0.21630859375;7.8125;8.125;-197.0;
1441975950253375;0.40301513671875;-0.58746337890625;-0.614501953125;-0.33892822265625;15.331712826633993;13.596026053464383;0.3644175931431211;-1.28466796875;0.52490234375;-0.26806640625;27.1875;5.3125;-212.375;
1441975950274376;0.42572021484375;-0.570556640625;-0.60113525390625;-0.36322021484375;15.785699317959608;13.602470810736461;0.3742714235253979;-1.3740234375;0.56884765625;-0.2802734375;16.125;-2.3125;-223.5;
1441975950290377;0.4476318359375;-0.553955078125;-0.586181640625;-0.3863525390625;16.23108248513005;13.635454559371864;0.4066380220370609;-1.3203125;0.46923828125;-0.17138671875;-3.3125;-6.125;-225.875;
1441975950313379;0.4681396484375;-0.53955078125;-0.568359375;-0.40838623046875;16.659461347942823;13.753104689412561;0.5086364712677232;-1.24951171875;0.33642578125;0.0146484375;2.375;2.3125;-222.1875;
1441975950334380;0.48712158203125;-0.52618408203125;-0.54913330078125;-0.4293212890625;17.0670516679159;14.002548003363128;0.7347081686204519;-1.2744140625;0.32568359375;0.005859375;19.5;13.3125;-216.0;
1441975950350381;0.5045166015625;-0.512451171875;-0.52978515625;-0.44970703125;17.451719068182346;14.549732947604515;1.2566854294674483;-1.34765625;0.35791015625;-0.03564453125;27.625;17.3125;-210.375;
1441975950373382;0.52105712890625;-0.4981689453125;-0.5103759765625;-0.46893310546875;17.747778174818787;16.661291664678455;3.345657982734266;-1.408203125;0.39013671875;-0.05908203125;29.4375;13.625;-207.0625;
1441975950394383;0.5374755859375;-0.48321533203125;-0.49151611328125;-0.48590087890625;17.626908383114767;2.3313870433352135;7.003028747545741;-1.46337890625;0.37841796875;-0.09765625;26.875;12.125;-204.375;
1441975950410384;0.55316162109375;-0.4681396484375;-0.47308349609375;-0.5010986328125;17.297907463127885;3.286748589127252;7.9503862812111095;-1.4189453125;0.423828125;-0.0810546875;16.875;15.625;-200.5625;
1441975950432385;0.5657958984375;-0.45458984375;-0.4552001953125;-0.515869140625;16.97417670602559;3.6268224292885183;8.27219059629856;-1.3017578125;0.39404296875;-0.06787109375;12.25;16.5625;-193.25;
1441975950454387;0.575439453125;-0.44232177734375;-0.4383544921875;-0.53021240234375;16.677633790515255;3.823778935377149;8.442775917379809;-1.2470703125;0.33740234375;-0.06103515625;22.1875;12.625;-177.8125;
1441975950470388;0.5830078125;-0.4312744140625;-0.4219970703125;-0.54412841796875;16.401661014777385;3.958531366687021;8.544167585085464;-1.20849609375;0.36181640625;-0.048828125;30.4375;6.3125;-162.9375;
1441975950492389;0.59039306640625;-0.42095947265625;-0.4066162109375;-0.5557861328125;16.145031478433268;4.03385877263856;8.592679758825494;-1.0888671875;0.36767578125;-0.06640625;37.125;3.875;-151.5;
1441975950514390;0.597412109375;-0.41162109375;-0.39288330078125;-0.5650634765625;15.916725271585701;4.074082133225523;8.61372825265824;-0.974609375;0.35400390625;-0.05029296875;29.5;8.625;-140.0;
1441975950530391;0.60235595703125;-0.4044189453125;-0.3809814453125;-0.5731201171875;15.729929053039005;4.107011764965384;8.6239541598019;-0.8837890625;0.30029296875;0.00927734375;20.75;11.625;-124.1875;
1441975950552392;0.6021728515625;-0.40234375;-0.37481689453125;-0.578857421875;15.65139098637628;4.147406254661803;8.635083832534605;-0.81591796875;0.23486328125;0.0693359375;23.0;11.4375;-102.125;
1441975950575394;0.60107421875;-0.40228271484375;-0.37164306640625;-0.58203125;15.621309245252627;4.170827152445697;8.636876083666554;-0.7529296875;0.29443359375;0.08837890625;28.8125;9.3125;-79.125;
1441975950590394;0.60125732421875;-0.40277099609375;-0.37213134765625;-0.58123779296875;15.629898038337432;4.161298843336977;8.630212570148013;-0.6806640625;0.37353515625;0.07568359375;20.8125;8.0625;-57.8125;
1441975950612396;0.60345458984375;-0.40264892578125;-0.37628173828125;-0.57635498046875;15.666771176955496;4.119082334785407;8.621224766924609;-0.62109375;0.44091796875;0.05029296875;-3.5;7.5625;-40.75;
1441975950636397;0.60626220703125;-0.402587890625;-0.38360595703125;-0.56854248046875;15.735159025835268;4.057558759778981;8.612304531540374;-0.5966796875;0.41796875;0.05517578125;-33.875;6.5;-24.0;
1441975950650398;0.6087646484375;-0.4034423828125;-0.39361572265625;-0.55841064453125;15.838870966760885;3.9791297212351973;8.597329337154118;-0.615234375;0.36865234375;0.0654296875;-53.5625;4.75;-5.875;
1441975950672399;0.61053466796875;-0.4051513671875;-0.40618896484375;-0.5460205078125;15.97846446457697;3.8836619481808183;8.57444701871475;-0.63720703125;0.3466796875;0.0400390625;-64.1875;2.0;13.625;
1441975950696400;0.61126708984375;-0.407470703125;-0.42071533203125;-0.5323486328125;16.145956499702148;3.7781353341274744;8.545744155561954;-0.6728515625;0.32568359375;0.01220703125;-72.6875;-1.9375;32.5625;
1441975950710401;0.60986328125;-0.41082763671875;-0.43646240234375;-0.51849365234375;16.34039263715473;3.6723597011852234;8.51128850912547;-0.70947265625;0.27001953125;-0.013671875;-76.75;-7.5625;50.5625;
1441975950739403;0.605224609375;-0.41607666015625;-0.4527587890625;-0.505615234375;16.56358789781783;3.574304734802413;8.46813829229335;-0.7685546875;0.1923828125;-0.029296875;-71.375;-13.9375;68.875;
1441975950755404;0.5970458984375;-0.42303466796875;-0.4676513671875;-0.49591064453125;16.794489610835058;3.5093087004583077;8.42954527867189;-0.8427734375;0.1142578125;-0.0537109375;-54.875;-21.6875;88.25;
1441975950776405;0.5841064453125;-0.43353271484375;-0.48187255859375;-0.48858642578125;17.058101154875118;3.458202763738278;8.372076792283082;-0.92724609375;0.0517578125;-0.08154296875;-27.0625;-30.0;107.8125;
1441975950792406;0.56707763671875;-0.44720458984375;-0.49505615234375;-0.4830322265625;17.34783908241716;3.383044313002612;8.261795578981452;-0.98193359375;0.03076171875;-0.1259765625;6.0;-36.9375;124.3125;
1441975950815407;0.54736328125;-0.46295166015625;-0.50732421875;-0.478271484375;17.652588079749865;3.1342137775932537;7.959580999983948;-1.00146484375;0.04931640625;-0.1650390625;34.3125;-41.0625;137.625;
1441975950837409;0.52545166015625;-0.48016357421875;-0.5185546875;-0.4737548828125;17.923712249255402;17.975994725044323;4.734170707722861;-1.0166015625;0.05810546875;-0.2041015625;52.625;-43.0625;147.375;
1441975950859410;0.5020751953125;-0.49853515625;-0.5284423828125;-0.46917724609375;17.680216980542244;13.563591787415735;0.24361547336806055;-1.06201171875;0.05224609375;-0.19482421875;66.1875;-42.9375;154.9375;
1441975950875411;0.47808837890625;-0.51800537109375;-0.53680419921875;-0.46368408203125;17.35152912193305;13.341044973946776;17.9363189749634;-1.07373046875;0.0576171875;-0.1728515625;77.1875;-39.75;160.0;
1441975950904412;0.4542236328125;-0.53814697265625;-0.54388427734375;-0.4564208984375;17.01579030179365;13.36237615091259;17.872554880745227;-1.05859375;0.08251953125;-0.138671875;83.375;-31.4375;164.375;
1441975950912413;0.43115234375;-0.55841064453125;-0.55010986328125;-0.4468994140625;16.67591400997506;13.442149943007099;17.872795652219406;-1.06201171875;0.1181640625;-0.1181640625;84.1875;-19.8125;168.3125;
1441975950943415;0.4090576171875;-0.57830810546875;-0.5557861328125;-0.4351806640625;16.33328973495004;13.534838460103943;17.89398282677842;-1.06005859375;0.15234375;-0.09619140625;79.1875;-7.5625;171.5625;
1441975950958415;0.38824462890625;-0.59722900390625;-0.56103515625;-0.4217529296875;15.994347694658654;13.623499003644515;17.92068193452424;-1.09765625;0.18212890625;-0.078125;71.9375;3.375;173.6875;
1441975950972416;0.36920166015625;-0.61474609375;-0.56597900390625;-0.40679931640625;15.664122454576642;13.70540361613119;17.952679130617714;-1.11767578125;0.22900390625;-0.0615234375;63.0;12.4375;172.3125;
1441975950995418;0.352783203125;-0.630126953125;-0.57086181640625;-0.39068603515625;15.352300077072895;13.776703945712327;17.99062488232648;-1.1015625;0.26953125;-0.072265625;51.875;20.625;167.0;
1441975951016419;0.3394775390625;-0.6427001953125;-0.57635498046875;-0.37359619140625;15.063117849577084;13.831040571854697;0.033390841821888256;-1.076171875;0.30712890625;-0.08056640625;36.5625;28.375;157.6875;
1441975951032420;0.3294677734375;-0.65234375;-0.58251953125;-0.3558349609375;14.800072233540469;13.869458305573461;0.08267278017834687;-1.04833984375;0.31787109375;-0.091796875;15.8125;35.0;145.75;
1441975951056421;0.32257080078125;-0.65911865234375;-0.58941650390625;-0.337890625;14.565123194395929;13.891677370183896;0.1366647044576914;-1.01220703125;0.32470703125;-0.10302734375;-4.375;40.5625;131.875;
1441975951076422;0.31866455078125;-0.6629638671875;-0.5970458984375;-0.32025146484375;14.3617031717184;13.897469509843809;0.19387456727178418;-0.9658203125;0.33251953125;-0.10693359375;-23.625;44.625;116.875;
1441975951092423;0.31884765625;-0.6640625;-0.60345458984375;-0.305419921875;14.222211275270395;13.899713736361695;0.2568505049340044;-0.94775390625;0.306640625;-0.12548828125;-41.5;46.3125;101.6875;
1441975951115424;0.32037353515625;-0.6639404296875;-0.6094970703125;-0.291748046875;14.106812440441571;13.897198847154078;0.3187519488625884;-0.93603515625;0.28857421875;-0.12548828125;-51.5625;45.9375;87.75;
1441975951136426;0.32318115234375;-0.66290283203125;-0.61492919921875;-0.2794189453125;14.016087057389345;13.893252842172318;0.38042087042203554;-0.89501953125;0.296875;-0.12646484375;-54.5625;44.8125;74.625;
1441975951152427;0.3272705078125;-0.6610107421875;-0.6195068359375;-0.26873779296875;13.952875457813743;13.889731197018774;0.44172366313512657;-0.853515625;0.31298828125;-0.1337890625;-55.4375;43.3125;60.8125;
1441975951175428;0.33258056640625;-0.6583251953125;-0.623291015625;-0.25994873046875;13.91828909098152;13.886554005750472;0.5014809469781197;-0.82373046875;0.31689453125;-0.13623046875;-54.6875;41.3125;46.0;
1441975951196429;0.33892822265625;-0.6551513671875;-0.6259765625;-0.25323486328125;13.912013379514889;13.886874170804711;0.5596872887822202;-0.79638671875;0.31884765625;-0.1328125;-52.375;38.875;31.3125;
1441975951212430;0.34637451171875;-0.651611328125;-0.62744140625;-0.24871826171875;13.935030656275046;13.892704534002288;0.6172495657674744;-0.7763671875;0.32177734375;-0.134765625;-47.8125;36.125;16.125;
1441975951235431;0.35467529296875;-0.64752197265625;-0.6278076171875;-0.2467041015625;13.988597123180949;13.901776251768224;0.6710253145443824;-0.7724609375;0.33154296875;-0.140625;-41.875;33.125;0.8125;
1441975951264433;0.3636474609375;-0.64312744140625;-0.6270751953125;-0.24700927734375;14.06888040271042;13.915699361792292;0.7218182047043109;-0.7685546875;0.32958984375;-0.13427734375;-35.625;28.4375;-14.5;
1441975951272433;0.3731689453125;-0.63812255859375;-0.62548828125;-0.24981689453125;14.17738906188719;13.931286330120916;0.7671500294473879;-0.7685546875;0.33984375;-0.13623046875;-29.0625;23.9375;-29.1875;
1441975951295435;0.38275146484375;-0.63287353515625;-0.622802734375;-0.2552490234375;14.31098349840281;13.950393471058346;0.8052445556359284;-0.7763671875;0.3291015625;-0.1298828125;-23.25;18.1875;-42.8125;
1441975951316436;0.3916015625;-0.6278076171875;-0.61907958984375;-0.26336669921875;14.463266558331183;13.97163510384229;0.8311916870823797;-0.78662109375;0.31494140625;-0.12158203125;-14.0625;10.8125;-54.375;
1441975951332437;0.39990234375;-0.6226806640625;-0.614501953125;-0.27349853515625;14.63078502353613;13.99425713034799;0.8483465112119813;-0.80322265625;0.33349609375;-0.107421875;-1.875;2.3125;-64.5;
1441975951355438;0.40826416015625;-0.61688232421875;-0.60943603515625;-0.28533935546875;14.817006871640352;14.0154816534414;0.8596868070674781;-0.82275390625;0.36669921875;-0.10498046875;6.8125;-5.125;-74.375;
1441975951378439;0.41693115234375;-0.61016845703125;-0.60400390625;-0.29852294921875;15.021443263732326;14.034781507380501;0.8676878489120485;-0.85009765625;0.3916015625;-0.10302734375;10.5;-10.6875;-85.1875;
1441975951392440;0.4254150390625;-0.6026611328125;-0.59857177734375;-0.3123779296875;15.234491162516122;14.04838134098936;0.8699701410006799;-0.884765625;0.40380859375;-0.091796875;11.875;-14.625;-95.25;
1441975951406441;0.4342041015625;-0.59393310546875;-0.59307861328125;-0.32708740234375;15.462923128509937;14.055471018824635;0.8676580344857553;-0.93115234375;0.39111328125;-0.0751953125;11.5;-18.75;-104.0;
1441975951428442;0.44268798828125;-0.58441162109375;-0.5877685546875;-0.34222412109375;15.697067059118076;14.051999876392907;0.8556607301997785;-0.9658203125;0.37109375;-0.06201171875;9.375;-22.5625;-110.4375;
1441975951451444;0.4510498046875;-0.57403564453125;-0.58270263671875;-0.357177734375;15.933266526819194;14.03755898993105;0.8362782501685923;-0.99609375;0.345703125;-0.03173828125;7.4375;-26.3125;-113.0625;
1441975951466445;0.45916748046875;-0.563232421875;-0.5780029296875;-0.3714599609375;16.164222043984925;14.011989687158152;0.8094891313877193;-1.01806640625;0.32763671875;-0.00244140625;4.0625;-28.4375;-113.875;
1441975951488446;0.46728515625;-0.55194091796875;-0.573974609375;-0.38421630859375;16.384001846173554;13.974855615451752;0.7791045785763511;-1.02734375;0.3017578125;0.029296875;0.125;-28.5;-111.25;
1441975951511447;0.47552490234375;-0.54052734375;-0.5704345703125;-0.3953857421875;16.591285494723685;13.932036149749642;0.7498530249771638;-1.03466796875;0.2900390625;0.0498046875;-7.625;-26.125;-107.0625;
1441975951526448;0.4830322265625;-0.52923583984375;-0.5679931640625;-0.40496826171875;16.777938666280065;13.863606856959597;0.700376838219971;-1.03857421875;0.24462890625;0.0595703125;-14.0625;-22.25;-100.6875;
1441975951548449;0.4892578125;-0.519775390625;-0.5654296875;-0.41326904296875;16.93749896217694;13.796310681879225;0.6465064562898617;-1.02685546875;0.23583984375;0.0703125;-18.8125;-17.3125;-92.1875;
1441975951574451;0.49456787109375;-0.511962890625;-0.5628662109375;-0.420166015625;17.071907818695276;13.73731819096253;0.5976982102474302;-1.02734375;0.24462890625;0.076171875;-13.0625;-13.25;-81.8125;
1441975951586451;0.500732421875;-0.50384521484375;-0.56134033203125;-0.4246826171875;17.191498457632715;13.686188483630236;0.5699978754692108;-1.0283203125;0.24462890625;0.05908203125;-10.125;-9.5625;-71.375;
1441975951608453;0.50628662109375;-0.496826171875;-0.560791015625;-0.4271240234375;17.282602962396492;13.643212944795723;0.5543832937537941;-1.0400390625;0.19384765625;0.0361328125;-22.9375;-5.4375;-62.5625;
1441975951632454;0.51116943359375;-0.490966796875;-0.56036376953125;-0.42864990234375;17.356369830880908;13.617433896092788;0.5537317395861874;-1.01025390625;0.26123046875;0.0107421875;-27.4375;-3.4375;-54.875;
1441975951646455;0.51507568359375;-0.48663330078125;-0.55987548828125;-0.4295654296875;17.41189566377648;13.615432224924934;0.5712816216515958;-1.00146484375;0.25244140625;9.765625E-4;-25.0;-1.4375;-46.5625;
1441975951677457;0.51806640625;-0.48345947265625;-0.5594482421875;-0.4300537109375;17.45236143893997;13.62602961647349;0.5969133580094159;-0.98486328125;0.26416015625;-0.0234375;-19.75;-0.625;-39.5625;
1441975951692457;0.5198974609375;-0.48162841796875;-0.55908203125;-0.430419921875;17.47736723191634;13.639216863098298;0.6184735322164367;-0.96435546875;0.2685546875;-0.02880859375;-15.0;-0.1875;-32.4375;
1441975951706458;0.5205078125;-0.4810791015625;-0.55853271484375;-0.430908203125;17.48973881886783;13.652259111143733;0.6318646079724168;-0.94970703125;0.26611328125;-0.03173828125;-8.375;-0.5625;-25.4375;
1441975951728459;0.52001953125;-0.481689453125;-0.55804443359375;-0.431396484375;17.48893799261815;13.658589071049793;0.6322351069988472;-0.931640625;0.27001953125;-0.04345703125;-0.6875;-1.8125;-19.1875;
1441975951751461;0.51849365234375;-0.483154296875;-0.55780029296875;-0.4320068359375;17.477144885352594;13.641600326414762;0.6041847894030824;-0.9228515625;0.271484375;-0.056640625;5.8125;-3.625;-13.0;
1441975951766462;0.51617431640625;-0.48529052734375;-0.55780029296875;-0.432373046875;17.45425823984197;13.616155006019826;0.5649133051580224;-0.9111328125;0.26708984375;-0.05517578125;10.75;-5.6875;-7.0;
1441975951788463;0.51324462890625;-0.4876708984375;-0.55828857421875;-0.4326171875;17.423403933440202;13.568414062403317;0.5026452513466415;-0.912109375;0.26904296875;-0.06103515625;13.3125;-7.375;-1.0;
1441975951812464;0.509521484375;-0.49078369140625;-0.558837890625;-0.4327392578125;17.382553114085145;13.524442957135134;0.44032780383112474;-0.92041015625;0.23046875;-0.04833984375;13.75;-8.5625;5.625;
1441975951834466;0.50482177734375;-0.49505615234375;-0.55938720703125;-0.43267822265625;17.328102276995658;13.495130799838247;0.38707058381451914;-0.9296875;0.2080078125;-0.03955078125;18.0;-8.875;13.125;
1441975951857467;0.49945068359375;-0.500244140625;-0.55987548828125;-0.43231201171875;17.262821969297622;13.485285616517965;0.3494438825938389;-0.9287109375;0.2021484375;-0.02978515625;23.1875;-8.125;20.625;
1441975951872468;0.493408203125;-0.50628662109375;-0.560546875;-0.43133544921875;17.183982677309277;13.49020616644463;0.32450529396472905;-0.93798828125;0.19140625;-0.029296875;27.125;-6.75;28.0;
1441975951894469;0.4871826171875;-0.51300048828125;-0.56121826171875;-0.4296875;17.09600705190329;13.516756302598395;0.3206714606724685;-0.95068359375;0.18994140625;-0.021484375;29.4375;-5.0;35.1875;
1441975951908470;0.48077392578125;-0.5201416015625;-0.5618896484375;-0.4273681640625;17.00021124485581;13.55490500117262;0.32863809337730804;-0.95263671875;0.19140625;-0.03125;29.9375;-2.75;41.25;
1441975951932471;0.474365234375;-0.52777099609375;-0.5625;-0.42437744140625;16.8974832167771;13.605808190000626;0.3496970579483109;-0.955078125;0.18896484375;-0.03125;30.0;0.1875;46.5625;
1441975951954472;0.468017578125;-0.5357666015625;-0.56298828125;-0.4207763671875;16.78936287444816;13.665052755810724;0.37960924205807356;-0.9609375;0.18505859375;-0.03564453125;29.875;3.0625;51.25;
1441975951968473;0.4617919921875;-0.5438232421875;-0.56353759765625;-0.41650390625;16.67649005066332;13.724769319363087;0.41226577503134293;-0.96923828125;0.18994140625;-0.04736328125;29.375;5.875;54.8125;
1441975951991475;0.45611572265625;-0.55157470703125;-0.5643310546875;-0.4114990234375;16.562017348995035;13.782767229667748;0.44844825686207374;-0.9697265625;0.2119140625;-0.05126953125;27.125;8.9375;56.875;
1441975952014476;0.45111083984375;-0.558837890625;-0.56536865234375;-0.40576171875;16.44754676478455;13.838090819260014;0.48810093726630827;-0.95947265625;0.23046875;-0.0498046875;22.5625;11.9375;57.375;
1441975952028477;0.44677734375;-0.56536865234375;-0.56671142578125;-0.3995361328125;16.33588566956276;13.885894571943641;0.526569205722541;-0.955078125;0.24072265625;-0.05615234375;16.3125;14.5625;57.1875;
1441975952051478;0.44317626953125;-0.57122802734375;-0.5682373046875;-0.39300537109375;16.228822136745332;13.92870871969032;0.5655100451574078;-0.94775390625;0.24755859375;-0.0537109375;10.5625;16.5;56.25;
1441975952074479;0.44024658203125;-0.576416015625;-0.56988525390625;-0.38641357421875;16.12805166442777;13.966043150397622;0.6033849107001974;-0.94775390625;0.25048828125;-0.056640625;5.25;18.0625;54.5625;
1441975952088480;0.43798828125;-0.5809326171875;-0.5714111328125;-0.3797607421875;16.034429362624934;14.001516148318235;0.6431380584946518;-0.94580078125;0.25341796875;-0.056640625;0.9375;19.25;52.0625;
1441975952111481;0.43634033203125;-0.584716796875;-0.572998046875;-0.37335205078125;15.949635993427513;14.031129214238351;0.6804050243747577;-0.94091796875;0.25537109375;-0.0693359375;-2.6875;20.0;48.8125;
1441975952134483;0.435302734375;-0.587890625;-0.574462890625;-0.3673095703125;15.874564840314468;14.058117476299158;0.7171821053099258;-0.93701171875;0.2626953125;-0.064453125;-5.6875;20.125;44.875;
1441975952148484;0.43487548828125;-0.59033203125;-0.57586669921875;-0.36175537109375;15.810691403769905;14.081056816889259;0.7522215401671228;-0.93798828125;0.2734375;-0.07275390625;-7.8125;19.875;39.875;
1441975952171485;0.4351806640625;-0.591796875;-0.57720947265625;-0.3568115234375;15.76106065522354;14.099384220695645;0.7856738334947977;-0.94482421875;0.28369140625;-0.076171875;-10.1875;18.875;34.1875;
1441975952194486;0.43609619140625;-0.5924072265625;-0.57855224609375;-0.3525390625;15.724687274450744;14.11285405871576;0.8165674030456019;-0.93798828125;0.2822265625;-0.083984375;-13.25;17.1875;28.0625;
1441975952208487;0.4373779296875;-0.59228515625;-0.5797119140625;-0.34918212890625;15.702122144646099;14.122017769695798;0.8431347394444076;-0.92529296875;0.27392578125;-0.0849609375;-15.6875;15.25;22.125;
1441975952231488;0.43890380859375;-0.591796875;-0.58050537109375;-0.3468017578125;15.691670409870401;14.130485612197226;0.8668215968795415;-0.919921875;0.2587890625;-0.07470703125;-15.6875;13.0;16.625;
1441975952254490;0.44073486328125;-0.5909423828125;-0.5809326171875;-0.34521484375;15.692196821564055;14.139628943708683;0.8897159324149762;-0.919921875;0.25439453125;-0.07373046875;-14.0625;10.9375;11.375;
1441975952268490;0.4427490234375;-0.58966064453125;-0.5811767578125;-0.34442138671875;15.702935143648038;14.146491131750334;0.9092101811566904;-0.91796875;0.25390625;-0.07958984375;-12.4375;9.125;5.9375;
1441975952291492;0.44500732421875;-0.58782958984375;-0.58123779296875;-0.34442138671875;15.724936858214928;14.150874300391042;0.9256432132706937;-0.91552734375;0.26220703125;-0.07568359375;-11.5;7.25;0.4375;
1441975952314493;0.44744873046875;-0.585693359375;-0.5810546875;-0.34521484375;15.756647920833998;14.154635246020003;0.9397808750937138;-0.91796875;0.2568359375;-0.0693359375;-11.0;4.9375;-4.5625;
1441975952328494;0.449951171875;-0.58331298828125;-0.5806884765625;-0.34661865234375;15.795471317886232;14.157278818782846;0.9513296882792263;-0.9208984375;0.255859375;-0.0673828125;-9.625;2.8125;-9.125;
1441975952351495;0.45257568359375;-0.58056640625;-0.5802001953125;-0.3486328125;15.842280609892756;14.157783796092346;0.9599793508225855;-0.9150390625;0.2529296875;-0.06884765625;-8.4375;0.6875;-13.1875;
1441975952366496;0.45513916015625;-0.5777587890625;-0.5794677734375;-0.3511962890625;15.89419846210792;14.158192377421477;0.9661823338948816;-0.9130859375;0.25537109375;-0.0625;-7.25;-0.9375;-17.0625;
1441975952388497;0.457763671875;-0.5745849609375;-0.57879638671875;-0.35406494140625;15.950880062187785;14.154839453021268;0.9691363409716003;-0.921875;0.26708984375;-0.0634765625;-5.75;-2.625;-20.625;
1441975952411499;0.46063232421875;-0.57098388671875;-0.578125;-0.35723876953125;16.013765733231978;14.149333257803399;0.9709692756171567;-0.92431640625;0.279296875;-0.0693359375;-6.0625;-4.625;-24.375;
1441975952434500;0.46356201171875;-0.5667724609375;-0.57769775390625;-0.36083984375;16.08334424450378;14.134976675278827;0.9653334617104666;-0.93115234375;0.2802734375;-0.0712890625;-7.625;-6.5;-27.6875;
1441975952448501;0.4664306640625;-0.5625;-0.57708740234375;-0.36480712890625;16.156384023687234;14.119395633441796;0.9568530278386234;-0.93408203125;0.26318359375;-0.05908203125;-8.8125;-8.5;-29.9375;
1441975952471502;0.46905517578125;-0.55828857421875;-0.5762939453125;-0.36907958984375;16.230752126443004;14.101699085394227;0.9439563726598748;-0.9365234375;0.25;-0.0546875;-7.75;-10.0;-31.5;
1441975952494503;0.47149658203125;-0.5543212890625;-0.5751953125;-0.3736572265625;16.30597754516072;14.085219367566562;0.9292564780307456;-0.93994140625;0.2470703125;-0.05517578125;-5.25;-11.0625;-32.5625;
1441975952508504;0.47369384765625;-0.55047607421875;-0.573974609375;-0.37835693359375;16.380523869674132;14.066658665776862;0.9107304106623586;-0.95458984375;0.25390625;-0.05126953125;-2.5625;-11.6875;-33.6875;
1441975952531505;0.47576904296875;-0.54656982421875;-0.5728759765625;-0.3831787109375;16.45530494961257;14.041842829538508;0.8857624282334204;-0.96142578125;0.25830078125;-0.0517578125;-1.0;-12.375;-34.6875;
1441975952554507;0.4776611328125;-0.54290771484375;-0.5716552734375;-0.3878173828125;16.52656424660578;14.017702794108208;0.8604569294571576;-0.94775390625;0.248046875;-0.03515625;-0.625;-12.8125;-34.8125;
1441975952568508;0.47930908203125;-0.53961181640625;-0.57037353515625;-0.3922119140625;16.59260704369951;13.994404698015018;0.8347957482936863;-0.94384765625;0.25048828125;-0.03466796875;0.5;-12.5;-34.0625;
1441975952591509;0.4808349609375;-0.53656005859375;-0.569091796875;-0.3963623046875;16.654603553958363;13.971594566772854;0.8092951642644453;-0.94091796875;0.2529296875;-0.03369140625;1.8125;-11.75;-32.9375;
1441975952614510;0.4822998046875;-0.53369140625;-0.5679931640625;-0.4000244140625;16.710782727736564;13.94867468517213;0.7849487761458507;-0.93798828125;0.25341796875;-0.02978515625;2.0;-10.6875;-31.8125;
1441975952628511;0.4837646484375;-0.53094482421875;-0.56719970703125;-0.403076171875;16.76049737339823;13.925184385140032;0.7623468250600224;-0.93896484375;0.26025390625;-0.02490234375;0.9375;-9.5;-30.1875;
1441975952651512;0.4852294921875;-0.5283203125;-0.5665283203125;-0.4056396484375;16.805353133723237;13.903657259432547;0.7431525881000463;-0.94384765625;0.259765625;-0.0283203125;-1.0;-8.5625;-27.8125;
1441975952674514;0.486572265625;-0.5260009765625;-0.56610107421875;-0.40765380859375;16.842725126356207;13.883503148856235;0.7264030613218996;-0.93505859375;0.25048828125;-0.0341796875;-2.9375;-7.625;-25.0;
1441975952688514;0.48773193359375;-0.52423095703125;-0.5655517578125;-0.4093017578125;16.873578315502662;13.872421759249434;0.717342159651718;-0.94384765625;0.23974609375;-0.0380859375;-3.75;-6.5;-21.625;
1441975952712516;0.48858642578125;-0.52288818359375;-0.5650634765625;-0.41064453125;16.897793443395457;13.863620250429342;0.7095292917759016;-0.9609375;0.236328125;-0.04345703125;-2.625;-5.3125;-18.5625;
1441975952734517;0.48919677734375;-0.52197265625;-0.56463623046875;-0.41168212890625;16.91569105643796;13.85836495855762;0.7043963279793705;-0.96923828125;0.2412109375;-0.0400390625;-1.125;-4.1875;-15.6875;
1441975952748518;0.48956298828125;-0.521484375;-0.564453125;-0.412109375;16.924361926847705;13.856653030165159;0.7033644020600722;-0.9765625;0.244140625;-0.04052734375;-0.4375;-3.1875;-12.6875;
1441975952771519;0.48980712890625;-0.52117919921875;-0.5645751953125;-0.4119873046875;16.926130218070806;13.855449254827644;0.7044501537347989;-0.9638671875;0.2509765625;-0.03955078125;-0.75;-2.0;-9.25;
1441975952794520;0.49005126953125;-0.52099609375;-0.56512451171875;-0.4112548828125;16.921073775677982;13.854245943571346;0.7081765610691447;-0.953125;0.25048828125;-0.03271484375;-2.3125;-0.6875;-5.6875;
1441975952808521;0.49029541015625;-0.52099609375;-0.56591796875;-0.40985107421875;16.909107167835288;13.857936503453287;0.7189444696937366;-0.94384765625;0.24462890625;-0.02880859375;-4.8125;0.5625;-2.125;
1441975952831523;0.49053955078125;-0.52117919921875;-0.56689453125;-0.40802001953125;16.892211559982854;13.864847640236754;0.7341728477977258;-0.9384765625;0.23779296875;-0.0341796875;-6.9375;1.9375;1.5625;
1441975952854524;0.49053955078125;-0.52166748046875;-0.5679931640625;-0.40576171875;16.868615299687427;13.87352032885739;0.751211087211153;-0.94189453125;0.22265625;-0.03515625;-8.375;2.9375;5.25;
1441975952868525;0.49029541015625;-0.5225830078125;-0.56915283203125;-0.4033203125;16.83955558595791;13.88394006908243;0.7687611604587491;-0.939453125;0.22216796875;-0.03857421875;-8.0;3.8125;8.8125;
1441975952891526;0.48968505859375;-0.52392578125;-0.5701904296875;-0.4007568359375;16.805551031271495;13.896678182471511;0.7863887183105457;-0.94580078125;0.2158203125;-0.03857421875;-6.875;4.5;12.125;
1441975952914527;0.48883056640625;-0.52569580078125;-0.57122802734375;-0.3980712890625;16.766743599057587;13.911130820375323;0.8041430176862111;-0.9453125;0.21435546875;-0.041015625;-4.9375;5.0;15.25;
1441975952931528;0.48779296875;-0.52777099609375;-0.5721435546875;-0.39532470703125;16.725089598143818;13.928041235321023;0.8227898416851517;-0.94677734375;0.21875;-0.04296875;-3.0;5.3125;17.625;
1441975952951529;0.486572265625;-0.530029296875;-0.572998046875;-0.39251708984375;16.6811091318152;13.944812924899171;0.8402700635194658;-0.951171875;0.220703125;-0.048828125;-1.5625;5.875;19.4375;
1441975952974531;0.48529052734375;-0.53253173828125;-0.57366943359375;-0.38970947265625;16.63590905739856;13.965151347305277;0.859912281767168;-0.94970703125;0.22509765625;-0.0478515625;-0.375;6.3125;20.8125;
1441975952988532;0.4840087890625;-0.53509521484375;-0.57421875;-0.38690185546875;16.590687518590318;13.986716053124102;0.8802649376655143;-0.95263671875;0.22314453125;-0.05517578125;0.875;6.8125;21.5625;
1441975953011533;0.48284912109375;-0.53765869140625;-0.57470703125;-0.38409423828125;16.54619746510105;14.009416825038876;0.9019162209854543;-0.94677734375;0.2265625;-0.0556640625;1.5;7.5625;22.0;
1441975953034534;0.4818115234375;-0.54010009765625;-0.57525634765625;-0.3812255859375;16.502318122091527;14.030614785136745;0.9231193133344763;-0.93994140625;0.2216796875;-0.0537109375;1.375;8.25;22.1875;
1441975953048535;0.48089599609375;-0.54241943359375;-0.57574462890625;-0.378173828125;16.458509618001088;14.052913128894255;0.9465273176948068;-0.92919921875;0.22705078125;-0.048828125;0.625;9.0625;21.875;
1441975953071536;0.48040771484375;-0.54443359375;-0.57635498046875;-0.375;16.417240440517148;14.075134925017974;0.9726535746841038;-0.923828125;0.23828125;-0.0546875;-0.5625;9.875;21.0625;
1441975953094538;0.48046875;-0.54595947265625;-0.57696533203125;-0.371826171875;16.381539323215982;14.098136151111976;1.0025455605702918;-0.92431640625;0.24609375;-0.060546875;-3.125;10.375;19.5625;
1441975953108538;0.480712890625;-0.54705810546875;-0.57757568359375;-0.368896484375;16.351165842061473;14.117217835310456;1.0295809709581625;-0.9287109375;0.2373046875;-0.06689453125;-6.1875;10.5625;17.5;
1441975953131540;0.481201171875;-0.548095703125;-0.57794189453125;-0.36614990234375;16.32435504314764;14.140046984546078;1.0599916982064017;-0.919921875;0.2333984375;-0.06884765625;-7.0625;10.25;15.25;
1441975953154541;0.48199462890625;-0.54901123046875;-0.5780029296875;-0.3636474609375;16.302362917317925;14.167339409484548;1.094491852315047;-0.9013671875;0.2373046875;-0.07373046875;-6.6875;10.4375;13.0;
1441975953168542;0.48309326171875;-0.5498046875;-0.5777587890625;-0.36138916015625;16.28510025677293;14.199192373170106;1.133177129024186;-0.88525390625;0.2412109375;-0.07470703125;-6.0625;11.125;10.0625;
1441975953191543;0.4844970703125;-0.55035400390625;-0.57708740234375;-0.3597412109375;16.27648869388074;14.234912210449892;1.174267342450766;-0.88427734375;0.244140625;-0.08544921875;-5.8125;11.6875;6.875;
1441975953213544;0.4859619140625;-0.5509033203125;-0.57586669921875;-0.35888671875;16.275583740843924;14.275040551981402;1.2159961577425955;-0.892578125;0.22509765625;-0.09765625;-4.4375;11.25;4.125;
1441975953228545;0.4866943359375;-0.55267333984375;-0.57342529296875;-0.3590087890625;16.274089761170693;14.328504338677245;1.2590157082712694;-0.880859375;0.17822265625;-0.09326171875;-0.4375;10.6875;2.9375;
1441975953251547;0.48651123046875;-0.55615234375;-0.56982421875;-0.35968017578125;16.264227902041178;14.397292579363526;1.3047957214065073;-0.87255859375;0.16064453125;-0.0849609375;11.5625;11.8125;3.75;
1441975953274548;0.4864501953125;-0.559814453125;-0.5660400390625;-0.36004638671875;16.25083921351969;14.47150414637994;1.3562065327445363;-0.87060546875;0.21484375;-0.10400390625;24.25;13.125;3.3125;
1441975953296549;0.48712158203125;-0.5623779296875;-0.5631103515625;-0.35980224609375;16.240059758919845;14.53618849902766;1.4076394505761276;-0.859375;0.26611328125;-0.13525390625;24.5625;13.625;0.5625;
1441975953311550;0.48858642578125;-0.5635986328125;-0.56097412109375;-0.35919189453125;16.23603590223547;14.591079498259099;1.45883400194719;-0.83984375;0.28271484375;-0.14111328125;14.75;13.125;-2.375;
1441975953334551;0.49078369140625;-0.56396484375;-0.5589599609375;-0.35870361328125;16.240578707772887;14.647007335106968;1.5156333268748439;-0.8349609375;0.26416015625;-0.1396484375;5.25;12.5625;-5.125;
1441975953348552;0.49310302734375;-0.56427001953125;-0.556640625;-0.35870361328125;16.249840681310435;14.707375724935538;1.5750621467737715;-0.8486328125;0.2255859375;-0.1435546875;1.125;12.5;-7.125;
1441975953371553;0.49505615234375;-0.56512451171875;-0.55377197265625;-0.359130859375;16.25775249897652;14.773892485888295;1.635156058006526;-0.84814453125;0.19189453125;-0.12939453125;2.6875;13.0625;-8.0625;
1441975953393555;0.49700927734375;-0.5662841796875;-0.55047607421875;-0.35955810546875;16.263171678562095;14.848577857363107;1.7013234531856805;-0.83056640625;0.19970703125;-0.1123046875;8.8125;14.625;-8.5625;
1441975953408556;0.49945068359375;-0.56683349609375;-0.54730224609375;-0.36016845703125;16.274621284230875;14.924569913424044;1.7717672942630354;-0.83154296875;0.23046875;-0.13916015625;11.125;15.0625;-11.4375;
1441975953431557;0.501953125;-0.56744384765625;-0.5439453125;-0.36090087890625;16.28585428791626;15.005013388164679;1.8457712333858407;-0.8056640625;0.2060546875;-0.134765625;8.3125;15.0625;-13.625;
1441975953453558;0.50421142578125;-0.56854248046875;-0.54010009765625;-0.36175537109375;16.293121490541655;15.092479818496058;1.922937944718684;-0.77978515625;0.1669921875;-0.123046875;9.1875;16.0;-13.0;
1441975953468559;0.505859375;-0.57049560546875;-0.53570556640625;-0.36297607421875;16.294992190465504;15.184149205445433;1.9974150474467618;-0.75341796875;0.15380859375;-0.1240234375;13.4375;17.5625;-11.875;
1441975953491560;0.5074462890625;-0.57232666015625;-0.5313720703125;-0.36419677734375;16.296225230021847;15.273891183576943;2.0703379221814058;-0.72607421875;0.16455078125;-0.11279296875;20.3125;18.5625;-11.5;
1441975953513562;0.509521484375;-0.57379150390625;-0.5272216796875;-0.36505126953125;16.296333481603465;15.36581010517712;2.1495079315190826;-0.71630859375;0.1787109375;-0.10791015625;20.25;18.5625;-12.5;
1441975953528562;0.51190185546875;-0.57489013671875;-0.5230712890625;-0.36590576171875;16.29799157657093;15.460583178583732;2.2334833772623814;-0.70068359375;0.17431640625;-0.11083984375;16.5;19.8125;-14.1875;
1441975953551564;0.5140380859375;-0.57635498046875;-0.51837158203125;-0.3673095703125;16.29957825398389;15.562050901672098;2.3191923747696466;-0.69677734375;0.14306640625;-0.10302734375;14.6875;20.75;-14.5625;
1441975953573565;0.51593017578125;-0.5782470703125;-0.512939453125;-0.36932373046875;16.300783654237616;15.673232718249027;2.4087801783871567;-0.7197265625;0.13671875;-0.1171875;19.625;20.6875;-14.8125;
1441975953588566;0.517333984375;-0.58050537109375;-0.5072021484375;-0.3717041015625;16.299927874762385;15.784129241682127;2.4936738891176526;-0.73828125;0.13134765625;-0.12939453125;25.5;20.5625;-15.875;
1441975953611567;0.51898193359375;-0.5821533203125;-0.50177001953125;-0.37420654296875;16.30312339600784;15.893311818394913;2.579851158451892;-0.77001953125;0.1611328125;-0.14453125;29.8125;19.375;-17.0;
1441975953633568;0.52081298828125;-0.58319091796875;-0.49615478515625;-0.3775634765625;16.315907927059442;16.01049913100786;2.67330877610411;-0.80322265625;0.15380859375;-0.14599609375;27.125;18.5;-18.6875;
1441975953651569;0.52130126953125;-0.5850830078125;-0.48974609375;-0.38214111328125;16.329894026921846;16.128452528588028;2.7553550414752013;-0.82373046875;0.06640625;-0.13818359375;26.875;16.5;-18.5625;
1441975953671571;0.520263671875;-0.58868408203125;-0.48260498046875;-0.38714599609375;16.332838958638938;16.24005713015924;2.8183459443128633;-0.8046875;0.03515625;-0.12548828125;38.5625;13.75;-15.5;
1441975953693572;0.51922607421875;-0.59228515625;-0.475830078125;-0.39141845703125;16.328957732413922;16.343115737321476;2.875987107046676;-0.7841796875;0.09912109375;-0.1337890625;51.4375;13.375;-13.0625;
1441975953708573;0.51898193359375;-0.59515380859375;-0.4697265625;-0.39483642578125;16.322601794783203;16.44256650539661;2.9388550670379767;-0.73974609375;0.13232421875;-0.1279296875;48.5;14.75;-13.375;
1441975953731574;0.51947021484375;-0.5970458984375;-0.4642333984375;-0.3978271484375;16.318914542476183;16.54101943184903;3.008675241231256;-0.74462890625;0.13232421875;-0.14208984375;39.9375;15.6875;-14.6875;
1441975953753575;0.519775390625;-0.598388671875;-0.458984375;-0.40142822265625;16.323840515661843;16.63811864296774;3.077143544459398;-0.7822265625;0.115234375;-0.17431640625;32.1875;13.75;-16.625;
1441975953768576;0.51953125;-0.599609375;-0.4534912109375;-0.40618896484375;16.3381630000124;16.74002508271988;3.145132820288617;-0.82568359375;0.09326171875;-0.19482421875;31.125;9.0;-17.3125;
1441975953791578;0.5185546875;-0.60137939453125;-0.44696044921875;-0.41192626953125;16.35328294471775;16.854251752707267;3.215903533796359;-0.84326171875;0.05224609375;-0.17919921875;36.5;5.5625;-16.75;
1441975953813579;0.5164794921875;-0.604736328125;-0.43963623046875;-0.41748046875;16.35427671095868;16.961260878465303;3.269892435640531;-0.80859375;-0.00341796875;-0.17578125;44.9375;3.9375;-15.125;
1441975953828580;0.5142822265625;-0.6090087890625;-0.43280029296875;-0.42120361328125;16.335429456657792;17.043085894293952;3.3023434495079664;-0.783203125;0.025390625;-0.19091796875;54.3125;6.9375;-10.8125;
1441975953851581;0.51361083984375;-0.61138916015625;-0.4281005859375;-0.42327880859375;16.31968650552338;17.10691032600119;3.337625215549156;-0.8154296875;0.111328125;-0.23681640625;51.3125;11.4375;-7.625;
1441975953873582;0.5135498046875;-0.61273193359375;-0.4246826171875;-0.42486572265625;16.3099419501857;17.159738117334385;3.3718380449923275;-0.861328125;0.08935546875;-0.2548828125;30.0;10.5;-7.6875;
1441975953888583;0.51275634765625;-0.61395263671875;-0.4219970703125;-0.4267578125;16.308224944221674;17.196805170677383;3.389784673208512;-0.9501953125;0.052734375;-0.26416015625;19.375;8.3125;-6.125;
1441975953911584;0.510986328125;-0.61572265625;-0.41943359375;-0.42889404296875;16.308103794317287;17.22078382615042;3.3898676057327597;-0.99853515625;0.0400390625;-0.2724609375;19.3125;3.3125;-1.8125;
1441975953933586;0.5081787109375;-0.618408203125;-0.41668701171875;-0.4310302734375;16.304275664544274;17.231772210626264;3.370731415101607;-1.03466796875;0.04443359375;-0.2900390625;23.125;1.0;2.625;
1441975953948586;0.5048828125;-0.6212158203125;-0.4141845703125;-0.4332275390625;16.30258258116603;17.23399721217177;3.341582811313592;-1.06689453125;0.06494140625;-0.3212890625;28.5625;-0.0625;7.25;
1441975953971588;0.50128173828125;-0.62359619140625;-0.4119873046875;-0.43603515625;16.31067930879809;17.23505359985906;3.3107742675504577;-1.087890625;0.05859375;-0.32861328125;29.6875;-2.0625;10.4375;
1441975953993589;0.49700927734375;-0.6265869140625;-0.4091796875;-0.43939208984375;16.31860922812331;17.238377147710274;3.2751640866576213;-1.09912109375;0.01611328125;-0.30615234375;29.0625;-5.25;12.5;
1441975954008590;0.491943359375;-0.63031005859375;-0.40521240234375;-0.443359375;16.324175661125096;17.250283724641996;3.2384891843412595;-1.0556640625;0.02685546875;-0.302734375;36.4375;-6.375;12.625;
1441975954031591;0.48651123046875;-0.634765625;-0.4010009765625;-0.44677734375;16.320600453696112;17.254356476988928;3.191580528653158;-1.0224609375;0.06494140625;-0.3095703125;46.5;-6.1875;10.5;
1441975954053592;0.48175048828125;-0.638671875;-0.3973388671875;-0.44970703125;16.317063611748228;17.25712911695757;3.1499283498721953;-0.9970703125;0.15185546875;-0.349609375;50.375;-5.5625;8.375;
1441975954068593;0.47845458984375;-0.6409912109375;-0.39459228515625;-0.4522705078125;16.320670702127885;17.26746041699863;3.128444609498653;-0.97314453125;0.19091796875;-0.37890625;44.375;-7.9375;4.0625;
1441975954091595;0.47607421875;-0.6422119140625;-0.39300537109375;-0.45440673828125;16.33014345910903;17.273167570190967;3.1128798985946227;-0.98388671875;0.15771484375;-0.39599609375;32.0;-10.5;-0.1875;
1441975954113596;0.47503662109375;-0.642578125;-0.39208984375;-0.455810546875;16.33835240225044;17.2828705450014;3.111814603054383;-0.9951171875;0.13623046875;-0.3701171875;21.375;-11.4375;-0.875;
1441975954132597;0.474853515625;-0.6429443359375;-0.3909912109375;-0.4564208984375;16.337113447716323;17.2992778882909;3.121625404548223;-0.97705078125;0.10888671875;-0.3857421875;11.0625;-10.9375;-3.4375;
1441975954151598;0.4755859375;-0.642333984375;-0.39031982421875;-0.45703125;16.3414064145674;17.324192252861238;3.146736085139143;-0.986328125;0.1025390625;-0.41845703125;6.6875;-7.8125;-4.5625;
1441975954173599;0.4761962890625;-0.64166259765625;-0.38897705078125;-0.45849609375;16.350479063964347;17.364040926289807;3.18221946912462;-1.0087890625;0.0556640625;-0.42578125;0.0;-9.4375;-6.625;
1441975954188600;0.4757080078125;-0.64190673828125;-0.3861083984375;-0.461181640625;16.36001771814641;17.418578396036818;3.218543920269226;-1.00830078125;0.01171875;-0.40771484375;4.0;-10.0;-7.375;
1441975954211602;0.47406005859375;-0.64324951171875;-0.3822021484375;-0.4642333984375;16.3641690169388;17.472688815531697;3.2436672661305535;-1.0185546875;0.005859375;-0.38134765625;18.375;-8.5;-7.375;
1441975954233603;0.471923828125;-0.6451416015625;-0.3779296875;-0.46728515625;16.364521334499297;17.523859458485504;3.261710407164719;-1.04345703125;0.04541015625;-0.38427734375;29.5;-6.125;-6.5625;
1441975954250604;0.46923828125;-0.64727783203125;-0.3740234375;-0.4700927734375;16.364612548333753;17.560560379411424;3.2646874645927815;-1.072265625;0.0361328125;-0.36669921875;33.3125;-3.0625;-4.3125;
1441975954271605;0.46685791015625;-0.6488037109375;-0.37091064453125;-0.472900390625;16.37104859948482;17.59277315795184;3.2682728086446815;-1.0771484375;0.0693359375;-0.36279296875;34.125;-3.3125;-2.1875;
1441975954293606;0.46405029296875;-0.65045166015625;-0.36773681640625;-0.47589111328125;16.37925919814716;17.622116686477913;3.2666474091311644;-1.06982421875;0.029296875;-0.33056640625;28.4375;-4.75;-0.5;
1441975954316608;0.45989990234375;-0.6529541015625;-0.363525390625;-0.47967529296875;16.388162828568664;17.6532369239888;3.254964418772705;-1.0556640625;-0.009765625;-0.31787109375;29.8125;-4.9375;3.0625;
1441975954331608;0.4537353515625;-0.65704345703125;-0.3577880859375;-0.48419189453125;16.392868396629847;17.680882751384143;3.222515917716085;-1.0859375;-0.0419921875;-0.3349609375;40.75;-6.625;8.0625;
1441975954353610;0.44677734375;-0.6622314453125;-0.35211181640625;-0.48779296875;16.386570890446393;17.685075538857802;3.163736171794778;-1.1337890625;-9.765625E-4;-0.388671875;57.875;-7.4375;11.0625;
1441975954376611;0.44085693359375;-0.666748046875;-0.34796142578125;-0.489990234375;16.376643976292396;17.671645149411173;3.100783105711086;-1.17919921875;0.11474609375;-0.43115234375;62.0;-5.3125;11.0625;
1441975954391612;0.437255859375;-0.6685791015625;-0.34576416015625;-0.49224853515625;16.38504271399232;17.67110607075761;3.0712142587968807;-1.197265625;0.1806640625;-0.4716796875;49.5625;-5.5;8.125;
1441975954413613;0.4345703125;-0.66888427734375;-0.34326171875;-0.4959716796875;16.41053330594089;17.70519188307831;3.0784918540331;-1.22998046875;0.1181640625;-0.42626953125;29.3125;-9.9375;2.6875;
1441975954436614;0.43212890625;-0.66973876953125;-0.33984375;-0.499267578125;16.42435767658193;17.749480598127796;3.093424285180823;-1.2548828125;0.025390625;-0.400390625;26.5;-15.5;-2.875;
1441975954451615;0.4288330078125;-0.672607421875;-0.33599853515625;-0.5008544921875;16.412998466183936;17.764824653532127;3.0743495274245642;-1.3056640625;-0.005859375;-0.46142578125;29.0625;-13.125;-2.125;
1441975954473617;0.42547607421875;-0.6759033203125;-0.33148193359375;-0.5023193359375;16.395332332536558;17.785805893530604;3.057708105624749;-1.3544921875;0.00634765625;-0.5068359375;33.125;-3.4375;7.3125;
1441975954496618;0.4234619140625;-0.67938232421875;-0.330078125;-0.500244140625;16.357528292300657;17.748126869828777;3.0051524555301268;-1.39697265625;0.08544921875;-0.544921875;37.8125;-1.375;1.4375;
1441975954519619;0.42608642578125;-0.679931640625;-0.33294677734375;-0.49530029296875;16.318378585730656;17.69562589211114;2.9812987015382353;-1.27587890625;0.30908203125;-0.55322265625;17.875;5.625;-2.8125;
1441975954533620;0.4310302734375;-0.6778564453125;-0.33502197265625;-0.49249267578125;16.30236821754201;17.708746345004737;3.02942239319567;-1.146484375;0.35888671875;-0.48486328125;-23.375;9.1875;-13.0;
1441975954556621;0.430908203125;-0.67657470703125;-0.335693359375;-0.493896484375;16.324879578077738;17.71532052177542;3.0376049123885016;-1.14111328125;0.0390625;-0.42138671875;-33.0;4.5;-13.5;
1441975954571622;0.43804931640625;-0.67266845703125;-0.3277587890625;-0.498291015625;16.322238181081477;17.95639470161277;3.274865404028242;-1.37939453125;-0.0888671875;-0.0283203125;-3.0;15.0;5.3125;
1441975954593623;0.4371337890625;-0.67291259765625;-0.32098388671875;-0.50311279296875;16.327148483927292;0.07830457289790181;3.359065360891913;-1.3427734375;-0.67724609375;-0.5068359375;-0.375;-1.5625;-21.6875;
1441975954616625;0.44000244140625;-0.66998291015625;-0.32672119140625;-0.5008544921875;16.3448950411798;0.02975699169107608;3.351638018253596;-1.544921875;0.1875;-0.41796875;45.375;0.5625;-38.375;
1441975954631626;0.43719482421875;-0.6708984375;-0.3355712890625;-0.49615478515625;16.356436743423572;17.833493982267537;3.184553636407457;-1.265625;-0.3115234375;0.10205078125;-48.125;23.75;23.125;
1441975954655627;0.4388427734375;-0.66778564453125;-0.341064453125;-0.4952392578125;16.387774649548795;17.78470376878561;3.16922559402671;-1.087890625;0.771484375;0.044921875;-20.625;17.5;-3.75;
1441975954676628;0.4385986328125;-0.66717529296875;-0.34124755859375;-0.49609375;16.399878113477;17.790186540392106;3.173944684936505;-1.18212890625;-0.09326171875;-0.09375;-35.875;0.875;10.9375;
1441975954691629;0.4385986328125;-0.6676025390625;-0.341064453125;-0.49560546875;16.392592768392007;17.786173614306232;3.1694485255336016;-1.15673828125;-0.0322265625;-0.3037109375;-0.25;-3.8125;2.125;
1441975954713630;0.44073486328125;-0.6661376953125;-0.34539794921875;-0.49273681640625;16.39138130714441;17.73254609950771;3.1476816037942066;-1.27783203125;-0.00927734375;-0.4404296875;-0.625;-1.75;4.125;
1441975954736632;0.44293212890625;-0.66546630859375;-0.3475341796875;-0.49017333984375;16.377563523461916;17.7091747063906;3.1464171847212423;-1.1806640625;0.02587890625;-0.36474609375;-32.75;-1.8125;6.3125;
1441975954751632;0.44281005859375;-0.66656494140625;-0.34796142578125;-0.488525390625;16.35993338324572;17.682527283737887;3.1220701023189563;-1.18505859375;-0.150390625;-0.384765625;-25.75;4.25;13.5625;
1441975954773634;0.4407958984375;-0.66961669921875;-0.3465576171875;-0.48712158203125;16.32990905651817;17.653473058540698;3.077655516059674;-1.142578125;-0.06591796875;-0.3466796875;-5.5625;7.125;14.6875;
1441975954804635;0.43798828125;-0.67327880859375;-0.34588623046875;-0.485107421875;16.296252678624942;17.599689726581865;3.0082924382623664;-1.05810546875;-0.01025390625;-0.35986328125;12.5;10.3125;17.625;
1441975954811636;0.43609619140625;-0.6756591796875;-0.34710693359375;-0.4825439453125;16.270536553772928;17.533661713744443;2.940406326342169;-1.0009765625;0.10693359375;-0.3447265625;13.6875;11.3125;17.6875;
1441975954833637;0.43450927734375;-0.67724609375;-0.34893798828125;-0.48046875;16.254625232038716;17.470775914245273;2.8794705443318223;-0.97412109375;0.12353515625;-0.31005859375;0.4375;9.0625;16.5625;
1441975954856638;0.43218994140625;-0.67919921875;-0.3499755859375;-0.47900390625;16.239493207447936;17.414715623299013;2.817936484222183;-0.95849609375;0.08984375;-0.31689453125;-4.125;3.125;17.0625;
1441975954870639;0.4295654296875;-0.68145751953125;-0.3515625;-0.47705078125;16.22015140074496;17.34486161885227;2.7438560751296612;-0.9892578125;0.1142578125;-0.373046875;3.25;-0.3125;16.125;
1441975954893641;0.42535400390625;-0.68377685546875;-0.35345458984375;-0.47613525390625;16.212358354070386;17.26101901247862;2.6489086173084546;-1.03857421875;0.13623046875;-0.4208984375;1.5625;-2.375;19.9375;
1441975954916642;0.41986083984375;-0.68634033203125;-0.35552978515625;-0.4757080078125;16.20819922879571;17.163498958919796;2.534866276671636;-1.0078125;0.1533203125;-0.4013671875;7.625;-8.8125;24.375;
1441975954931643;0.4150390625;-0.68829345703125;-0.35772705078125;-0.4754638671875;16.20676723219017;17.074310309014056;2.432833132221649;-0.93994140625;0.1953125;-0.36962890625;12.5;-12.75;27.0;
1441975954953644;0.41070556640625;-0.6905517578125;-0.3602294921875;-0.47418212890625;16.19236684321874;16.981548553939792;2.3315982090236744;-0.87158203125;0.181640625;-0.3701171875;9.4375;-15.6875;23.8125;
1441975954976645;0.40814208984375;-0.69232177734375;-0.36383056640625;-0.47100830078125;16.16338779761623;16.88771428569234;2.2444944003743763;-0.90380859375;0.1982421875;-0.40283203125;4.4375;-12.0625;25.5;
1441975954991646;0.40728759765625;-0.69342041015625;-0.36871337890625;-0.46630859375;16.125140291114672;16.79260683862057;2.1713446407256325;-0.8837890625;0.21484375;-0.4248046875;-10.1875;-6.875;23.625;
1441975955013647;0.40765380859375;-0.6932373046875;-0.3756103515625;-0.460693359375;16.089161213053465;16.68389170685008;2.1006762902918696;-0.82568359375;0.1865234375;-0.41455078125;-25.6875;-2.3125;23.9375;
1441975955036649;0.40936279296875;-0.6917724609375;-0.38336181640625;-0.4549560546875;16.06040930744192;16.580490931485034;2.0460716585712597;-0.85595703125;0.20654296875;-0.36328125;-41.375;0.25;23.5625;
1441975955051650;0.41192626953125;-0.689453125;-0.39105224609375;-0.4495849609375;16.039565707032963;16.48955674578282;2.0077947944465544;-0.88916015625;0.166015625;-0.3125;-52.0625;1.75;21.3125;
1441975955073651;0.4130859375;-0.68792724609375;-0.3978271484375;-0.44488525390625;16.016980133615984;16.399791807052722;1.9594540315664395;-0.88037109375;0.09716796875;-0.2822265625;-56.1875;2.375;20.25;
1441975955096652;0.4132080078125;-0.6864013671875;-0.40411376953125;-0.44140625;16.00342321456;16.309750884794344;1.902833901162066;-0.8662109375;0.091796875;-0.2890625;-46.0625;-0.5625;24.4375;
1441975955111653;0.4124755859375;-0.68524169921875;-0.41082763671875;-0.43768310546875;15.98367595848197;16.20666846615969;1.8314716521071852;-0.87744140625;0.0986328125;-0.27392578125;-38.625;-5.4375;25.1875;
1441975955133654;0.41156005859375;-0.68402099609375;-0.41827392578125;-0.433349609375;15.957330696383242;16.093286936645555;1.7532913604921063;-0.85986328125;0.1357421875;-0.279296875;-37.1875;-7.4375;29.0;
1441975955156656;0.4112548828125;-0.68243408203125;-0.426025390625;-0.42864990234375;15.928977414097414;15.98342381092508;1.683484451029915;-0.83544921875;0.17041015625;-0.28076171875;-41.0625;-8.125;30.8125;
1441975955172656;0.41094970703125;-0.68072509765625;-0.4339599609375;-0.4237060546875;15.897426312129813;15.873372880431;1.6150366584348679;-0.83740234375;0.14599609375;-0.27880859375;-46.375;-6.9375;31.875;
1441975955193658;0.4100341796875;-0.67889404296875;-0.44134521484375;-0.4197998046875;15.873180062804888;15.766858832266083;1.5440742784742265;-0.83154296875;0.13916015625;-0.27099609375;-48.125;-6.625;33.6875;
1441975955216659;0.40753173828125;-0.67724609375;-0.44708251953125;-0.41876220703125;15.868893529070462;15.66776134187003;1.4622995543251176;-0.8125;0.10986328125;-0.26318359375;-43.0625;-11.3125;34.3125;
1441975955232660;0.40216064453125;-0.67767333984375;-0.4505615234375;-0.419677734375;15.860743583077067;15.576239616124107;1.3612219884892323;-0.79150390625;0.02880859375;-0.21728515625;-26.5625;-20.125;34.9375;
1441975955253661;0.395263671875;-0.6793212890625;-0.453369140625;-0.4205322265625;15.838174185671166;15.484601385151995;1.24993292857575;-0.75341796875;0.064453125;-0.2294921875;-0.5;-26.6875;37.875;
1441975955276662;0.38861083984375;-0.680908203125;-0.45697021484375;-0.42022705078125;15.802958977854011;15.389234147074639;1.1413631507522048;-0.705078125;0.1611328125;-0.23095703125;9.5625;-27.0625;38.75;
1441975955292663;0.3826904296875;-0.68218994140625;-0.4609375;-0.419189453125;15.762459284197647;15.299009921177982;1.0441273517485936;-0.685546875;0.2021484375;-0.2236328125;4.3125;-23.9375;39.8125;
1441975955313665;0.37689208984375;-0.68359375;-0.4642333984375;-0.4185791015625;15.724157787667412;15.220505428195324;0.9554192263845881;-0.69921875;0.201171875;-0.216796875;-1.6875;-20.25;40.25;
1441975955335666;0.370361328125;-0.68548583984375;-0.46661376953125;-0.41864013671875;15.685784163689455;15.150085123424661;0.8664547516288842;-0.7392578125;0.19091796875;-0.20849609375;1.75;-19.125;39.25;
1441975955352667;0.36370849609375;-0.68719482421875;-0.4686279296875;-0.41937255859375;15.652926861605701;15.082876023721326;0.7778466112803247;-0.7578125;0.23046875;-0.2060546875;10.1875;-20.125;37.8125;
1441975955373668;0.35711669921875;-0.68939208984375;-0.4697265625;-0.4202880859375;15.619277425449457;15.03010266818364;0.6991504442867612;-0.76123046875;0.2353515625;-0.19482421875;12.875;-22.1875;35.5625;
1441975955396669;0.3505859375;-0.6922607421875;-0.4700927734375;-0.420654296875;15.577685558243143;14.992246830254421;0.6328037204589014;-0.740234375;0.23974609375;-0.19921875;17.75;-20.5;33.4375;
1441975955412670;0.34423828125;-0.695556640625;-0.47027587890625;-0.42022705078125;15.527320430201087;14.96369704297926;0.5766148773825425;-0.73388671875;0.265625;-0.19921875;21.6875;-15.25;32.625;
1441975955433671;0.33831787109375;-0.6986083984375;-0.470703125;-0.41949462890625;15.476602347870683;14.93682692737695;0.5256478287891605;-0.71923828125;0.30419921875;-0.1943359375;21.9375;-10.0;32.5;
1441975955455673;0.33294677734375;-0.7012939453125;-0.47119140625;-0.41876220703125;15.429896325406894;14.912547219222569;0.48017219325443883;-0.71923828125;0.3193359375;-0.17626953125;19.125;-7.125;31.25;
1441975955472674;0.32763671875;-0.7041015625;-0.47125244140625;-0.41815185546875;15.384577834362815;14.894335347431738;0.43889586444531586;-0.720703125;0.3154296875;-0.1494140625;17.4375;-5.4375;29.0;
1441975955493675;0.3223876953125;-0.70721435546875;-0.47113037109375;-0.41717529296875;15.334985160925244;14.881886525221898;0.4030718702122337;-0.716796875;0.3193359375;-0.1494140625;19.375;-4.0625;28.1875;
1441975955516676;0.3172607421875;-0.71044921875;-0.47076416015625;-0.41595458984375;15.283718931426757;14.874656168501401;0.37229516131485907;-0.71826171875;0.34228515625;-0.14794921875;20.6875;-1.5;27.75;
1441975955532677;0.31298828125;-0.71356201171875;-0.47039794921875;-0.414306640625;15.23346887018637;14.873632919778066;0.35190992594201964;-0.71435546875;0.36669921875;-0.1533203125;21.0625;0.75;26.5;
1441975955553678;0.3092041015625;-0.7166748046875;-0.46978759765625;-0.4124755859375;15.184613137723545;14.878471478639188;0.33861938395880953;-0.73291015625;0.37890625;-0.15966796875;18.1875;4.0;24.1875;
1441975955576680;0.30548095703125;-0.7200927734375;-0.46868896484375;-0.4105224609375;15.134648906535608;14.890034591564563;0.33010881702636163;-0.74560546875;0.375;-0.15673828125;17.625;7.75;23.125;
1441975955592681;0.30181884765625;-0.7236328125;-0.46722412109375;-0.40869140625;15.086339919166095;14.90542859177349;0.32375373466612456;-0.76123046875;0.4033203125;-0.162109375;20.5;9.75;21.6875;
1441975955613682;0.29815673828125;-0.7271728515625;-0.46575927734375;-0.40673828125;15.037009801772925;14.921006925432188;0.31782212367644286;-0.77392578125;0.4169921875;-0.1806640625;22.25;10.125;20.75;
1441975955636683;0.294921875;-0.73052978515625;-0.4644775390625;-0.404541015625;14.98813740363862;14.936800605757467;0.31518205453970033;-0.78857421875;0.44775390625;-0.18798828125;22.375;10.5;19.75;
1441975955652684;0.2918701171875;-0.73388671875;-0.46356201171875;-0.4017333984375;14.933950487936718;14.951641960234594;0.3148887011944149;-0.8134765625;0.4443359375;-0.20068359375;19.3125;12.25;20.125;
1441975955673685;0.2889404296875;-0.7371826171875;-0.46295166015625;-0.3985595703125;14.87673403515361;14.96483438853124;0.3153982045364941;-0.81591796875;0.4638671875;-0.2109375;16.75;14.25;21.3125;
1441975955696686;0.2860107421875;-0.74072265625;-0.46197509765625;-0.3951416015625;14.816979792096767;14.98249758386655;0.3190556173191561;-0.810546875;0.46240234375;-0.19921875;14.375;16.875;22.6875;
1441975955712687;0.28216552734375;-0.7451171875;-0.4605712890625;-0.39129638671875;14.745732102273738;15.003687062159681;0.32046854525284096;-0.80126953125;0.42919921875;-0.19580078125;16.25;19.25;25.125;
1441975955733689;0.27789306640625;-0.74993896484375;-0.45947265625;-0.38653564453125;14.661510301447358;15.023704784634203;0.3213299962841757;-0.79541015625;0.47119140625;-0.20458984375;22.25;21.25;28.625;
1441975955756690;0.27392578125;-0.75439453125;-0.45916748046875;-0.380859375;14.570658939799042;15.038501725132095;0.3237478461551477;-0.76904296875;0.54541015625;-0.24072265625;21.9375;22.625;29.75;
1441975955772691;0.27032470703125;-0.7584228515625;-0.459716796875;-0.37481689453125;14.47852874113014;15.04669050121733;0.3256841631754623;-0.8095703125;0.59912109375;-0.26806640625;15.6875;25.25;31.125;
1441975955793692;0.26690673828125;-0.76190185546875;-0.46099853515625;-0.3685302734375;14.386212552000103;15.04799006580577;0.32581032887935313;-0.81689453125;0.603515625;-0.2900390625;9.0;24.9375;32.75;
1441975955816693;0.26361083984375;-0.7652587890625;-0.46258544921875;-0.36187744140625;14.291132734657614;15.04756783429199;0.3268730049801422;-0.7861328125;0.58447265625;-0.28125;3.5625;24.375;34.0;
1441975955832694;0.25994873046875;-0.76910400390625;-0.46392822265625;-0.35467529296875;14.187506747094915;15.050321734074116;0.32906295553744314;-0.7294921875;0.55029296875;-0.265625;1.125;26.3125;36.0625;
1441975955853695;0.25555419921875;-0.77349853515625;-0.46490478515625;-0.346923828125;14.073518771518835;15.055875794614522;0.3300766949240437;-0.67236328125;0.521484375;-0.2607421875;2.6875;28.375;39.9375;
1441975955876697;0.25048828125;-0.77838134765625;-0.46588134765625;-0.33819580078125;13.945124156872971;15.062157072318149;0.3304846580691463;-0.63134765625;0.515625;-0.26611328125;6.4375;29.875;44.3125;
1441975955892698;0.24578857421875;-0.78326416015625;-0.4671630859375;-0.3284912109375;13.80896505271439;15.068633189296854;0.33577616917983866;-0.60009765625;0.57373046875;-0.30419921875;7.75;31.6875;47.625;
1441975955913699;0.24139404296875;-0.78765869140625;-0.46905517578125;-0.31842041015625;13.671966011932799;15.07027410889378;0.3415910114144143;-0.60791015625;0.60302734375;-0.34326171875;3.6875;35.1875;49.125;
1441975955935700;0.2374267578125;-0.791015625;-0.471923828125;-0.30859375;13.542120289995527;15.062530621698011;0.3451095270345805;-0.63623046875;0.6337890625;-0.38330078125;-2.875;35.0625;50.0625;
1441975955952701;0.23382568359375;-0.79388427734375;-0.4747314453125;-0.2996826171875;13.424766478241498;15.053595571541315;0.3476454475775522;-0.6484375;0.63427734375;-0.40234375;-10.9375;32.4375;49.8125;
1441975955973702;0.23040771484375;-0.796630859375;-0.4769287109375;-0.29144287109375;13.316068462599983;15.04807322655009;0.3507875821755058;-0.66650390625;0.603515625;-0.41259765625;-12.9375;28.9375;48.375;
1441975955996704;0.22705078125;-0.79931640625;-0.47869873046875;-0.28375244140625;13.21372454340641;15.04469069877606;0.353598400518725;-0.67529296875;0.59130859375;-0.42236328125;-10.5625;27.25;46.75;
1441975956012705;0.22357177734375;-0.80206298828125;-0.47979736328125;-0.276611328125;13.116669470070308;15.044884753686949;0.3555936860159367;-0.67138671875;0.5712890625;-0.4306640625;-9.25;25.75;45.875;
1441975956033706;0.219970703125;-0.80499267578125;-0.48065185546875;-0.2696533203125;13.02036648049092;15.04669153585731;0.3569521178422473;-0.66845703125;0.55224609375;-0.4248046875;-5.4375;24.75;45.5;
1441975956055707;0.2161865234375;-0.80792236328125;-0.4810791015625;-0.262939453125;12.926023806421536;15.050421855803721;0.35734030629428104;-0.64892578125;0.560546875;-0.42236328125;-3.0;24.25;45.375;
1441975956072708;0.21221923828125;-0.8111572265625;-0.4808349609375;-0.25665283203125;12.83455777124574;15.05840051037355;0.3569292750914209;-0.640625;0.556640625;-0.41455078125;-0.25;24.0625;45.5;
1441975956094709;0.20806884765625;-0.8145751953125;-0.48004150390625;-0.2506103515625;12.744519440810508;15.069589100320737;0.35583695882941807;-0.64111328125;0.546875;-0.40087890625;5.0;23.875;45.4375;
1441975956115710;0.20428466796875;-0.8177490234375;-0.47930908203125;-0.2447509765625;12.658891327229444;15.080183534983998;0.3558349296804229;-0.615234375;0.568359375;-0.404296875;9.0625;23.5;43.9375;
1441975956132711;0.200927734375;-0.82049560546875;-0.47894287109375;-0.23895263671875;12.57708025125823;15.08800137248969;0.3569171438092488;-0.61767578125;0.58251953125;-0.39306640625;8.8125;24.0625;41.75;
1441975956155713;0.19793701171875;-0.822998046875;-0.478515625;-0.233642578125;12.502725129499291;15.095745765239828;0.35844950711218404;-0.60107421875;0.587890625;-0.3876953125;6.3125;24.1875;39.1875;
1441975956176714;0.195068359375;-0.8255615234375;-0.4775390625;-0.22900390625;12.435844669874513;15.106622283806647;0.35961694537368083;-0.583984375;0.57666015625;-0.3828125;5.75;22.875;36.3125;
1441975956192715;0.19244384765625;-0.8280029296875;-0.47650146484375;-0.224609375;12.373026075138881;15.117707497343602;0.36134286406621924;-0.57275390625;0.5791015625;-0.39013671875;8.625;20.8125;33.0;
1441975956214716;0.19024658203125;-0.8302001953125;-0.47552490234375;-0.2203369140625;12.314280558164317;15.12833945906802;0.36476243027738026;-0.55908203125;0.5908203125;-0.396484375;9.0625;20.0;30.25;
1441975956235717;0.1883544921875;-0.83203125;-0.47491455078125;-0.21636962890625;12.2608532328338;15.136046367433572;0.3679885720577007;-0.5439453125;0.61376953125;-0.4111328125;7.9375;19.375;26.6875;
1441975956252718;0.18682861328125;-0.83343505859375;-0.47467041015625;-0.2127685546875;12.213849710487517;15.140767082544734;0.3712231128854425;-0.52392578125;0.62109375;-0.40087890625;5.75;18.1875;23.4375;
1441975956282720;0.185791015625;-0.83441162109375;-0.47479248046875;-0.20965576171875;12.175086263466511;15.142696068091308;0.3748578648536788;-0.505859375;0.634765625;-0.39794921875;3.6875;16.6875;19.9375;
1441975956296721;0.185302734375;-0.83502197265625;-0.47491455078125;-0.20733642578125;12.14798352199608;15.14409471458444;0.3790625447505732;-0.51220703125;0.63671875;-0.39013671875;1.0;15.0625;16.625;
1441975956312722;0.1849365234375;-0.8355712890625;-0.4747314453125;-0.2056884765625;12.128495398558881;15.146923559498985;0.3824668443850377;-0.53271484375;0.62060546875;-0.4033203125;-1.0625;12.75;13.5625;
1441975956334723;0.184814453125;-0.83599853515625;-0.47467041015625;-0.204345703125;12.113496286088006;15.148964745935645;0.3860676212308491;-0.54296875;0.61865234375;-0.40966796875;0.5;10.75;11.25;
1441975956365725;0.18475341796875;-0.836181640625;-0.4747314453125;-0.203369140625;12.10303046393561;15.149510112110974;0.38859011158902784;-0.548828125;0.6298828125;-0.4091796875;0.3125;9.625;9.5;
1441975956372725;0.18475341796875;-0.83624267578125;-0.47491455078125;-0.2027587890625;12.096729169085505;15.148930774320863;0.3901005143485715;-0.544921875;0.63623046875;-0.40869140625;-0.6875;7.8125;7.625;
1441975956395726;0.184814453125;-0.83642578125;-0.47467041015625;-0.20263671875;12.09548209624475;15.151029674592381;0.39132743592184793;-0.5205078125;0.6298828125;-0.400390625;-0.6875;5.3125;5.3125;
1441975956416728;0.18487548828125;-0.8367919921875;-0.47393798828125;-0.20269775390625;12.095853235354426;15.156370261410904;0.39296307907207495;-0.509765625;0.63037109375;-0.396484375;1.875;3.5625;3.0;
1441975956432729;0.1849365234375;-0.83709716796875;-0.473388671875;-0.2025146484375;12.09387121317428;15.160597397968326;0.3949656044066175;-0.4990234375;0.62451171875;-0.40087890625;5.0;2.9375;1.4375;
1441975956455730;0.1851806640625;-0.837158203125;-0.4732666015625;-0.2022705078125;12.092622918772381;15.16201800136247;0.3973226057310863;-0.47607421875;0.64599609375;-0.40673828125;3.9375;2.875;0.5;
1441975956476731;0.1854248046875;-0.83740234375;-0.4730224609375;-0.201904296875;12.089712803926027;15.164727825508024;0.4003366404430982;-0.46044921875;0.62890625;-0.38525390625;1.5;3.375;-0.0625;
1441975956492732;0.18560791015625;-0.83758544921875;-0.4727783203125;-0.20147705078125;12.08607833799005;15.167174276967517;0.4031515293558291;-0.44677734375;0.63525390625;-0.38720703125;2.625;3.8125;-0.5;
1441975956514733;0.18597412109375;-0.83758544921875;-0.47265625;-0.2012939453125;12.086220932197715;15.168601822700204;0.40599616400433114;-0.44775390625;0.642578125;-0.3916015625;2.6875;3.625;-0.5;
1441975956535734;0.1865234375;-0.8369140625;-0.4732666015625;-0.20208740234375;12.09835057814546;15.16377068742806;0.40542016442239065;-0.45751953125;0.6455078125;-0.40771484375;0.75;2.625;-1.75;
1441975956552735;0.18731689453125;-0.83563232421875;-0.47430419921875;-0.20428466796875;12.126989097186948;15.15448380479548;0.40103725280242764;-0.44677734375;0.640625;-0.38818359375;-2.875;-3.1875;-5.625;
1441975956574737;0.1885986328125;-0.833984375;-0.47509765625;-0.2081298828125;12.17550260982601;15.145547986587715;0.39475123526499467;-0.4345703125;0.60400390625;-0.3505859375;-4.9375;-9.5625;-10.125;
1441975956595738;0.1903076171875;-0.83209228515625;-0.4752197265625;-0.213623046875;12.243552322658644;15.139587231754907;0.3869877563267886;-0.45166015625;0.5400390625;-0.318359375;-4.0625;-14.8125;-14.6875;
1441975956619739;0.19256591796875;-0.829833984375;-0.47503662109375;-0.2208251953125;12.332428389398169;15.134237925530082;0.37747883078173855;-0.46533203125;0.46875;-0.28515625;-1.25;-20.0;-19.75;
1441975956634740;0.19537353515625;-0.8270263671875;-0.4744873046875;-0.22967529296875;12.442182553727932;15.129212866366213;0.366342195351895;-0.486328125;0.42431640625;-0.25732421875;0.75;-25.0;-25.4375;
1441975956655741;0.19873046875;-0.82354736328125;-0.4736328125;-0.24078369140625;12.579078319538318;15.123207377265391;0.35136514515027334;-0.5029296875;0.369140625;-0.2314453125;1.25;-31.3125;-31.375;
1441975956672742;0.20269775390625;-0.81951904296875;-0.471923828125;-0.25433349609375;12.745369271922751;15.119556133911479;0.3333648534022542;-0.513671875;0.33349609375;-0.20361328125;2.9375;-39.8125;-40.25;
1441975956700744;0.20721435546875;-0.81500244140625;-0.4691162109375;-0.26983642578125;12.936209566705726;15.119950431868363;0.3140515812114992;-0.51806640625;0.271484375;-0.18310546875;6.4375;-49.1875;-49.6875;
1441975956716745;0.21209716796875;-0.8104248046875;-0.46502685546875;-0.286376953125;13.140767787419618;15.127314050818216;0.2962757370954306;-0.544921875;0.2041015625;-0.15869140625;11.1875;-55.125;-56.5625;
1441975956732746;0.21783447265625;-0.8052978515625;-0.46026611328125;-0.3038330078125;13.36139512910545;15.137895505886199;0.28197424880824384;-0.55859375;0.158203125;-0.14404296875;17.0;-57.375;-62.125;
1441975956754747;0.22442626953125;-0.798828125;-0.4554443359375;-0.32281494140625;13.606102025630095;15.14450933523684;0.26667436244771375;-0.6103515625;0.13427734375;-0.1201171875;18.5;-57.625;-67.625;
1441975956776748;0.23114013671875;-0.791748046875;-0.44873046875;-0.3441162109375;13.878969862984587;15.15866906238417;0.24892855303821312;-0.673828125;0.10107421875;-0.08544921875;16.625;-62.0625;-74.625;
1441975956798750;0.2373046875;-0.7845458984375;-0.4400634765625;-0.36676025390625;14.165994457782023;15.182077718812794;0.22911006162850972;-0.765625;0.03125;-0.07373046875;25.0625;-69.125;-80.25;
1441975956822751;0.242919921875;-0.77691650390625;-0.43048095703125;-0.39007568359375;14.460617631727898;15.207338341222547;0.20600379938352292;-0.81396484375;0.02734375;-0.07470703125;36.4375;-74.5;-84.875;
1441975956835752;0.249267578125;-0.7677001953125;-0.421142578125;-0.4136962890625;14.76870221239075;15.226445182783328;0.1838175632811706;-0.83154296875;0.06689453125;-0.08642578125;42.0625;-79.8125;-90.5;
1441975956858753;0.25543212890625;-0.75799560546875;-0.4132080078125;-0.435302734375;15.05727505509904;15.234058750950112;0.16037791690021147;-0.86328125;0.08544921875;-0.10546875;36.125;-85.125;-98.625;
1441975956874754;0.26202392578125;-0.74700927734375;-0.40472412109375;-0.45782470703125;15.363945371648141;15.238787541255988;0.1347759521583423;-0.95556640625;0.04541015625;-0.09033203125;27.25;-88.625;-106.0;
1441975956895755;0.2681884765625;-0.73516845703125;-0.39471435546875;-0.4815673828125;15.688023097799725;15.245107570039487;0.10335371778551959;-1.060546875;-0.00927734375;-0.0712890625;26.9375;-93.6875;-112.25;
1441975956918756;0.27392578125;-0.72216796875;-0.3834228515625;-0.50640869140625;16.029816954128712;15.247170329802673;0.06206642831804487;-1.154296875;-0.02392578125;-0.06103515625;34.1875;-99.9375;-118.875;
1441975956934757;0.27947998046875;-0.7080078125;-0.37139892578125;-0.53173828125;16.383884283430156;15.237973947674636;0.007965454225204342;-1.224609375;-0.021484375;-0.060546875;40.1875;-107.3125;-125.3125;
1441975956955758;0.2857666015625;-0.69189453125;-0.3597412109375;-0.55706787109375;16.751492161005693;15.195823454170844;17.928974987996927;-1.27587890625;0.0205078125;-0.076171875;42.3125;-112.5625;-131.125;
1441975956978760;0.2926025390625;-0.67364501953125;-0.34820556640625;-0.58258056640625;17.134647827380665;15.078289439643097;17.780929178184405;-1.376953125;0.02197265625;-0.08935546875;33.6875;-118.5625;-136.9375;
1441975956994761;0.29974365234375;-0.65338134765625;-0.336181640625;-0.6085205078125;17.53158443552753;14.708474707700395;17.383019928942698;-1.46484375;0.017578125;-0.0908203125;27.9375;-126.1875;-143.75;
1441975957015762;0.30633544921875;-0.6318359375;-0.3228759765625;-0.6346435546875;17.864059773178596;11.697363354105196;14.339270570809475;-1.53955078125;-0.01904296875;-0.07470703125;25.5;-133.8125;-151.1875;
1441975957038763;0.3126220703125;-0.60888671875;-0.30859375;-0.66058349609375;17.57976096208095;7.473478087271231;10.080961629396135;-1.63134765625;-0.025390625;-0.0703125;30.1875;-138.9375;-157.5;
1441975957054764;0.31842041015625;-0.58428955078125;-0.29351806640625;-0.6864013671875;17.14760512731832;7.029005556820564;9.600456023834568;-1.693359375;-0.021484375;-0.08984375;31.75;-144.25;-163.75;
1441975957077765;0.32354736328125;-0.55792236328125;-0.27764892578125;-0.71209716796875;16.693820105617853;6.904489682515134;9.437663050249466;-1.71484375;-0.02734375;-0.10107421875;33.625;-151.0;-169.5625;
1441975957098767;0.3272705078125;-0.53021240234375;-0.26092529296875;-0.73736572265625;16.230477701416824;6.867423501083774;9.356700614602817;-1.70068359375;-0.02880859375;-0.12939453125;35.9375;-159.5625;-175.0625;
1441975957114768;0.3297119140625;-0.501953125;-0.24334716796875;-0.76171875;15.767898177031942;6.8607901208022986;9.3001587214227;-1.646484375;0.013671875;-0.14013671875;41.5;-165.8125;-178.0;
1441975957137769;0.33026123046875;-0.47393798828125;-0.22509765625;-0.78466796875;15.317566319333906;6.874633623632395;9.255576839881247;-1.6318359375;0.03515625;-0.17333984375;46.875;-167.5625;-179.0;
1441975957158770;0.32904052734375;-0.446533203125;-0.20648193359375;-0.80609130859375;14.883810077556165;6.901508555529919;9.216277885904555;-1.57568359375;0.0615234375;-0.1953125;55.0625;-165.0625;-175.8125;
1441975957174771;0.32745361328125;-0.4189453125;-0.18829345703125;-0.82574462890625;14.460298229200106;6.930393417137157;9.181099107387631;-1.47314453125;0.1142578125;-0.20654296875;61.5625;-160.6875;-171.0;
1441975957197772;0.32562255859375;-0.3914794921875;-0.1708984375;-0.84356689453125;14.050676806896602;6.960269337847291;9.150411242565305;-1.3583984375;0.1416015625;-0.1962890625;58.5;-158.3125;-166.4375;
1441975957218774;0.32232666015625;-0.36572265625;-0.15435791015625;-0.859375;13.6726816860656;6.99738929873361;9.123486684811974;-1.26220703125;0.11279296875;-0.18505859375;54.3125;-155.125;-159.3125;
1441975957235774;0.31744384765625;-0.34375;-0.1385498046875;-0.8729248046875;13.347286886352373;7.0388104625231795;9.093343947023376;-1.1533203125;0.1025390625;-0.14453125;57.5625;-144.4375;-146.625;
1441975957257776;0.3128662109375;-0.32647705078125;-0.12493896484375;-0.8831787109375;13.090422993057327;7.072512355079228;9.062160168661574;-0.9912109375;0.16796875;-0.1650390625;62.375;-123.5;-130.0;
1441975957278777;0.308837890625;-0.3206787109375;-0.11602783203125;-0.887939453125;12.987244938722663;7.092957980093086;9.029769211067718;-0.86572265625;0.26171875;-0.2275390625;53.875;-96.5625;-108.8125;
1441975957294778;0.305908203125;-0.31927490234375;-0.10992431640625;-0.89019775390625;12.946867402036084;7.104013209535754;9.001377213713784;-0.75634765625;0.2626953125;-0.3046875;40.0625;-70.1875;-88.1875;
1441975957317779;0.3037109375;-0.322021484375;-0.10650634765625;-0.890380859375;12.965025915330905;7.108569324059725;8.977898238864011;-0.7060546875;0.3212890625;-0.40087890625;28.6875;-49.4375;-67.0;
1441975957346781;0.3013916015625;-0.3316650390625;-0.106201171875;-0.88763427734375;13.07532733846451;7.108539901226943;8.956937812591882;-0.6435546875;0.38916015625;-0.4560546875;17.625;-28.3125;-47.0625;
1441975957354781;0.2996826171875;-0.34954833984375;-0.10986328125;-0.88092041015625;13.297187060829167;7.096632021516448;8.93756867599027;-0.62841796875;0.48486328125;-0.505859375;9.4375;4.9375;-20.5625;
1441975957383783;0.29766845703125;-0.37762451171875;-0.117919921875;-0.868896484375;13.65827484288398;7.073246114368389;8.917077644502461;-0.63671875;0.5556640625;-0.6318359375;-1.5;41.875;11.375;
1441975957398784;0.2984619140625;-0.40045166015625;-0.12506103515625;-0.8572998046875;13.957297111972114;7.030267505568949;8.891261044475419;-0.7666015625;0.6279296875;-0.755859375;-10.3125;84.6875;46.9375;
1441975957414785;0.30047607421875;-0.4312744140625;-0.137451171875;-0.839599609375;14.377606147858696;6.961110336893212;8.862441213671236;-0.9951171875;0.8671875;-0.92138671875;-23.625;126.8125;80.375;
1441975957439786;0.301025390625;-0.47119140625;-0.15496826171875;-0.81451416015625;14.940751508583329;6.871312501475723;8.8240895629777;-1.14697265625;0.88037109375;-0.95751953125;-46.6875;172.4375;121.6875;
1441975957458787;0.29638671875;-0.520751953125;-0.17706298828125;-0.78082275390625;15.665424226675384;6.768241046612915;8.76713414178794;-1.35888671875;0.8994140625;-0.9873046875;-57.6875;224.75;171.8125;
1441975957474788;0.2852783203125;-0.57904052734375;-0.2030029296875;-0.736328125;16.557930956784446;6.601044053619422;8.637599450202048;-1.64111328125;0.669921875;-0.9638671875;-52.25;280.4375;231.5;
1441975957497789;0.2685546875;-0.641357421875;-0.2327880859375;-0.6800537109375;17.572956673244384;5.823818795796852;7.901491012229827;-1.9345703125;0.75341796875;-1.005859375;-44.25;339.125;294.125;
1441975957518791;0.2459716796875;-0.7032470703125;-0.26312255859375;-0.613037109375;17.255464952998565;16.40452561524431;0.5190042197582427;-2.384765625;0.79833984375;-1.11669921875;-48.1875;383.125;349.5625;
1441975957534792;0.22088623046875;-0.759521484375;-0.29144287109375;-0.5380859375;16.108412379472924;16.039050917575526;0.19359028928530567;-2.8779296875;0.85400390625;-1.22265625;-44.125;412.4375;387.75;
1441975957557793;0.20330810546875;-0.80218505859375;-0.3270263671875;-0.4564208984375;14.990036345443437;15.873164735331633;0.15805783850550473;-3.142578125;1.33837890625;-1.423828125;-47.3125;424.0625;395.0625;
1441975957578794;0.20703125;-0.8199462890625;-0.38726806640625;-0.3673095703125;13.969842319322188;15.584846433093862;0.24394300053199983;-3.21435546875;2.021484375;-1.66162109375;-133.5;414.5;378.3125;
1441975957594795;0.214111328125;-0.8134765625;-0.45855712890625;-0.2867431640625;13.151579725198209;15.183179635116646;0.3273188807977537;-3.5595703125;1.705078125;-1.4814453125;-359.0625;395.1875;329.625;
1441975957616796;0.210693359375;-0.8009033203125;-0.5184326171875;-0.21319580078125;12.40505413536624;14.832326873602177;0.4038983228217548;-3.6796875;1.47265625;-1.1513671875;-462.75;297.5625;289.625;
1441975957639798;0.20281982421875;-0.78875732421875;-0.56085205078125;-0.14923095703125;11.757259289899942;14.58035446098919;0.49546229639629363;-3.4853515625;0.93994140625;-1.02978515625;-398.5625;240.8125;293.4375;
1441975957654798;0.188232421875;-0.77679443359375;-0.5924072265625;-0.10137939453125;11.236450897689968;14.373413646541028;0.536915879111392;-3.349609375;-0.43994140625;-1.42431640625;-299.0625;204.9375;264.0625;
1441975957676800;0.17254638671875;-0.75579833984375;-0.62835693359375;-0.0653076171875;10.839271426248002;14.114188981756232;0.5428289727095699;-3.2197265625;0.0615234375;-0.91162109375;-224.4375;122.3125;233.1875;
1441975957699801;0.15545654296875;-0.73876953125;-0.6549072265625;-0.03497314453125;10.478985630384573;13.915708982804727;0.5481407679279403;-2.6982421875;-0.0556640625;-0.38720703125;-261.9375;56.6875;190.6875;
