1441975785564955;-0.11846923828125;0.6025390625;0.7886962890625;0.028076171875;10.275158939314727;12.77027464758128;0.28976887690235464;-1.0810546875;-0.04052734375;-0.0986328125;-175.0;100.625;90.5;
1441975785585957;-0.13458251953125;0.593505859375;0.7933349609375;0.01239013671875;10.319518895503675;12.728002636041138;0.4136966674024253;-0.9921875;0.11572265625;-0.1572265625;-112.9375;111.125;61.0;
1441975785607958;-0.15478515625;0.58648681640625;0.79498291015625;0.0029296875;10.445127642133182;12.708665935231993;0.5263337444814928;-0.958984375;0.28857421875;-0.16064453125;-73.8125;117.5625;24.5;
1441975785624959;-0.178955078125;0.57958984375;0.794921875;-2.44140625E-4;10.651523026138562;12.700853612861682;0.6260717441651622;-0.947265625;0.48193359375;-0.16552734375;-51.0625;117.3125;-17.75;
1441975785645960;-0.20697021484375;0.57232666015625;0.79345703125;0.00250244140625;10.934871465072723;12.70276932625777;0.7146723984084732;-0.95849609375;0.61376953125;-0.1318359375;-39.0;115.9375;-60.8125;
1441975785667961;-0.2379150390625;0.5653076171875;0.7896728515625;0.010986328125;11.284365859826835;12.720872961806098;0.7924060274387725;-0.97314453125;0.68359375;-0.07080078125;-29.5;115.5;-101.5625;
1441975785684962;-0.27099609375;0.56072998046875;0.781982421875;0.02447509765625;11.682696890811332;12.772291519894129;0.8659288497755667;-1.0029296875;0.71142578125;-0.009765625;-12.9375;112.9375;-137.875;
1441975785705964;-0.30615234375;0.5601806640625;0.7684326171875;0.0439453125;12.131714172616658;12.87502706914008;0.9405806602001465;-1.02587890625;0.64013671875;0.05419921875;18.8125;112.4375;-164.6875;
1441975785735965;-0.3428955078125;0.56207275390625;0.74957275390625;0.06756591796875;12.616033761126895;13.026163185054891;1.0304846885441916;-1.0419921875;0.5927734375;0.04736328125;65.5;113.1875;-193.375;
1441975785744966;-0.37872314453125;0.56396484375;0.727783203125;0.093994140625;13.109287103009315;13.206729824171067;1.1330422213615567;-1.11572265625;0.58251953125;0.01318359375;100.0625;116.9375;-214.25;
1441975785765967;-0.4110107421875;0.562744140625;0.70660400390625;0.12286376953125;13.598258489549707;13.381338462150099;1.228608421790835;-1.28857421875;0.5517578125;-0.07666015625;114.6875;109.75;-223.6875;
1441975785787968;-0.440673828125;0.557373046875;0.6868896484375;0.1527099609375;14.086169779964042;13.544119769162089;1.324052854989178;-1.37060546875;0.52490234375;-0.14208984375;106.75;84.125;-229.0;
1441975785803969;-0.46868896484375;0.54815673828125;0.66802978515625;0.1832275390625;14.58006223950653;13.70562802340137;1.4298358440486516;-1.35546875;0.583984375;-0.140625;89.8125;64.75;-236.1875;
1441975785825970;-0.49664306640625;0.53515625;0.6494140625;0.2125244140625;15.07579244186092;13.88909645492621;1.5770780949292782;-1.3173828125;0.56005859375;-0.09814453125;76.0;51.8125;-244.875;
1441975785847972;-0.5218505859375;0.52105712890625;0.63092041015625;0.240966796875;15.545689569215371;14.109487871555771;1.7628712166252447;-1.31689453125;0.49560546875;-0.05126953125;58.4375;52.125;-251.3125;
1441975785863973;-0.5421142578125;0.50811767578125;0.61236572265625;0.27001953125;15.97799925027422;14.377087253639733;1.9790298398111428;-1.3828125;0.33154296875;-0.0859375;54.125;42.75;-241.5625;
1441975785885974;-0.55706787109375;0.49908447265625;0.591552734375;0.301025390625;16.365444030485893;14.749171948789165;2.263129681264461;-1.353515625;0.14208984375;-0.01953125;67.6875;26.0;-224.375;
1441975785909975;-0.56768798828125;0.49371337890625;0.56842041015625;0.33294677734375;16.69448257568959;15.288976099018708;2.6849212207447453;-1.26708984375;0.12158203125;0.00244140625;102.6875;15.8125;-209.3125;
1441975785923976;-0.5738525390625;0.489013671875;0.54681396484375;0.364013671875;16.962277198258263;15.974156949925469;3.2463955587878393;-1.28173828125;0.15771484375;-0.05078125;131.875;11.25;-194.3125;
1441975785945977;-0.57684326171875;0.4827880859375;0.5289306640625;0.392822265625;17.173332887813928;16.820611211357964;3.9832065976366122;-1.3076171875;0.2314453125;-0.1083984375;135.625;-5.5;-176.5;
1441975785967979;-0.5772705078125;0.476318359375;0.51361083984375;0.4195556640625;17.308460772137597;17.883604829361538;4.9441882680516045;-1.25341796875;0.126953125;-0.12158203125;119.4375;-24.75;-157.5625;
1441975785983979;-0.5755615234375;0.47113037109375;0.50048828125;0.44305419921875;17.350203116764096;0.9922701803868974;5.957231872016791;-1.1396484375;0.0732421875;-0.056640625;110.0625;-35.25;-139.25;
1441975786005981;-0.57257080078125;0.4666748046875;0.4915771484375;0.461181640625;17.34183799038103;1.860299125820474;6.751702731347753;-1.01123046875;0.1025390625;-0.04345703125;102.6875;-37.0625;-115.6875;
1441975786027982;-0.56988525390625;0.46209716796875;0.48681640625;0.4739990234375;17.319621738635114;2.4845160588650588;7.3308515423715646;-0.9423828125;0.05712890625;-0.0537109375;79.375;-37.0625;-89.625;
1441975786043983;-0.56658935546875;0.457275390625;0.48480224609375;0.48455810546875;17.300942277948813;3.0150832251371886;7.829694302746148;-0.91845703125;0.0107421875;-0.06640625;49.3125;-38.0625;-63.4375;
1441975786065984;-0.5606689453125;0.45416259765625;0.48419189453125;0.494873046875;17.297532630975272;3.513794907462973;8.288942495310563;-0.93115234375;-0.126953125;-0.06494140625;35.25;-44.375;-39.9375;
1441975786088985;-0.554443359375;0.4539794921875;0.4847412109375;0.50146484375;17.31618101312325;3.8430523471051714;8.583455264529755;-0.888671875;-0.16455078125;-0.04638671875;42.9375;-50.75;-20.9375;
1441975786110987;-0.54913330078125;0.45501708984375;0.48828125;0.50286865234375;17.3723855009063;4.044878548539273;8.773127619135346;-0.79736328125;-0.10888671875;-0.08984375;37.5;-41.5;0.0625;
1441975786125988;-0.544677734375;0.45562744140625;0.4952392578125;0.5003662109375;17.459504853448074;4.236770829141102;8.97754425266315;-0.82568359375;-0.0703125;-0.125;14.0;-34.4375;21.875;
1441975786147989;-0.53948974609375;0.456787109375;0.50396728515625;0.4962158203125;17.56985969915226;4.51946300754105;9.278876995681756;-0.89404296875;-0.10595703125;-0.12255859375;-10.75;-34.125;42.125;
1441975786170990;-0.531982421875;0.4603271484375;0.5133056640625;0.491455078125;17.70581331440118;5.067776300558529;9.835848046234112;-0.93505859375;-0.1455078125;-0.0927734375;-16.8125;-34.4375;59.4375;
1441975786185991;-0.5224609375;0.46630859375;0.5223388671875;0.48651123046875;17.836287677010382;6.600874797156739;11.364505817797136;-0.904296875;-0.11083984375;-0.080078125;-7.4375;-34.3125;75.375;
1441975786207992;-0.511474609375;0.47393798828125;0.531005859375;0.48138427734375;17.830616957646587;10.081629574158411;14.831435646358228;-0.8671875;-0.05615234375;-0.09521484375;6.125;-33.5;85.9375;
1441975786230994;-0.4996337890625;0.48248291015625;0.53973388671875;0.47564697265625;17.67033823516716;11.617269749138812;16.35016209600336;-0.89892578125;-0.0146484375;-0.10107421875;14.6875;-32.8125;93.1875;
1441975786245994;-0.48663330078125;0.49102783203125;0.548583984375;0.47015380859375;17.470080771838692;12.074860542583112;16.787242292433138;-0.92822265625;0.033203125;-0.0947265625;18.0625;-31.25;99.4375;
1441975786267996;-0.47412109375;0.5008544921875;0.5557861328125;0.464111328125;17.273882135369654;12.367981347015066;17.054437067063656;-0.9306640625;0.10107421875;-0.08544921875;21.4375;-29.375;101.25;
1441975786290997;-0.46246337890625;0.51080322265625;0.56134033203125;0.45831298828125;17.091945303541216;12.569518968685012;17.226704251752427;-0.9345703125;0.1728515625;-0.08203125;26.1875;-24.75;96.375;
1441975786305998;-0.4517822265625;0.52008056640625;0.56573486328125;0.45306396484375;16.92720372112328;12.709162404336569;17.336855597716436;-0.9560546875;0.2314453125;-0.0966796875;29.75;-19.375;87.5625;
1441975786327999;-0.4425048828125;0.52801513671875;0.5693359375;0.44854736328125;16.784936562361207;12.802667005175952;17.404310710635947;-0.9619140625;0.27734375;-0.09228515625;28.875;-15.9375;77.0625;
1441975786352001;-0.4344482421875;0.5345458984375;0.57220458984375;0.445068359375;16.665965695888588;12.86126099621533;17.439251540032174;-0.92822265625;0.29052734375;-0.08544921875;25.1875;-14.5625;65.375;
1441975786382002;-0.427734375;0.5401611328125;0.57366943359375;0.44287109375;16.575128805318613;12.907982389379923;17.46102436321806;-0.88232421875;0.2763671875;-0.0595703125;22.5625;-13.5625;54.75;
1441975786388003;-0.4224853515625;0.54510498046875;0.57342529296875;0.442138671875;16.5152873171155;12.95250677676063;17.477546629319377;-0.88525390625;0.28857421875;-0.04052734375;23.75;-10.625;40.75;
1441975786412004;-0.4185791015625;0.54925537109375;0.57208251953125;0.44244384765625;16.480194018776707;12.993057648065754;17.490058700552677;-0.90966796875;0.310546875;-0.0380859375;26.8125;-7.625;25.125;
1441975786426005;-0.4166259765625;0.55230712890625;0.5694580078125;0.44384765625;16.476922451859753;13.032653038043618;17.503544061594326;-0.90869140625;0.33935546875;-0.02392578125;27.0625;-4.5;10.9375;
1441975786449006;-0.4166259765625;0.553955078125;0.56561279296875;0.44671630859375;16.508304997361947;13.063921966274684;17.510662833546192;-0.92919921875;0.3642578125;-0.02001953125;25.0625;-1.0625;-5.375;
1441975786464007;-0.41827392578125;0.5540771484375;0.5611572265625;0.45068359375;16.567158816668684;13.081086076124413;17.507948000535357;-0.962890625;0.35205078125;-0.0185546875;23.0;0.375;-22.125;
1441975786495009;-0.42138671875;0.55291748046875;0.55633544921875;0.45513916015625;16.646489853388083;13.09003606466831;17.50251865955813;-0.95166015625;0.3271484375;-0.0078125;18.8125;0.875;-35.0;
1441975786508009;-0.4256591796875;0.5509033203125;0.5511474609375;0.45989990234375;16.741396636087487;13.09646618470173;17.498475588803338;-0.92333984375;0.28564453125;0.01123046875;13.6875;3.125;-44.125;
1441975786531011;-0.43109130859375;0.5484619140625;0.54534912109375;0.46466064453125;16.84991664628754;13.115703840185912;17.510077977553337;-0.88330078125;0.25537109375;0.0439453125;10.625;6.8125;-51.4375;
1441975786553012;-0.43768310546875;0.54534912109375;0.5391845703125;0.46929931640625;16.970890581481573;13.146457229866066;17.537775278939215;-0.8603515625;0.2470703125;0.041015625;7.9375;10.8125;-58.5625;
1441975786568013;-0.44512939453125;0.54132080078125;0.53350830078125;0.47344970703125;17.096117636410654;13.178055388241678;17.574211581092243;-0.88720703125;0.22265625;0.01123046875;3.5;12.5625;-63.5625;
1441975786591014;-0.45306396484375;0.5361328125;0.529052734375;0.47674560546875;17.217891492389526;13.194597699037724;17.606257784078903;-0.92236328125;0.1806640625;-0.01513671875;-5.0625;11.25;-64.0;
1441975786607015;-0.46099853515625;0.53021240234375;0.52557373046875;0.4796142578125;17.334857986536647;13.187398640250551;17.620662559075353;-0.9189453125;0.115234375;-0.0419921875;-15.625;7.5;-59.375;
1441975786628016;-0.4676513671875;0.5247802734375;0.52215576171875;0.48291015625;17.442854077182375;13.152215588754407;17.600920893583623;-0.91845703125;0.02392578125;-0.044921875;-21.9375;4.0;-52.1875;
1441975786644017;-0.47186279296875;0.52142333984375;0.51800537109375;0.48687744140625;17.532789712862638;13.117494348193226;17.5646418995925;-0.92578125;-0.06298828125;-0.0205078125;-15.75;1.875;-43.4375;
1441975786668019;-0.47344970703125;0.5203857421875;0.513427734375;0.4913330078125;17.599472828927922;13.085933870647505;17.514722444454378;-0.9384765625;-0.0791015625;-0.021484375;1.1875;0.1875;-34.1875;
1441975786688020;-0.472900390625;0.52117919921875;0.5087890625;0.49578857421875;17.643711560647155;13.064499039432187;17.463376698032754;-0.92919921875;-0.05517578125;-0.0234375;18.1875;-1.5;-25.0625;
1441975786713021;-0.470703125;0.52325439453125;0.50457763671875;0.5;17.667013377324587;13.042207937772964;17.40469927695956;-0.91064453125;-0.0302734375;-0.02685546875;29.625;-2.5;-16.125;
1441975786733022;-0.4669189453125;0.52618408203125;0.5010986328125;0.50390625;17.66935081012576;12.993754966611036;17.31581846183979;-0.88623046875;-0.0205078125;-0.021484375;36.3125;-3.875;-7.125;
1441975786748023;-0.46160888671875;0.52984619140625;0.49871826171875;0.50732421875;17.648193407557333;12.922848152766296;17.202541271486226;-0.86181640625;-0.01953125;-0.01416015625;40.0625;-6.6875;2.4375;
1441975786771024;-0.45501708984375;0.534423828125;0.49755859375;0.50958251953125;17.600724149526528;12.895196689927019;17.133001908068447;-0.83203125;0.005859375;0.0029296875;42.125;-9.0;12.5;
1441975786787025;-0.44805908203125;0.53955078125;0.497314453125;0.5106201171875;17.536995433217356;12.921723127922988;17.12110662672792;-0.822265625;0.0712890625;0.0166015625;41.6875;-9.1875;20.9375;
1441975786816027;-0.4415283203125;0.54449462890625;0.49774169921875;0.5106201171875;17.46798482718128;12.969886447070612;17.13745489217628;-0.865234375;0.1611328125;0.01220703125;38.3125;-7.4375;24.6875;
1441975786831028;-0.43597412109375;0.548828125;0.4986572265625;0.50994873046875;17.40204718711966;13.018652711319866;17.162286217459442;-0.947265625;0.23583984375;9.765625E-4;31.6875;-6.0625;23.5;
1441975786847029;-0.4315185546875;0.5521240234375;0.49981689453125;0.50897216796875;17.345001767003822;13.050575261167126;17.177952286427352;-1.03955078125;0.294921875;0.00244140625;23.625;-4.625;19.5625;
1441975786868030;-0.4283447265625;0.55413818359375;0.50128173828125;0.50799560546875;17.300192454365604;13.05625341142093;17.175638358825434;-1.0771484375;0.3134765625;0.0224609375;16.0;-2.875;15.0625;
1441975786891031;-0.42584228515625;0.5557861328125;0.5028076171875;0.50689697265625;17.26066868300987;13.063739986214193;17.178672741864307;-1.01708984375;0.2607421875;0.06201171875;8.4375;-0.5625;12.3125;
1441975786907032;-0.42425537109375;0.55694580078125;0.50457763671875;0.505126953125;17.224856902635036;13.082815706498444;17.199939303819228;-0.92919921875;0.23193359375;0.09765625;4.9375;2.8125;11.9375;
1441975786928033;-0.4241943359375;0.55694580078125;0.5078125;0.501953125;17.188364889819884;13.098917596736314;17.2342313046363;-0.8974609375;0.20947265625;0.09228515625;-1.5625;5.25;11.875;
1441975786951035;-0.42578125;0.5550537109375;0.51336669921875;0.49700927734375;17.147796569643134;13.08893617603067;17.26437819995618;-0.87841796875;0.185546875;0.064453125;-17.375;5.0625;14.25;
1441975786967036;-0.4288330078125;0.55157470703125;0.520751953125;0.4906005859375;17.105317987477758;13.060987306905362;17.29482983282341;-0.86376953125;0.1494140625;0.0517578125;-39.625;3.9375;19.0;
1441975786988037;-0.43206787109375;0.54766845703125;0.52850341796875;0.4837646484375;17.061541001037206;13.028405197898142;17.32467212821615;-0.86669921875;0.0908203125;0.0498046875;-57.6875;3.4375;24.9375;
1441975787018039;-0.43408203125;0.54473876953125;0.5355224609375;0.47747802734375;17.012521697873055;13.00298488734993;17.351678028298515;-0.9169921875;0.03564453125;0.05517578125;-61.625;3.1875;30.25;
1441975787027039;-0.43414306640625;0.54327392578125;0.54156494140625;0.47216796875;16.954640842454683;12.98225212859902;17.3679321623044;-0.96630859375;0.0146484375;0.04931640625;-51.3125;1.9375;35.375;
1441975787048040;-0.43255615234375;0.54296875;0.54730224609375;0.4674072265625;16.884945764518097;12.962190710610255;17.374342192357975;-1.00244140625;0.0322265625;0.04931640625;-36.375;-1.0;39.1875;
1441975787071042;-0.42999267578125;0.543212890625;0.55291748046875;0.462890625;16.80800011894121;12.941486304745283;17.37467824816563;-1.01708984375;0.0771484375;0.04931640625;-25.8125;-4.3125;42.5;
1441975787087043;-0.42706298828125;0.54345703125;0.55859375;0.45843505859375;16.728290644065435;12.917339460417352;17.370538273872057;-1.029296875;0.11181640625;0.05419921875;-20.75;-6.5;45.0;
1441975787110044;-0.424072265625;0.54345703125;0.5643310546875;0.45416259765625;16.649551769080553;12.887418402060732;17.360829998598202;-1.04833984375;0.125;0.0576171875;-19.5;-8.0625;46.0625;
1441975787131045;-0.4210205078125;0.54327392578125;0.570068359375;0.45001220703125;16.571577615363623;12.854917118376235;17.348572854044654;-1.0419921875;0.1279296875;0.0673828125;-19.75;-9.375;46.0;
1441975787148046;-0.418212890625;0.54278564453125;0.575927734375;0.44580078125;16.495411187835177;12.821421983103603;17.337472167180774;-1.0263671875;0.1337890625;0.080078125;-20.125;-9.8125;45.6875;
1441975787168047;-0.41558837890625;0.54205322265625;0.58184814453125;0.44134521484375;16.419844616858963;12.789918507805856;17.330523082504993;-1.0126953125;0.13232421875;0.10205078125;-21.5625;-8.9375;45.375;
1441975787191048;-0.41339111328125;0.54119873046875;0.5877685546875;0.43670654296875;16.347037687362793;12.762904944734363;17.33022549191747;-0.98974609375;0.130859375;0.11376953125;-23.3125;-7.8125;45.5625;
1441975787207049;-0.4114990234375;0.5400390625;0.5936279296875;0.43194580078125;16.27736831335909;12.736436089893632;17.332471328082658;-0.97119140625;0.12109375;0.1025390625;-25.3125;-6.9375;45.9375;
1441975787228051;-0.40966796875;0.53887939453125;0.59930419921875;0.42724609375;16.209589974674266;12.712066447131251;17.336341260136066;-0.95947265625;0.095703125;0.1025390625;-27.125;-6.8125;46.5;
1441975787251052;-0.4078369140625;0.5379638671875;0.6046142578125;0.4227294921875;16.14415454796116;12.692549498529091;17.342808351158535;-0.9599609375;0.08447265625;0.0966796875;-26.8125;-7.125;47.25;
1441975787267053;-0.40557861328125;0.537353515625;0.609619140625;0.41839599609375;16.077153374844936;12.675746747897165;17.348511442089663;-0.95703125;0.0771484375;0.083984375;-24.4375;-7.5;47.5625;
1441975787288054;-0.4031982421875;0.5369873046875;0.6142578125;0.4144287109375;16.01243222159436;12.6610942884141;17.353204152324537;-0.9560546875;0.1005859375;0.0810546875;-21.0625;-8.25;47.125;
1441975787311055;-0.400634765625;0.53668212890625;0.61846923828125;0.41094970703125;15.951018462679743;12.645598898955882;17.353723052439314;-0.95361328125;0.11669921875;0.0751953125;-18.25;-9.5625;45.5;
1441975787327056;-0.3978271484375;0.5364990234375;0.6221923828125;0.40826416015625;15.894076402332157;12.627820491377902;17.347171175163336;-0.9453125;0.126953125;0.0712890625;-15.25;-10.9375;43.125;
1441975787348057;-0.394775390625;0.53668212890625;0.62518310546875;0.40643310546875;15.842572408968554;12.611886385424809;17.336052589926688;-0.923828125;0.134765625;0.08154296875;-10.75;-12.3125;39.875;
1441975787371059;-0.391845703125;0.537353515625;0.62701416015625;0.40557861328125;15.802179342630595;12.602367008180705;17.32400969559677;-0.91552734375;0.16357421875;0.09130859375;-4.4375;-12.625;35.0625;
1441975787387060;-0.38922119140625;0.53802490234375;0.62811279296875;0.405517578125;15.772386568750205;12.593046380159567;17.308559580198526;-0.92236328125;0.18798828125;0.09033203125;2.0625;-12.1875;28.75;
1441975787410061;-0.386962890625;0.53857421875;0.62872314453125;0.40594482421875;15.75109705742443;12.583493019624761;17.29141912808897;-0.91455078125;0.20458984375;0.09228515625;5.8125;-11.875;22.3125;
1441975787431062;-0.38555908203125;0.53863525390625;0.6287841796875;0.40716552734375;15.745107938254193;12.56948551929803;17.26975627768398;-0.8935546875;0.23193359375;0.0986328125;6.6875;-10.6875;15.5;
1441975787447063;-0.38519287109375;0.538330078125;0.628173828125;0.408935546875;15.755066573873018;12.555283546586923;17.248378323317432;-0.8876953125;0.2470703125;0.1103515625;6.8125;-9.0625;6.9375;
1441975787470064;-0.3857421875;0.53729248046875;0.6270751953125;0.411376953125;15.78042802879196;12.534009414071202;17.2213212654415;-0.890625;0.25537109375;0.10498046875;5.9375;-7.4375;-1.4375;
1441975787491066;-0.38726806640625;0.53582763671875;0.62542724609375;0.414306640625;15.820303417491788;12.51037182978843;17.192928187811265;-0.8935546875;0.24609375;0.1181640625;4.125;-5.5625;-8.9375;
1441975787507067;-0.3896484375;0.53387451171875;0.623291015625;0.417724609375;15.8734376508975;12.482238764165738;17.16107977624623;-0.900390625;0.2412109375;0.11767578125;3.6875;-3.625;-16.125;
1441975787530068;-0.3929443359375;0.53179931640625;0.62066650390625;0.42132568359375;15.937981086193751;12.45588110765473;17.13203548840615;-0.90185546875;0.24267578125;0.130859375;2.5;-1.375;-23.3125;
1441975787558069;-0.397216796875;0.5289306640625;0.61785888671875;0.42498779296875;16.013700623547578;12.42228691035094;17.100191187709225;-0.90869140625;0.2568359375;0.119140625;1.0625;1.25;-29.625;
1441975787567070;-0.4024658203125;0.52545166015625;0.6148681640625;0.42877197265625;16.100333852575236;12.382014197092392;17.065357684812074;-0.916015625;0.25341796875;0.125;-2.875;3.8125;-35.875;
1441975787590071;-0.40826416015625;0.5213623046875;0.61163330078125;0.432861328125;16.195374291928754;12.330602434048021;17.02114018661437;-0.93212890625;0.22998046875;0.12451171875;-6.875;5.375;-40.25;
1441975787611073;-0.41436767578125;0.5172119140625;0.6080322265625;0.43707275390625;16.295392232075436;12.27531862715393;16.972677975945643;-0.94580078125;0.19384765625;0.1357421875;-8.5;6.5625;-43.375;
1441975787633074;-0.42041015625;0.5130615234375;0.60443115234375;0.441162109375;16.39383015903316;12.214882901648506;16.919240970182937;-0.9541015625;0.1533203125;0.13134765625;-8.125;7.5625;-44.0;
1441975787650075;-0.4263916015625;0.509033203125;0.600830078125;0.44500732421875;16.48994826038638;12.15198997331029;16.863525118410266;-0.95849609375;0.12939453125;0.12890625;-7.9375;7.8125;-43.125;
1441975787671076;-0.4320068359375;0.50518798828125;0.59735107421875;0.44854736328125;16.580087248253193;12.08628321875173;16.80466704951948;-0.9638671875;0.111328125;0.11572265625;-8.1875;7.625;-41.5;
1441975787687077;-0.43707275390625;0.50201416015625;0.5938720703125;0.45184326171875;16.662925184776284;12.025943491985968;16.74836182032129;-0.97705078125;0.103515625;0.12060546875;-7.75;7.8125;-39.0;
1441975787710078;-0.4415283203125;0.49932861328125;0.59063720703125;0.454833984375;16.736591858072597;11.968322409574789;16.693206876123455;-0.98583984375;0.11328125;0.11572265625;-5.0625;8.1875;-36.5;
1441975787731079;-0.4456787109375;0.496826171875;0.587646484375;0.457275390625;16.803615543632358;11.914227892901597;16.64250185564881;-0.9970703125;0.1318359375;0.12353515625;-3.375;8.5;-34.125;
1441975787747080;-0.449462890625;0.4945068359375;0.58526611328125;0.45916748046875;16.861043004858328;11.86259899085901;16.5960285816686;-0.98974609375;0.1484375;0.12158203125;-4.0625;8.625;-32.0;
1441975787770082;-0.4530029296875;0.49224853515625;0.5833740234375;0.46051025390625;16.911085884224207;11.813755391298066;16.554470424727622;-0.96826171875;0.162109375;0.12255859375;-5.9375;8.5;-29.4375;
1441975787791083;-0.45660400390625;0.4901123046875;0.58184814453125;0.46124267578125;16.95710943440856;11.773700478162613;16.524333650047396;-0.94970703125;0.171875;0.130859375;-7.9375;9.0625;-26.75;
1441975787807084;-0.4600830078125;0.48785400390625;0.58074951171875;0.46142578125;16.997735084163427;11.73599064716841;16.49938731398553;-0.95166015625;0.16796875;0.1171875;-10.5625;9.5625;-23.9375;
1441975787830085;-0.46343994140625;0.4857177734375;0.5802001953125;0.46112060546875;17.03197512684539;11.705598358011196;16.484022152071123;-0.95458984375;0.1669921875;0.115234375;-13.125;9.25;-21.1875;
1441975787851086;-0.4666748046875;0.483642578125;0.57989501953125;0.46044921875;17.062491151298133;11.681501237497978;16.4761962192128;-0.9521484375;0.17626953125;0.1201171875;-15.5625;9.3125;-18.5;
1441975787867087;-0.46942138671875;0.4818115234375;0.579833984375;0.45965576171875;17.08653753347642;11.66236038864998;16.472286925827618;-0.9609375;0.15771484375;0.1044921875;-16.5;8.875;-15.25;
1441975787890088;-0.471435546875;0.48040771484375;0.5799560546875;0.4588623046875;17.10257118282828;11.650281953267177;16.47265282131724;-0.966796875;0.14990234375;0.10888671875;-15.25;7.5;-11.875;
1441975787911090;-0.4727783203125;0.47955322265625;0.580078125;0.4581298828125;17.11245878421814;11.648983300542316;16.480129547205753;-0.96240234375;0.1484375;0.11083984375;-12.25;6.25;-8.3125;
1441975787927091;-0.47344970703125;0.4791259765625;0.5804443359375;0.45745849609375;17.114515270287605;11.653764984597574;16.491049586316414;-0.978515625;0.1357421875;0.1044921875;-8.9375;4.875;-4.375;
1441975787956092;-0.47332763671875;0.479248046875;0.58111572265625;0.4566650390625;17.106722498072255;11.671249191174615;16.512056140413183;-0.97119140625;0.11962890625;0.10107421875;-5.8125;2.75;0.25;
1441975787971093;-0.47247314453125;0.47967529296875;0.5821533203125;0.45574951171875;17.089388659345964;11.693897509148837;16.536682723036847;-0.9677734375;0.11279296875;0.099609375;-3.3125;0.75;5.5;
1441975787987094;-0.4710693359375;0.48052978515625;0.5836181640625;0.45440673828125;17.062704915660774;11.731143175959211;16.57557802161738;-0.958984375;0.11376953125;0.10888671875;-1.5;-0.5625;10.1875;
1441975788010095;-0.46923828125;0.48175048828125;0.58551025390625;0.45263671875;17.027599488482576;11.779738154809287;16.62600904403565;-0.95849609375;0.1220703125;0.1142578125;-0.9375;-1.4375;14.9375;
1441975788031097;-0.4671630859375;0.48291015625;0.587890625;0.4503173828125;16.985337367636966;11.830085288623668;16.68071023231983;-0.97314453125;0.14013671875;0.103515625;-1.0625;-2.4375;18.875;
1441975788047097;-0.4652099609375;0.48394775390625;0.59075927734375;0.44757080078125;16.93930701769321;11.878776210007373;16.737077855628836;-0.97216796875;0.1591796875;0.10791015625;-3.5;-3.1875;21.75;
1441975788070099;-0.4632568359375;0.4847412109375;0.59393310546875;0.44451904296875;16.890357305685686;11.921177230994424;16.789659804339983;-0.95263671875;0.16357421875;0.10595703125;-6.8125;-3.375;23.625;
1441975788091100;-0.4613037109375;0.48583984375;0.59710693359375;0.44110107421875;16.839419455258668;11.972263482012174;16.851122272976397;-0.93310546875;0.1650390625;0.11962890625;-9.1875;-2.8125;25.625;
1441975788113101;-0.45965576171875;0.48675537109375;0.60015869140625;0.43756103515625;16.79143858160925;12.019499212849599;16.91017058200286;-0.93017578125;0.1923828125;0.11572265625;-9.0625;-1.75;25.9375;
1441975788130102;-0.45843505859375;0.48712158203125;0.603515625;0.4339599609375;16.745495149934975;12.053047686035997;16.959378532427166;-0.95458984375;0.19873046875;0.09326171875;-11.0;-1.9375;25.5625;
1441975788151103;-0.45721435546875;0.48724365234375;0.6068115234375;0.430419921875;16.70050866917892;12.078749209574694;17.001153631309453;-0.97802734375;0.18115234375;0.09814453125;-14.5;-2.6875;25.75;
1441975788167104;-0.4560546875;0.48748779296875;0.60986328125;0.42706298828125;16.65788564750479;12.103855909769196;17.04091772294134;-0.95947265625;0.17529296875;0.10546875;-15.0;-2.875;25.5625;
1441975788190106;-0.4549560546875;0.48785400390625;0.61260986328125;0.423828125;16.617816109091407;12.12998176079668;17.080308557079988;-0.9404296875;0.173828125;0.103515625;-13.4375;-2.1875;24.75;
1441975788212107;-0.45391845703125;0.48822021484375;0.615234375;0.42071533203125;16.579354015602362;12.15384634059189;17.11690849680647;-0.943359375;0.18359375;0.10205078125;-12.0;-1.4375;23.3125;
1441975788226108;-0.453125;0.488525390625;0.61773681640625;0.41754150390625;16.54346956923372;12.178077999844877;17.154588563162218;-0.93896484375;0.19970703125;0.10107421875;-11.4375;-1.25;21.875;
1441975788249109;-0.45294189453125;0.48828125;0.62030029296875;0.41424560546875;16.512944793154297;12.196259401139367;17.19009419713148;-0.93017578125;0.22216796875;0.09912109375;-12.8125;-0.375;19.875;
1441975788271110;-0.45318603515625;0.48760986328125;0.6226806640625;0.4111328125;16.488830884036695;12.207971977366793;17.220547822759666;-0.9443359375;0.2236328125;0.1005859375;-16.0625;0.625;17.6875;
1441975788287111;-0.4537353515625;0.48681640625;0.62481689453125;0.408203125;16.469778705638646;12.218309579197996;17.249604813418614;-0.9677734375;0.21826171875;0.099609375;-18.0;0.9375;15.5625;
1441975788309112;-0.45458984375;0.48565673828125;0.62689208984375;0.405517578125;16.455530107172567;12.22165437399034;17.272697346955866;-0.966796875;0.20703125;0.0888671875;-17.875;0.875;13.75;
1441975788331114;-0.45562744140625;0.48443603515625;0.628662109375;0.40301513671875;16.445631506563362;12.224912110422306;17.29500559233;-0.974609375;0.19287109375;0.099609375;-18.8125;1.25;12.625;
1441975788347115;-0.45672607421875;0.48321533203125;0.6302490234375;0.4007568359375;16.438396504798035;12.226828904646135;17.314888320102632;-0.98583984375;0.1796875;0.091796875;-18.375;1.5625;11.625;
1441975788376116;-0.4576416015625;0.48223876953125;0.63153076171875;0.39892578125;16.432720602635836;12.228671383645242;17.33130884779268;-0.986328125;0.16455078125;0.09521484375;-16.75;1.5625;11.1875;
1441975788392117;-0.45819091796875;0.481689453125;0.63250732421875;0.3973388671875;16.42584575519487;12.234424186528894;17.34777988482979;-0.98193359375;0.14892578125;0.1025390625;-13.5625;1.6875;11.25;
1441975788407118;-0.45855712890625;0.481689453125;0.6331787109375;0.3958740234375;16.418367998154995;12.248217278196654;17.36890163056361;-0.978515625;0.14990234375;0.0986328125;-9.5;1.5;11.5;
1441975788429119;-0.458740234375;0.4818115234375;0.63385009765625;0.39447021484375;16.409270266468003;12.261974717105455;17.38893589189638;-0.97802734375;0.16552734375;0.0888671875;-6.1875;1.4375;11.6875;
1441975788452121;-0.458984375;0.48175048828125;0.63458251953125;0.39312744140625;16.401025780262174;12.272015932652913;17.405957111886522;-0.97119140625;0.17431640625;0.0908203125;-5.625;1.4375;11.5625;
1441975788466121;-0.45916748046875;0.481689453125;0.63519287109375;0.39190673828125;16.393554663468024;12.281172907798346;17.421237502144606;-0.9677734375;0.1728515625;0.09912109375;-6.0625;1.4375;11.0625;
1441975788496123;-0.45928955078125;0.4818115234375;0.6357421875;0.3907470703125;16.38567177601434;12.292329185455129;17.43742609977201;-0.9580078125;0.17431640625;0.1005859375;-5.1875;1.3125;10.375;
1441975788512124;-0.45965576171875;0.48193359375;0.63604736328125;0.3896484375;16.381496096511352;12.305923549955603;17.455858177921062;-0.94775390625;0.19384765625;0.1103515625;-4.0625;2.25;9.0625;
1441975788527125;-0.460205078125;0.4818115234375;0.6363525390625;0.388671875;16.380021913211284;12.315588638056747;17.471218749155295;-0.94287109375;0.20947265625;0.095703125;-4.0;2.9375;6.9375;
1441975788550126;-0.46112060546875;0.48138427734375;0.63653564453125;0.38775634765625;16.38340360992466;12.323190828266496;17.48592006602466;-0.9365234375;0.2138671875;0.1015625;-5.0625;2.9375;4.375;
1441975788572127;-0.46258544921875;0.48052978515625;0.6365966796875;0.38702392578125;16.394036577993283;12.326732115652504;17.49842763366535;-0.9423828125;0.236328125;0.09814453125;-6.625;3.875;1.1875;
1441975788587128;-0.46435546875;0.4791259765625;0.6365966796875;0.38671875;16.411095157032953;12.319841026381699;17.50151004946485;-0.93115234375;0.232421875;0.0986328125;-8.6875;4.375;-2.625;
1441975788609130;-0.46624755859375;0.477783203125;0.6361083984375;0.3868408203125;16.433877871857565;12.31364417433726;17.502786356236864;-0.923828125;0.22021484375;0.1064453125;-9.4375;4.4375;-6.1875;
1441975788632131;-0.46826171875;0.47662353515625;0.63525390625;0.38726806640625;16.46070098073348;12.31032229003592;17.50474656878157;-0.916015625;0.2109375;0.10888671875;-7.1875;5.25;-8.75;
1441975788646132;-0.470458984375;0.47528076171875;0.63427734375;0.38775634765625;16.490582179130296;12.305603883626551;17.505853499415764;-0.916015625;0.2177734375;0.1015625;-4.9375;5.75;-11.1875;
1441975788669133;-0.4730224609375;0.47344970703125;0.6334228515625;0.38824462890625;16.524130682021354;12.294431876922332;17.503303016837258;-0.9306640625;0.22265625;0.0908203125;-6.3125;5.5625;-13.25;
1441975788700135;-0.47576904296875;0.47125244140625;0.63262939453125;0.38897705078125;16.56094757336711;12.274635413444825;17.493126807076965;-0.94921875;0.22119140625;0.0849609375;-8.9375;5.0;-15.0;
1441975788706135;-0.4783935546875;0.46893310546875;0.63165283203125;0.39007568359375;16.59986956843958;12.248096479132569;17.474648827931013;-0.9755859375;0.20361328125;0.09130859375;-10.0625;4.5;-16.25;
1441975788729136;-0.48065185546875;0.4669189453125;0.63055419921875;0.3916015625;16.63745103180674;12.218334112555652;17.449357931290503;-0.98388671875;0.171875;0.09228515625;-8.4375;3.125;-16.25;
1441975788752138;-0.4822998046875;0.46551513671875;0.6292724609375;0.39324951171875;16.669910555913603;12.193579727687386;17.424728769547507;-0.97509765625;0.15185546875;0.09619140625;-4.8125;2.3125;-15.25;
1441975788766139;-0.483642578125;0.4644775390625;0.6280517578125;0.394775390625;16.697866028374584;12.173324360439027;17.40320205855556;-0.9599609375;0.15625;0.1015625;-0.625;1.9375;-13.9375;
1441975788789140;-0.48486328125;0.463623046875;0.626953125;0.39605712890625;16.72246515270672;12.157188560266926;17.385992470932724;-0.958984375;0.16796875;0.09814453125;1.125;1.8125;-12.75;
1441975788812141;-0.4859619140625;0.4627685546875;0.626220703125;0.3968505859375;16.74169486244137;12.14365806357981;17.37357185726605;-0.96240234375;0.17578125;0.09521484375;0.4375;1.5625;-11.25;
1441975788827142;-0.487060546875;0.4619140625;0.62567138671875;0.39739990234375;16.758728030406882;12.131809429942992;17.36407627635501;-0.95703125;0.18408203125;0.09228515625;-1.3125;1.6875;-9.6875;
1441975788849143;-0.4881591796875;0.4610595703125;0.62518310546875;0.3978271484375;16.77486227416669;12.12101278266881;17.356177578389676;-0.9619140625;0.1875;0.0947265625;-2.75;1.875;-8.5625;
1441975788872145;-0.4888916015625;0.46044921875;0.62469482421875;0.3983154296875;16.787597516013953;12.111188189480217;17.34735436586426;-0.96875;0.18212890625;0.0888671875;-3.0625;1.5625;-7.6875;
1441975788893146;-0.48944091796875;0.46014404296875;0.62408447265625;0.3990478515625;16.799748963669327;12.103020147200546;17.337656224360785;-0.95849609375;0.181640625;0.09326171875;-1.4375;1.25;-6.6875;
1441975788909147;-0.48956298828125;0.460205078125;0.62347412109375;0.39971923828125;16.807206252609205;12.099872957206085;17.330931811729823;-0.958984375;0.17431640625;0.09130859375;1.3125;0.6875;-5.625;
1441975788932148;-0.489501953125;0.46044921875;0.6229248046875;0.40032958984375;16.812040541967797;12.099411529216692;17.32619592098882;-0.94287109375;0.1787109375;0.09130859375;3.25;0.125;-4.375;
1441975788953149;-0.4893798828125;0.46075439453125;0.6224365234375;0.40081787109375;16.81534055352141;12.101126559027481;17.32383324973253;-0.94580078125;0.18505859375;0.087890625;4.0;-0.125;-3.25;
1441975788977151;-0.4891357421875;0.46112060546875;0.6220703125;0.4013671875;16.816909217960244;12.101065723871919;17.31930192801832;-0.9521484375;0.18310546875;0.08203125;3.9375;-0.3125;-2.3125;
1441975788992152;-0.48883056640625;0.46160888671875;0.62176513671875;0.40167236328125;16.81630732884807;12.106385480066479;17.320544247041347;-0.94775390625;0.18359375;0.09326171875;4.0;-0.4375;-1.6875;
1441975789015153;-0.48858642578125;0.462158203125;0.621337890625;0.40191650390625;16.81660255781706;12.115446648055457;17.3253752891078;-0.9462890625;0.1943359375;0.09326171875;4.0625;-0.0625;-1.0625;
1441975789029154;-0.4886474609375;0.4625244140625;0.6209716796875;0.4019775390625;16.818734415983535;12.125461797514491;17.333253617820205;-0.95556640625;0.19580078125;0.0859375;3.9375;0.375;-0.9375;
1441975789052155;-0.4886474609375;0.4625244140625;0.6209716796875;0.4019775390625;16.818734415983535;12.125461797514491;17.333253617820205;-0.95654296875;0.1845703125;0.0771484375;2.0625;0.8125;-0.875;
1441975789073156;-0.48876953125;0.46282958984375;0.62066650390625;0.4019775390625;16.820872632942827;12.135160213990282;17.34151311245855;-0.95361328125;0.1767578125;0.09130859375;0.5625;0.875;-0.1875;
1441975789089157;-0.4888916015625;0.4632568359375;0.620361328125;0.40185546875;16.822167973111906;12.14926123020105;17.354175295218337;-0.97216796875;0.1748046875;0.08447265625;1.75;1.4375;0.3125;
1441975789112158;-0.489013671875;0.46343994140625;0.6201171875;0.40179443359375;16.823988223625573;12.15704872440275;17.361264956660065;-0.96435546875;0.18115234375;0.0830078125;1.4375;1.8125;0.3125;
1441975789133160;-0.48907470703125;0.4638671875;0.61981201171875;0.40179443359375;16.825244314728227;12.168778508691421;17.3710111169124;-0.95263671875;0.16796875;0.09130859375;0.875;2.0625;0.4375;
1441975789150161;-0.48883056640625;0.46478271484375;0.61920166015625;0.4019775390625;16.825362733211684;12.187820531168466;17.384384486288198;-0.9462890625;0.15869140625;0.0986328125;2.5;2.5;1.375;
1441975789171162;-0.4886474609375;0.46563720703125;0.61871337890625;0.40191650390625;16.824317758707593;12.20886988541354;17.401203558981166;-0.94287109375;0.1640625;0.087890625;5.9375;2.75;1.9375;
1441975789193163;-0.48870849609375;0.4661865234375;0.6185302734375;0.4014892578125;16.82257768209447;12.228661015999606;17.420296675577013;-0.9462890625;0.18212890625;0.0830078125;4.4375;2.5625;1.9375;
1441975789209164;-0.489013671875;0.4664306640625;0.618408203125;0.40106201171875;16.82325463735664;12.243778101936199;17.436460774756128;-0.95068359375;0.1884765625;0.0830078125;1.125;2.875;1.5625;
1441975789232165;-0.48919677734375;0.4666748046875;0.61822509765625;0.40081787109375;16.824104584484775;12.255662461716872;17.4483451345368;-0.95263671875;0.18115234375;0.0859375;-0.8125;3.1875;1.0625;
1441975789253166;-0.4893798828125;0.46722412109375;0.61773681640625;0.4007568359375;16.826718598789;12.273652244578363;17.464002941500627;-0.94091796875;0.17578125;0.1005859375;0.5;3.625;0.5;
1441975789269167;-0.489501953125;0.4678955078125;0.61700439453125;0.40093994140625;16.831045039549014;12.292230092579937;17.478308437109124;-0.94140625;0.1845703125;0.09375;2.8125;4.3125;-0.3125;
1441975789291169;-0.48980712890625;0.46844482421875;0.6162109375;0.4010009765625;16.8370252904984;12.31267929376511;17.49557446297638;-0.94580078125;0.1884765625;0.091796875;4.375;4.375;-1.5625;
1441975789315170;-0.49041748046875;0.46875;0.615478515625;0.4010009765625;16.845470872743036;12.331476098993686;17.513087001059244;-0.93212890625;0.20068359375;0.0849609375;3.6875;4.75;-3.0;
1441975789329171;-0.49127197265625;0.46868896484375;0.61480712890625;0.40118408203125;16.85739606876914;12.341863236601869;17.523544345585666;-0.93408203125;0.20166015625;0.076171875;1.4375;5.0625;-4.5;
1441975789358172;-0.4921875;0.4683837890625;0.61419677734375;0.4013671875;16.870209926654976;12.347523891183803;17.530363701957864;-0.9345703125;0.1884765625;0.08251953125;-0.1875;4.6875;-5.5625;
1441975789375173;-0.49322509765625;0.468017578125;0.61346435546875;0.401611328125;16.885217678777433;12.353559853452706;17.537558095209413;-0.93798828125;0.18603515625;0.0810546875;-0.6875;4.4375;-6.4375;
1441975789389174;-0.49432373046875;0.46746826171875;0.6129150390625;0.4017333984375;16.899600378718556;12.356601099036903;17.543348176031067;-0.94140625;0.1787109375;0.0771484375;-1.3125;4.375;-6.8125;
1441975789412176;-0.4954833984375;0.46685791015625;0.61236572265625;0.40185546875;16.914658254863927;12.359078055494214;17.548922060785863;-0.94775390625;0.17724609375;0.07861328125;-2.625;4.375;-7.0;
1441975789435177;-0.4967041015625;0.4664306640625;0.61163330078125;0.40191650390625;16.930455278257266;12.369236898577944;17.561479673728314;-0.94921875;0.17724609375;0.07763671875;-2.875;4.625;-7.1875;
1441975789449178;-0.4979248046875;0.4659423828125;0.61102294921875;0.40191650390625;16.945394288259408;12.37806043661775;17.573398698509077;-0.94287109375;0.1787109375;0.0732421875;-2.25;5.0625;-7.5;
1441975789471179;-0.499267578125;0.46533203125;0.61053466796875;0.4017333984375;16.960078182685336;12.387571110045064;17.58759391467245;-0.93212890625;0.18408203125;0.07421875;-2.9375;5.4375;-7.6875;
1441975789495180;-0.50079345703125;0.4647216796875;0.61004638671875;0.40130615234375;16.97503184155537;12.403670893947808;17.60961817132816;-0.92333984375;0.19140625;0.072265625;-4.4375;6.0625;-8.125;
1441975789509181;-0.50250244140625;0.46380615234375;0.60968017578125;0.4007568359375;16.99109907915182;12.416346562234715;17.630350520372513;-0.9267578125;0.19677734375;0.06103515625;-5.9375;6.25;-8.5625;
1441975789532182;-0.5045166015625;0.462646484375;0.60943603515625;0.39996337890625;17.008429724995235;12.430443642246512;17.65513631331103;-0.92138671875;0.19775390625;0.06591796875;-7.875;6.6875;-9.3125;
1441975789555184;-0.50653076171875;0.46136474609375;0.60919189453125;0.399169921875;17.0261760442797;12.44254370947847;17.67831503528184;-0.91357421875;0.20166015625;0.05859375;-10.375;7.0;-10.125;
1441975789569185;-0.5086669921875;0.46002197265625;0.60888671875;0.3985595703125;17.046263551049247;12.452687795848577;17.699293269994936;-0.90771484375;0.20166015625;0.05810546875;-11.25;7.0625;-10.75;
1441975789591186;-0.51043701171875;0.4588623046875;0.6082763671875;0.3984375;17.06712001255166;12.458152614836425;17.71176205782199;-0.90234375;0.1806640625;0.05078125;-10.625;6.5625;-10.9375;
1441975789621187;-0.5118408203125;0.458251953125;0.6075439453125;0.39849853515625;17.084768908612286;12.470434179337095;17.72747574417811;-0.90869140625;0.15869140625;0.0498046875;-7.0;5.4375;-10.3125;
1441975789629188;-0.51312255859375;0.45751953125;0.6072998046875;0.398193359375;17.09716903668162;12.478950206984267;17.741903319032005;-0.90625;0.1552734375;0.03466796875;-3.4375;4.25;-8.6875;
1441975789651189;-0.51416015625;0.45635986328125;0.6075439453125;0.397705078125;17.105495000466867;12.470937249125017;17.742374530260086;-0.9052734375;0.1640625;0.03369140625;-6.25;3.0625;-7.0625;
1441975789675191;-0.5150146484375;0.45526123046875;0.60797119140625;0.397216796875;17.11107517215594;12.459223480593948;17.738947106382646;-0.904296875;0.1513671875;0.041015625;-8.6875;1.125;-5.0625;
1441975789689191;-0.515380859375;0.4547119140625;0.60821533203125;0.39697265625;17.11322036475222;12.45210059712076;17.735892212656392;-0.87890625;0.12646484375;0.052734375;-8.25;0.75;-2.875;
1441975789712193;-0.51470947265625;0.4552001953125;0.6082763671875;0.397216796875;17.10712550785198;12.449364026052384;17.729285217820827;-0.8486328125;0.10595703125;0.0537109375;-3.875;0.1875;0.0;
1441975789735194;-0.51348876953125;0.45654296875;0.6082763671875;0.39727783203125;17.093204374737326;12.464578038628192;17.736955058132537;-0.81787109375;0.1005859375;0.06103515625;3.9375;-1.1875;3.8125;
1441975789749195;-0.51226806640625;0.45794677734375;0.608642578125;0.396728515625;17.07384444667318;12.487455663151467;17.754965266083367;-0.79052734375;0.1181640625;0.0458984375;7.5625;-1.1875;6.8125;
1441975789771196;-0.51129150390625;0.45855712890625;0.60980224609375;0.3955078125;17.05119932815608;12.496045458040946;17.76597958359697;-0.75390625;0.1328125;0.03515625;4.9375;-1.375;8.8125;
1441975789795197;-0.50994873046875;0.45867919921875;0.611572265625;0.3944091796875;17.02453181631281;12.478456623491185;17.75260216286042;-0.69775390625;0.09716796875;0.029296875;-2.4375;-2.875;11.875;
1441975789816199;-0.5072021484375;0.45965576171875;0.61334228515625;0.3939208984375;16.987013521429922;12.453461073565464;17.723621055635626;-0.63525390625;0.04736328125;0.05078125;-4.0625;-5.9375;15.5625;
1441975789831200;-0.50286865234375;0.462890625;0.61444091796875;0.39404296875;16.936127836063793;12.458211171306301;17.709528897296714;-0.5869140625;0.0244140625;0.06884765625;4.0625;-9.125;20.8125;
1441975789855201;-0.4981689453125;0.46661376953125;0.61590576171875;0.39337158203125;16.874647452942124;12.477531683977944;17.710976465641554;-0.55859375;0.04443359375;0.04931640625;18.9375;-10.75;26.625;
1441975789875202;-0.49334716796875;0.47003173828125;0.6180419921875;0.3919677734375;16.8057519377856;12.49227848090245;17.71254335312219;-0.533203125;0.07568359375;0.05908203125;18.375;-8.9375;30.25;
1441975789900203;-0.48797607421875;0.47314453125;0.6209716796875;0.39031982421875;16.727819529795237;12.490932375541915;17.700378817755816;-0.537109375;0.09228515625;0.05908203125;13.5625;-10.1875;33.4375;
1441975789915204;-0.482421875;0.4761962890625;0.62408447265625;0.3885498046875;16.647018426332366;12.487651138480464;17.686851917203608;-0.55859375;0.1142578125;0.08203125;10.9375;-13.5;36.0625;
1441975789936206;-0.4764404296875;0.4794921875;0.6273193359375;0.38665771484375;16.56074513864567;12.48629254728628;17.674069704834373;-0.59912109375;0.1455078125;0.0703125;10.0;-15.4375;36.1875;
1441975789951206;-0.47113037109375;0.48211669921875;0.630615234375;0.384521484375;16.48045688773943;12.482644868763035;17.663769494323542;-0.64111328125;0.18505859375;0.0888671875;11.4375;-15.5625;37.0;
1441975789975208;-0.46630859375;0.48358154296875;0.63433837890625;0.3824462890625;16.405702243305235;12.462009093750844;17.64231750582233;-0.66162109375;0.1845703125;0.07080078125;6.25;-15.875;35.625;
1441975789996209;-0.461669921875;0.48370361328125;0.63885498046875;0.38031005859375;16.33174892682501;12.420010677503825;17.606491972445685;-0.67919921875;0.18701171875;0.07373046875;0.1875;-18.0625;32.625;
1441975790011210;-0.457275390625;0.48345947265625;0.643310546875;0.37847900390625;16.262424167470996;12.37514868619462;17.56847442279144;-0.703125;0.20361328125;0.09716796875;-7.1875;-21.625;30.25;
1441975790034211;-0.453125;0.48284912109375;0.6470947265625;0.37774658203125;16.20496292043878;12.324185027023637;17.52092088747923;-0.74462890625;0.23193359375;0.11767578125;-8.1875;-21.625;26.75;
1441975790063213;-0.44940185546875;0.48223876953125;0.650146484375;0.3778076171875;16.158492477067462;12.275808212919987;17.472622164951655;-0.82763671875;0.2353515625;0.13671875;-4.875;-22.5625;21.5625;
1441975790071213;-0.44610595703125;0.48138427734375;0.652587890625;0.37860107421875;16.12265019063719;12.225742393340195;17.4205918866166;-0.90869140625;0.21044921875;0.1396484375;-1.8125;-21.9375;19.3125;
1441975790094215;-0.442626953125;0.4805908203125;0.65472412109375;0.38006591796875;16.089310568069475;12.173308048009988;17.362585179489397;-0.94677734375;0.16650390625;0.16015625;0.8125;-21.125;17.4375;
1441975790117216;-0.438720703125;0.48028564453125;0.65679931640625;0.38134765625;16.050159561612357;12.129406694479737;17.310879653943598;-0.94384765625;0.11669921875;0.17822265625;4.75;-22.1875;18.375;
1441975790131217;-0.4346923828125;0.4803466796875;0.65911865234375;0.3818359375;16.003880828485393;12.09726588685317;17.272616330635472;-0.93505859375;0.14306640625;0.1865234375;7.125;-22.0625;19.6875;
1441975790162218;-0.431396484375;0.4798583984375;0.66156005859375;0.38189697265625;15.962276379066452;12.065493236475595;17.240047406909444;-1.00830078125;0.26318359375;0.18505859375;5.0625;-21.125;18.375;
1441975790177219;-0.4295654296875;0.47772216796875;0.6644287109375;0.38177490234375;15.93303192735567;12.018807825218772;17.203311052789147;-1.123046875;0.3369140625;0.1533203125;-2.125;-22.9375;15.0;
1441975790200221;-0.42822265625;0.474365234375;0.6673583984375;0.38232421875;15.912151234856287;11.953742686814918;17.151380206433995;-1.1796875;0.28857421875;0.12890625;-13.0;-24.625;12.875;
1441975790214221;-0.425537109375;0.4722900390625;0.66961669921875;0.38397216796875;15.884737163345756;11.895638689803967;17.09357868078775;-1.1484375;0.17529296875;0.17041015625;-14.9375;-24.6875;12.875;
1441975790237223;-0.4205322265625;0.4732666015625;0.6707763671875;0.38616943359375;15.840127520368236;11.870590527387849;17.04844842963905;-1.10009765625;0.12109375;0.216796875;-1.4375;-25.5;16.5625;
1441975790251224;-0.414306640625;0.47589111328125;0.671630859375;0.38824462890625;15.783454412101332;11.866013238084882;17.01490806243192;-1.09033203125;0.19970703125;0.2333984375;19.25;-26.0;21.0;
1441975790274225;-0.40771484375;0.47857666015625;0.672607421875;0.3902587890625;15.7224609591722;11.862322382536801;16.981568544404755;-1.11083984375;0.310546875;0.203125;26.625;-28.3125;21.375;
1441975790306227;-0.4019775390625;0.47857666015625;0.67498779296875;0.39202880859375;15.663080727928374;11.827047401562186;16.93188278049344;-1.1103515625;0.35595703125;0.18212890625;26.0;-31.9375;21.0625;
1441975790311227;-0.39556884765625;0.47821044921875;0.67816162109375;0.3935546875;15.591909873846037;11.787489454570036;16.880164075406174;-1.05224609375;0.30810546875;0.21240234375;10.4375;-35.125;18.875;
1441975790334228;-0.38873291015625;0.47900390625;0.68060302734375;0.3951416015625;15.519913480411013;11.76478175668191;16.838299520234923;-0.99267578125;0.3515625;0.2783203125;8.8125;-35.125;18.8125;
1441975790357230;-0.38201904296875;0.4801025390625;0.682861328125;0.396484375;15.448808343741938;11.749679500629469;16.803630854775292;-0.97998046875;0.39990234375;0.30615234375;16.0;-31.5;18.125;
1441975790371230;-0.37445068359375;0.4815673828125;0.68524169921875;0.39788818359375;15.368958442302949;11.737955771723566;16.768973748758413;-0.98046875;0.392578125;0.302734375;17.0;-30.4375;20.3125;
1441975790402232;-0.3662109375;0.48333740234375;0.68743896484375;0.39947509765625;15.284388733831673;11.729492450454352;16.73365850072218;-0.962890625;0.40380859375;0.30322265625;19.9375;-33.5625;22.9375;
1441975790417233;-0.35791015625;0.48492431640625;0.68975830078125;0.40118408203125;15.19893669765548;11.719343348395796;16.69691975278976;-0.953125;0.4365234375;0.3095703125;23.0;-35.8125;22.8125;
1441975790438234;-0.34991455078125;0.48626708984375;0.69189453125;0.40283203125;15.117238072204538;11.709450858015966;16.661645429846107;-0.95458984375;0.50830078125;0.31640625;21.25;-37.3125;18.9375;
1441975790454235;-0.34228515625;0.487548828125;0.693603515625;0.40496826171875;15.042949670033959;11.698789999008328;16.6239858431195;-0.982421875;0.5869140625;0.31005859375;17.8125;-38.125;13.9375;
1441975790485237;-0.33648681640625;0.4871826171875;0.6956787109375;0.40667724609375;14.982451821299579;11.676279430997512;16.58700881319474;-0.99365234375;0.57421875;0.30908203125;19.1875;-37.6875;11.9375;
1441975790498238;-0.3292236328125;0.48834228515625;0.69683837890625;0.4093017578125;14.91607460106143;11.665761896356726;16.547676129520063;-0.96875;0.4638671875;0.3251953125;9.0;-33.5625;12.8125;
1441975790514239;-0.32012939453125;0.49163818359375;0.69635009765625;0.413330078125;14.846451401636369;11.671822996640477;16.503966524086664;-0.9873046875;0.47900390625;0.33740234375;22.6875;-36.625;14.25;
1441975790537240;-0.31103515625;0.49603271484375;0.69500732421875;0.417236328125;14.781612290100606;11.691476943452315;16.46821119577963;-1.0380859375;0.5322265625;0.322265625;41.5;-42.25;13.1875;
1441975790558241;-0.3033447265625;0.49908447265625;0.6939697265625;0.42095947265625;14.72769513250042;11.700106629545061;16.430886617856963;-1.0234375;0.54541015625;0.2509765625;45.5625;-42.3125;13.125;
1441975790574242;-0.2952880859375;0.5028076171875;0.692138671875;0.42523193359375;14.6769574322052;11.714238797015922;16.391822013731883;-1.02880859375;0.513671875;0.2509765625;36.0;-40.375;11.3125;
1441975790597243;-0.28692626953125;0.50677490234375;0.68988037109375;0.429931640625;14.62748251967762;11.729806497716712;16.3498595041437;-1.0341796875;0.48583984375;0.2431640625;43.5;-41.375;11.5625;
1441975790618245;-0.2789306640625;0.511474609375;0.68701171875;0.4342041015625;14.58414009154003;11.755736990631931;16.316469705725435;-1.00927734375;0.501953125;0.26708984375;47.9375;-40.3125;9.4375;
1441975790634245;-0.2716064453125;0.51580810546875;0.68408203125;0.438232421875;14.546887844053355;11.780097372932914;16.28504155671275;-1.0;0.5224609375;0.263671875;50.125;-35.1875;9.0;
1441975790657247;-0.26434326171875;0.5211181640625;0.679931640625;0.44287109375;14.519935961155547;11.812736905130953;16.253546505574054;-1.01025390625;0.4990234375;0.2646484375;47.875;-32.625;9.25;
1441975790678248;-0.25750732421875;0.52655029296875;0.675048828125;0.44793701171875;14.503094033628676;11.846111059268004;16.220152156615466;-1.01904296875;0.4716796875;0.2578125;56.4375;-30.25;7.6875;
1441975790694249;-0.25048828125;0.53240966796875;0.66943359375;0.453369140625;14.490673530415243;11.883169187747914;16.185246011116107;-1.017578125;0.478515625;0.275390625;59.5;-27.375;3.5625;
1441975790724251;-0.24493408203125;0.53753662109375;0.66424560546875;0.45794677734375;14.486722637620147;11.91709513663605;16.15765511218549;-0.98193359375;0.47021484375;0.25732421875;64.0;-26.75;0.5625;
1441975790738251;-0.240478515625;0.541015625;0.659912109375;0.4625244140625;14.487550153929444;11.93503022907165;16.124921564174166;-0.94091796875;0.4873046875;0.2529296875;54.75;-19.9375;-2.5;
1441975790754252;-0.23590087890625;0.54473876953125;0.65509033203125;0.46734619140625;14.49130499091126;11.955062902554264;16.090977652589068;-0.95166015625;0.43408203125;0.28662109375;45.8125;-19.4375;-2.25;
1441975790777254;-0.22900390625;0.550048828125;0.649169921875;0.4727783203125;14.483315952398915;11.988598156055208;16.053454576159492;-0.97509765625;0.375;0.29736328125;49.9375;-18.9375;0.4375;
1441975790798255;-0.2216796875;0.55535888671875;0.64373779296875;0.4774169921875;14.466375546771207;12.025078533523509;16.02122055080559;-0.974609375;0.40673828125;0.28955078125;66.3125;-24.1875;3.125;
1441975790821256;-0.21575927734375;0.55865478515625;0.64019775390625;0.48101806640625;14.446907293168108;12.045064875708942;15.991509049321285;-0.8935546875;0.43896484375;0.23388671875;62.0;-24.75;4.625;
1441975790837257;-0.20843505859375;0.56231689453125;0.6368408203125;0.4844970703125;14.413531734355365;12.068775382544036;15.96077539464128;-0.87744140625;0.439453125;0.26025390625;44.625;-22.6875;6.0625;
1441975790858258;-0.19976806640625;0.56689453125;0.6328125;0.488037109375;14.372982185763565;12.101951187824952;15.93009680117174;-0.828125;0.4658203125;0.24560546875;48.4375;-26.25;9.25;
1441975790874259;-0.19122314453125;0.5714111328125;0.62945556640625;0.49053955078125;14.326364775217527;12.137939773932342;15.907635604428242;-0.765625;0.517578125;0.22509765625;56.0625;-27.5625;8.0625;
1441975790897260;-0.1854248046875;0.57330322265625;0.62799072265625;0.49237060546875;14.289744212365976;12.150460177341621;15.885864378059654;-0.68310546875;0.6171875;0.20263671875;49.75;-24.3125;4.9375;
1441975790918262;-0.179931640625;0.5758056640625;0.62457275390625;0.49591064453125;14.27403509527414;12.164601167005099;15.854043952178664;-0.61474609375;0.6455078125;0.240234375;26.5;-18.375;-2.5;
1441975790934263;-0.17767333984375;0.57635498046875;0.61944580078125;0.50244140625;14.30686955148547;12.15188433355552;15.797941788579879;-0.5673828125;0.77685546875;0.248046875;34.125;-17.625;-23.6875;
1441975790957264;-0.18170166015625;0.57598876953125;0.61175537109375;0.5107421875;14.417163493319194;12.12462961563194;15.738067325730064;-0.43603515625;0.8271484375;0.32275390625;28.5625;-12.75;-59.875;
1441975790978265;-0.1964111328125;0.57147216796875;0.60137939453125;0.52264404296875;14.647156686768422;12.03884614205479;15.648665843971623;-0.578125;0.900390625;0.36083984375;17.0625;3.625;-95.6875;
1441975790994266;-0.23175048828125;0.55389404296875;0.59136962890625;0.5382080078125;15.050679979402807;11.774607193244233;15.475149892982216;-0.72119140625;0.7392578125;0.42041015625;-12.1875;12.25;-130.0;
1441975791017267;-0.23663330078125;0.552734375;0.57293701171875;0.55694580078125;15.248341121948144;11.658490695327512;15.26976334911775;-2.095703125;0.25732421875;1.17138671875;-116.125;29.5;-219.1875;
1441975791038269;-0.21783447265625;0.5616455078125;0.569580078125;0.55914306640625;15.1194902212075;11.76587503656237;15.274886499588124;-1.19482421875;-0.15576171875;0.2197265625;66.25;-24.6875;-127.5;
1441975791054269;-0.20361328125;0.56390380859375;0.58660888671875;0.54443359375;14.853179179468308;11.871105940217227;15.419916098263778;-1.3076171875;0.7763671875;0.33935546875;101.4375;-36.6875;50.75;
1441975791076271;-0.20751953125;0.56121826171875;0.59893798828125;0.5321044921875;14.77714325034567;11.892029100411905;15.533354543200014;-0.5048828125;1.17529296875;0.17919921875;-37.6875;-13.125;96.1875;
1441975791098272;-0.2188720703125;0.559326171875;0.60540771484375;0.5220947265625;14.812277967007088;11.909322998471;15.640857589073658;-0.55908203125;0.791015625;0.15771484375;-86.5625;27.875;34.75;
1441975791114273;-0.2230224609375;0.56494140625;0.60858154296875;0.51055908203125;14.803564878287247;12.015819752831757;15.787029415069549;-1.33447265625;0.63134765625;0.1875;-80.25;42.5625;20.0625;
1441975791136274;-0.2186279296875;0.5772705078125;0.60955810546875;0.497314453125;14.722133219104611;12.196879994806375;15.959035513382293;-1.33984375;0.5625;0.125;-23.6875;46.8125;53.3125;
1441975791158275;-0.21051025390625;0.58929443359375;0.6126708984375;0.482666015625;14.5779805811953;12.366411935127692;16.118554190579747;-1.3251953125;0.75146484375;0.2177734375;30.6875;52.8125;79.75;
1441975791174276;-0.205078125;0.59832763671875;0.61810302734375;0.4666748046875;14.429741870157656;12.49890078340175;16.269081725631438;-1.3173828125;0.9453125;0.22119140625;34.9375;48.75;100.25;
1441975791196278;-0.2034912109375;0.6004638671875;0.625732421875;0.45428466796875;14.31606967767501;12.54609992519597;16.363476838852666;-1.19580078125;0.84521484375;0.17138671875;3.9375;46.125;98.0625;
1441975791210278;-0.1934814453125;0.60955810546875;0.626220703125;0.44586181640625;14.180655981137505;12.644277162151152;16.427781958965756;-1.107421875;0.57666015625;0.265625;-26.375;33.3125;84.375;
1441975791232280;-0.18719482421875;0.6190185546875;0.628173828125;0.4324951171875;14.04185047645333;12.756816799052896;16.535901693042135;-1.00244140625;0.8095703125;0.25;47.0625;17.1875;73.0625;
1441975791247280;-0.18695068359375;0.62677001953125;0.63177490234375;0.41583251953125;13.925305618082385;12.861449099325782;16.675601206972633;-0.85302734375;0.93310546875;0.1513671875;24.0625;44.25;71.6875;
1441975791270282;-0.1890869140625;0.62713623046875;0.6385498046875;0.40380859375;13.842371642195928;12.883220475255417;16.758950600145265;-1.0224609375;1.04541015625;-0.03076171875;-14.125;61.4375;68.25;
1441975791293283;-0.1883544921875;0.62738037109375;0.64453125;0.3941650390625;13.751712992922409;12.894343048921648;16.813445748807382;-1.013671875;0.86767578125;0.126953125;-43.8125;41.0;52.9375;
1441975791316284;-0.1893310546875;0.6357421875;0.6444091796875;0.38031005859375;13.668846872410594;12.99669865121434;16.933820244495383;-0.78857421875;0.853515625;0.33935546875;-22.375;36.0625;44.25;
1441975791330285;-0.1925048828125;0.64703369140625;0.64215087890625;0.363037109375;13.58177102007611;13.135422239940304;17.092229974682954;-0.6826171875;0.7626953125;0.1875;16.4375;76.1875;49.75;
1441975791353287;-0.19549560546875;0.65606689453125;0.641357421875;0.34637451171875;13.485258793915229;13.246396555969042;17.231959788320314;-0.8134765625;0.931640625;0.08251953125;23.8125;101.375;57.4375;
1441975791384288;-0.19598388671875;0.6617431640625;0.64483642578125;0.3282470703125;13.341457408912712;13.313513384999082;17.347710463116645;-0.94677734375;0.88916015625;0.0498046875;10.1875;90.8125;61.5625;
1441975791390289;-0.1954345703125;0.66949462890625;0.64874267578125;0.3043212890625;13.138573053398714;13.396640289676137;17.48876212338917;-0.830078125;0.8916015625;0.1591796875;-8.25;82.3125;77.375;
1441975791413290;-0.1925048828125;0.679443359375;0.651611328125;0.2767333984375;12.88292242619835;13.490888825863566;17.634706612453595;-0.67919921875;0.80517578125;0.06640625;-11.5625;99.375;106.0;
1441975791436291;-0.18646240234375;0.6884765625;0.6556396484375;0.24755859375;12.583334286859616;13.562271071727267;17.759877508996645;-0.65576171875;0.984375;-0.00439453125;0.0;108.875;128.125;
1441975791450292;-0.17767333984375;0.69720458984375;0.66058349609375;0.214111328125;12.223282288695884;13.62010210848911;17.880983930156752;-0.58935546875;1.048828125;0.02734375;-4.0625;101.5;146.125;
1441975791481294;-0.16693115234375;0.704833984375;0.66619873046875;0.17730712890625;11.81903764148641;13.660659052946073;17.996989708127376;-0.41552734375;1.03271484375;4.8828125E-4;-9.3125;106.4375;173.5625;
1441975791497295;-0.15313720703125;0.7135009765625;0.6693115234375;0.13922119140625;11.380995448226805;13.704274084807432;0.10074128049096234;-0.3056640625;1.0693359375;0.03662109375;-16.5;110.75;192.75;
1441975791510296;-0.13714599609375;0.72137451171875;0.67132568359375;0.100341796875;10.920372583969677;13.738255451579242;0.19170593419874826;-0.158203125;1.09326171875;-0.01904296875;-1.0625;106.9375;207.75;
1441975791532297;-0.11920166015625;0.72760009765625;0.672607421875;0.0623779296875;10.45454942468914;13.758811309516464;0.2654437860468956;-0.07373046875;1.02734375;0.01318359375;1.9375;102.5;218.5625;
1441975791550298;-0.10009765625;0.7327880859375;0.67242431640625;0.0267333984375;10.000994646064706;13.774282674081045;0.3229010881792622;-0.03271484375;1.04443359375;0.02587890625;1.125;90.8125;221.875;
1441975791570299;-0.082763671875;0.736572265625;0.67120361328125;-0.00738525390625;9.57522583280025;13.78501237672025;0.3807322215689075;0.0361328125;0.955078125;0.0107421875;4.875;77.125;217.0625;
1441975791592300;-0.06671142578125;0.73974609375;0.66839599609375;-0.03887939453125;9.181425627767204;13.796945447624122;0.4335410289854371;0.06005859375;0.9072265625;-0.0615234375;3.4375;77.375;203.75;
1441975791616302;-0.0518798828125;0.7408447265625;0.666259765625;-0.0667724609375;8.829187534507392;13.796282036945925;0.4775785987228024;0.052734375;0.88134765625;-0.083984375;8.375;72.1875;189.125;
1441975791630302;-0.03826904296875;0.7396240234375;0.66558837890625;-0.09197998046875;8.511705433896761;13.779461368515882;0.5176360246204911;0.0126953125;0.8828125;-0.04296875;0.1875;62.125;170.875;
1441975791653304;-0.0247802734375;0.736328125;0.666259765625;-0.11505126953125;8.215925783180838;13.74802375642383;0.5523235064047204;-0.0341796875;0.859375;-0.0439453125;-13.8125;56.1875;155.75;
1441975791675305;-0.0106201171875;0.7347412109375;0.664794921875;-0.1341552734375;7.945338815318935;13.733423071193045;0.5690409148924083;-0.11376953125;0.73828125;0.0078125;-26.25;47.8125;148.0;
1441975791690306;0.00421142578125;0.73504638671875;0.66180419921875;-0.14727783203125;7.7168219332591805;13.737194196041823;0.5581009696492092;-0.1328125;0.6767578125;0.06640625;-10.0625;27.8125;137.75;
1441975791712307;0.01629638671875;0.73388671875;0.6610107421875;-0.15545654296875;7.553847392707521;13.730293279405506;0.5404849595332429;-0.126953125;0.62939453125;0.01416015625;2.6875;-1.1875;119.25;
1441975791736308;0.0260009765625;0.73114013671875;0.66253662109375;-0.160400390625;7.439382045060323;13.710077594592013;0.5220280892770383;-0.076171875;0.595703125;-0.06201171875;-12.1875;-8.875;98.0;
1441975791750309;0.03253173828125;0.72900390625;0.664306640625;-0.16143798828125;7.382118512598961;13.694480488130488;0.5009317451631936;-0.0654296875;0.51611328125;-0.05078125;-25.875;-12.125;72.3125;
1441975791772311;0.03472900390625;0.7288818359375;0.66510009765625;-0.1583251953125;7.3917273104929;13.69411241473669;0.47924914034174815;-0.0615234375;0.4375;-0.0390625;-21.9375;-17.1875;42.4375;
1441975791796312;0.0322265625;0.73089599609375;0.6651611328125;-0.14923095703125;7.486895325628206;13.709530514538331;0.45123855799334633;-0.0703125;0.396484375;-0.06396484375;-8.875;-19.5625;8.875;
1441975791810313;0.02587890625;0.73480224609375;0.66461181640625;-0.13275146484375;7.673202685339394;13.739507311342823;0.40884538318100233;-0.1318359375;0.365234375;-0.0966796875;3.0;-27.8125;-30.1875;
1441975791832314;0.019775390625;0.7393798828125;0.66363525390625;-0.11163330078125;7.896922720247302;13.775380973501022;0.3479799764500597;-0.232421875;0.32470703125;-0.12060546875;13.0625;-45.1875;-68.9375;
1441975791856315;0.0111083984375;0.743896484375;0.6627197265625;-0.0849609375;8.18862439775708;13.810523249357605;0.27850284156362737;-0.283203125;0.3359375;-0.09033203125;22.0625;-68.4375;-100.1875;
1441975791870316;-0.00244140625;0.7471923828125;0.66217041015625;-0.05596923828125;8.53876375706568;13.836210925571606;0.22376943458060286;-0.25732421875;0.357421875;-0.0830078125;22.5625;-82.3125;-132.9375;
1441975791892317;-0.01971435546875;0.74957275390625;0.6611328125;-0.02484130859375;8.935978941656412;13.857729336532909;0.17890139050025922;-0.2685546875;0.3828125;-0.08203125;19.25;-73.3125;-162.75;
1441975791917319;-0.0399169921875;0.75042724609375;0.65960693359375;0.0091552734375;9.380761152005991;13.873101047595233;0.1373977120958865;-0.314453125;0.39013671875;-0.04150390625;19.4375;-67.875;-186.3125;
1441975791930320;-0.0625;0.7501220703125;0.65673828125;0.04473876953125;9.858212503823394;13.887369856777985;0.10144036178263917;-0.33935546875;0.39306640625;0.0263671875;17.625;-68.625;-210.125;
1441975791954321;-0.08709716796875;0.74932861328125;0.65130615234375;0.08148193359375;10.362620213784439;13.908919429055036;0.07190757603853727;-0.3623046875;0.39404296875;0.087890625;20.5;-66.1875;-226.8125;
1441975791976322;-0.114501953125;0.7469482421875;0.6436767578125;0.12091064453125;10.914976594452455;13.932592293436935;0.04670291332878018;-0.38916015625;0.4111328125;0.103515625;30.0;-62.625;-241.3125;
1441975791990323;-0.14453125;0.741455078125;0.63446044921875;0.16339111328125;11.519773102275382;13.949603045687688;0.022154047224673054;-0.43359375;0.47216796875;0.05224609375;32.6875;-63.375;-265.5;
1441975792012324;-0.1766357421875;0.7335205078125;0.62274169921875;0.20703125;12.158488785178111;13.968167984645648;0.004297844908848601;-0.5361328125;0.47802734375;-9.765625E-4;27.25;-67.6875;-290.8125;
1441975792035326;-0.20892333984375;0.7249755859375;0.607421875;0.24835205078125;12.787799323655292;14.005718347448385;0.004427383524155703;-0.68408203125;0.39208984375;0.03662109375;28.625;-64.5;-306.75;
1441975792051326;-0.23870849609375;0.71624755859375;0.5911865234375;0.2835693359375;13.351301461280533;14.056900579145145;0.026327356862769494;-0.9072265625;0.265625;0.1337890625;39.875;-49.8125;-301.1875;
1441975792072328;-0.26593017578125;0.70263671875;0.578857421875;0.31689453125;13.88734417080942;14.065228780832912;0.029756680988907866;-1.1357421875;0.3056640625;-9.765625E-4;37.625;-33.125;-269.75;
1441975792096329;-0.29388427734375;0.68084716796875;0.57281494140625;0.34912109375;14.430565260853413;13.993066540948883;0.001065540832095248;-1.25341796875;0.3369140625;-0.18017578125;4.625;-49.25;-253.875;
1441975792118330;-0.3236083984375;0.65545654296875;0.568603515625;0.37713623046875;14.959841944497882;13.890753329951139;17.97361931614562;-1.19189453125;0.251953125;-0.134765625;-50.875;-67.3125;-255.5625;
1441975792132331;-0.35369873046875;0.63018798828125;0.56256103515625;0.40155029296875;15.470196986816012;13.79903086572504;17.95977501207995;-1.14892578125;0.12353515625;-0.11181640625;-80.125;-55.75;-251.1875;
1441975792155332;-0.38116455078125;0.6075439453125;0.55255126953125;0.424560546875;15.957686949676484;13.736978329269363;17.950453888349106;-1.19482421875;-0.0205078125;-0.1103515625;-80.3125;-37.5625;-243.75;
1441975792170333;-0.40447998046875;0.58837890625;0.5386962890625;0.4471435546875;16.41616863242146;13.706587812440413;17.93938136665488;-1.30078125;-0.0419921875;-0.05078125;-53.8125;-26.75;-234.1875;
1441975792192335;-0.4246826171875;0.57147216796875;0.5225830078125;0.468994140625;16.849676642552634;13.699660391908429;17.931208817413733;-1.3896484375;0.0810546875;-0.02978515625;-20.0;-21.125;-223.1875;
1441975792216336;-0.44219970703125;0.5560302734375;0.50421142578125;0.49090576171875;17.270826495056298;13.714476848351884;17.92577764382092;-1.47021484375;0.154296875;-0.08447265625;0.5;-18.5;-213.6875;
1441975792230337;-0.45550537109375;0.543212890625;0.48260498046875;0.51422119140625;17.678378798892687;13.767695895884838;17.92550279200478;-1.59228515625;0.1005859375;-0.095703125;19.9375;-17.3125;-208.3125;
1441975792252338;-0.46728515625;0.5302734375;0.459716796875;0.53765869140625;17.91431324631777;4.666967271866691;8.762878136898735;-1.6259765625;0.1943359375;-0.11865234375;53.375;-19.0625;-205.25;
1441975792275339;-0.4776611328125;0.51641845703125;0.4365234375;0.560791015625;17.509534551673095;4.842326968446527;8.874320350802558;-1.5673828125;0.24658203125;-0.12890625;61.75;-21.125;-207.125;
1441975792290340;-0.48419189453125;0.503173828125;0.411376953125;0.585693359375;17.107313644444485;4.956920115984107;8.900573162070678;-1.49658203125;0.181640625;-0.16357421875;64.1875;-26.5;-206.9375;
1441975792312341;-0.48602294921875;0.49151611328125;0.3846435546875;0.6116943359375;16.72332109539611;5.078446595587445;8.906537794590838;-1.53369140625;0.12255859375;-0.154296875;88.625;-34.375;-205.0;
1441975792336343;-0.4891357421875;0.47760009765625;0.36041259765625;0.63458251953125;16.349293807172376;5.163706550062303;8.901171468611189;-1.478515625;0.29931640625;-0.21728515625;116.1875;-40.375;-199.625;
1441975792350344;-0.49542236328125;0.46063232421875;0.33978271484375;0.6533203125;15.98247047681948;5.210491568352759;8.89662734170083;-1.421875;0.35009765625;-0.234375;91.0625;-44.5625;-195.5625;
1441975792372345;-0.50103759765625;0.443359375;0.31976318359375;0.6708984375;15.625720632163285;5.253997121476803;8.89166141564111;-1.3369140625;0.2392578125;-0.19921875;51.875;-47.0625;-190.4375;
1441975792395346;-0.501708984375;0.42852783203125;0.29840087890625;0.68963623046875;15.29345118222203;5.325427973094572;8.88401511904284;-1.314453125;0.06494140625;-0.0966796875;48.625;-47.3125;-182.875;
1441975792410347;-0.50048828125;0.41510009765625;0.27764892578125;0.7071533203125;14.988738401734413;5.395986865866627;8.869615920892848;-1.224609375;0.09716796875;-0.0849609375;78.5625;-46.0625;-171.75;
1441975792432348;-0.5;0.4013671875;0.2589111328125;0.72235107421875;14.701707887393228;5.452831294170515;8.856171756686495;-1.1513671875;0.18994140625;-0.109375;83.5;-43.0625;-160.0;
1441975792455350;-0.49908447265625;0.38787841796875;0.2415771484375;0.7362060546875;14.432498506385208;5.5072356810481065;8.845332798507513;-1.1201171875;0.16845703125;-0.10693359375;68.75;-43.9375;-150.875;
1441975792470350;-0.49603271484375;0.37530517578125;0.22442626953125;0.7501220703125;14.178843930523197;5.5722776823714195;8.834872075346297;-1.037109375;0.126953125;-0.06689453125;63.5625;-43.625;-140.5625;
1441975792492352;-0.49237060546875;0.36358642578125;0.2086181640625;0.76275634765625;13.947602814316006;5.6348115755567845;8.82445276675378;-0.88037109375;0.14697265625;-0.07373046875;73.375;-43.5625;-131.625;
1441975792515353;-0.48944091796875;0.35235595703125;0.1949462890625;0.7734375;13.738681180539617;5.68679454336404;8.816400866231053;-0.77392578125;0.20166015625;-0.09765625;70.625;-41.75;-120.4375;
1441975792530354;-0.48455810546875;0.34619140625;0.18597412109375;0.781494140625;13.616598926122595;5.740839309761705;8.814450000986707;-0.716796875;0.17333984375;-0.0908203125;58.3125;-40.8125;-108.125;
1441975792552355;-0.4788818359375;0.34100341796875;0.17828369140625;0.7890625;13.514454658745466;5.798176630050502;8.816098729568868;-0.66845703125;0.1796875;-0.09033203125;55.75;-41.4375;-94.3125;
1441975792576357;-0.4732666015625;0.336669921875;0.17193603515625;0.795654296875;13.43083732186326;5.851990382695167;8.819455832240196;-0.59228515625;0.20458984375;-0.07568359375;55.0;-39.25;-82.0;
1441975792590357;-0.46856689453125;0.33343505859375;0.166748046875;0.8009033203125;13.365973227608068;5.894987766040131;8.820198956915307;-0.478515625;0.2265625;-0.05859375;49.0625;-33.9375;-68.5;
1441975792612359;-0.462158203125;0.33233642578125;0.162353515625;0.805908203125;13.329938970671355;5.945568279553326;8.820759147241223;-0.376953125;0.201171875;-0.056640625;40.125;-26.875;-54.875;
1441975792636360;-0.45330810546875;0.33502197265625;0.16009521484375;0.810302734375;13.348135416728248;6.007813246585889;8.825036739376939;-0.32861328125;0.21826171875;-0.0703125;48.0;-20.125;-40.375;
1441975792650361;-0.4476318359375;0.3409423828125;0.162109375;0.81060791015625;13.425759110731862;6.04012024315337;8.830224063601548;-0.3857421875;0.34375;-0.12939453125;56.125;-13.4375;-23.75;
1441975792674362;-0.445068359375;0.34832763671875;0.16705322265625;0.807861328125;13.53592259628934;6.046410382400442;8.836220866855275;-0.50244140625;0.392578125;-0.1953125;27.125;-5.5625;-4.75;
1441975792704364;-0.438720703125;0.35870361328125;0.17327880859375;0.80548095703125;13.687988077358822;6.077696780441579;8.850739771698994;-0.58740234375;0.2451171875;-0.16552734375;2.75;1.8125;12.75;
1441975792710364;-0.4300537109375;0.37353515625;0.18212890625;0.80145263671875;13.906147570682183;6.119650430707853;8.87165541046207;-0.6025390625;0.193359375;-0.12353515625;21.1875;9.8125;36.0;
1441975792732365;-0.42156982421875;0.39263916015625;0.1947021484375;0.7938232421875;14.195918266410587;6.15318970684039;8.898015165915737;-0.63720703125;0.2626953125;-0.15771484375;26.1875;22.4375;61.75;
1441975792764367;-0.41314697265625;0.4088134765625;0.2061767578125;0.78717041015625;14.448888486472933;6.197176954973024;8.934852533986955;-0.75;0.29248046875;-0.22314453125;14.5;34.6875;87.9375;
1441975792770368;-0.40155029296875;0.428955078125;0.21905517578125;0.7789306640625;14.758706060200877;6.263315068841525;8.98270158800027;-0.82958984375;0.2734375;-0.232421875;14.875;43.375;106.9375;
1441975792792369;-0.3924560546875;0.4530029296875;0.23736572265625;0.764404296875;15.151750367426416;6.308510862527754;9.043975111562393;-0.90673828125;0.4404296875;-0.26416015625;25.875;57.25;129.3125;
1441975792815370;-0.3839111328125;0.47991943359375;0.2593994140625;0.7449951171875;15.60970512703934;6.356581544822812;9.12737363205774;-1.03173828125;0.46533203125;-0.38818359375;-7.0;78.5625;163.875;
1441975792830371;-0.372314453125;0.5107421875;0.285400390625;0.72039794921875;16.152922321513145;6.46853399701602;9.2797913150389;-1.201171875;0.49462890625;-0.31787109375;-27.0;97.0;191.1875;
1441975792852372;-0.37420654296875;0.53662109375;0.32489013671875;0.68292236328125;16.746461339032777;6.577419851634618;9.559745596468082;-1.5498046875;0.82373046875;-0.37060546875;-31.4375;113.4375;227.375;
1441975792875374;-0.37554931640625;0.5599365234375;0.37396240234375;0.6368408203125;17.376409735472684;7.337999467598173;10.543787922508075;-2.43505859375;0.466796875;-0.45849609375;-161.375;135.25;274.5;
1441975792890374;-0.35260009765625;0.59356689453125;0.4102783203125;0.59576416015625;17.532152584439828;11.757041516739557;15.024794342905292;-3.0537109375;-0.5302734375;0.00732421875;-212.3125;130.5625;324.625;
1441975792912376;-0.31573486328125;0.6336669921875;0.4390869140625;0.5531005859375;16.80398644711289;13.534629386591245;16.78039466005918;-2.6796875;-0.69775390625;0.27880859375;-49.25;127.5;367.25;
1441975792935377;-0.28021240234375;0.6658935546875;0.47564697265625;0.501708984375;15.920251663257659;13.85581024008725;17.147551388167766;-2.4873046875;0.04638671875;0.1171875;36.5625;139.6875;414.1875;
1441975792950378;-0.24945068359375;0.689208984375;0.52044677734375;0.43798828125;14.970506638746143;13.924876055514526;17.358258976145624;-2.90087890625;0.09521484375;0.0068359375;-32.0625;133.4375;433.8125;
1441975792972379;-0.22076416015625;0.702880859375;0.5673828125;0.36773681640625;14.013154166411853;13.883835318940063;17.51974042313904;-2.8671875;0.03759765625;-0.0400390625;-121.6875;154.875;458.9375;
1441975792996381;-0.183349609375;0.71563720703125;0.6015625;0.3038330078125;13.09573116411401;13.84820845758607;17.60755345651373;-2.7158203125;0.2265625;0.013671875;-173.8125;159.9375;462.1875;
1441975793010381;-0.1588134765625;0.72247314453125;0.6259765625;0.246826171875;12.3745186322269;13.82601568762095;17.725540591286574;-2.43896484375;0.40576171875;0.017578125;-98.5625;119.75;447.9375;
1441975793032383;-0.14862060546875;0.712646484375;0.658447265625;0.19085693359375;11.789005387853846;13.694554552503053;17.87188414971054;-1.96435546875;0.71484375;0.20556640625;-89.5;141.375;368.8125;
1441975793055384;-0.1387939453125;0.69061279296875;0.69500732421875;0.1439208984375;11.306213943145877;13.47652630472066;17.97401094176615;-2.22216796875;0.876953125;-0.00439453125;-206.875;152.1875;280.3125;
1441975793070385;-0.1253662109375;0.67510986328125;0.71868896484375;0.1092529296875;10.913128000921882;13.32716722192266;0.03710048340942851;-2.42724609375;-0.1396484375;-0.1982421875;-261.9375;99.5625;239.125;
