1441975768868000;-0.10772705078125;0.7274169921875;0.64544677734375;0.20623779296875;11.60503164697985;13.760608478255428;17.649899945527352;-2.171875;0.39404296875;-0.0830078125;-26.0625;137.1875;255.375;
1441975768890002;-0.118408203125;0.692138671875;0.692626953125;0.16461181640625;11.307469512526566;13.457169558247434;17.800156582119662;-2.0830078125;0.251953125;-0.08837890625;-196.0625;146.5625;177.75;
1441975768905003;-0.12615966796875;0.64581298828125;0.74273681640625;0.1234130859375;11.029490338284472;13.089568780060045;17.93775166640526;-1.84375;-0.09375;-0.115234375;-366.375;142.375;143.625;
1441975768928004;-0.12664794921875;0.593994140625;0.78985595703125;0.084716796875;10.750172201249768;12.702110423900754;0.049954965047302846;-1.79248046875;-0.45703125;-0.341796875;-419.25;117.125;149.0;
1441975768950005;-0.120361328125;0.55316162109375;0.8228759765625;0.04840087890625;10.457496301908131;12.411285528886186;0.1584603626267436;-1.67529296875;-0.6796875;-0.3046875;-424.4375;74.75;159.0;
1441975768965006;-0.11590576171875;0.53070068359375;0.83935546875;0.0172119140625;10.22902532795061;12.260187087270735;0.27644278153962387;-1.36376953125;-0.63623046875;-0.21826171875;-321.3125;51.4375;172.625;
1441975768988007;-0.1151123046875;0.5289306640625;0.8406982421875;-0.0076904296875;10.06868806572624;12.25454126715837;0.39400801447111106;-1.0546875;-0.49609375;-0.21630859375;-177.9375;52.5625;168.4375;
1441975769010009;-0.12451171875;0.538818359375;0.83282470703125;-0.02105712890625;10.064510988530811;12.336508338839483;0.4959000616598207;-0.79736328125;-0.13134765625;-0.23193359375;-31.5;64.4375;133.9375;
1441975769025009;-0.1375732421875;0.5498046875;0.8233642578125;-0.02777099609375;10.130465872642883;12.430871434078538;0.5795490650611873;-0.73779296875;0.2109375;-0.18212890625;46.75;67.8125;86.0625;
1441975769048011;-0.15380859375;0.55633544921875;0.81597900390625;-0.03070068359375;10.252493556350936;12.500810080329817;0.6549956552207081;-0.76171875;0.43212890625;-0.11474609375;61.0;67.3125;43.375;
1441975769070012;-0.17401123046875;0.56024169921875;0.80926513671875;-0.02972412109375;10.437994865158737;12.561589606666802;0.7267230242158178;-0.79052734375;0.572265625;-0.013671875;40.75;71.625;10.6875;
1441975769085013;-0.1976318359375;0.56329345703125;0.8018798828125;-0.02374267578125;10.68714428871209;12.626652366732358;0.7905712951480026;-0.80859375;0.6474609375;0.06396484375;34.5;79.9375;-23.375;
1441975769108014;-0.22052001953125;0.5662841796875;0.7939453125;-0.01458740234375;10.949254588030763;12.695414216105583;0.8415463810815863;-0.8095703125;0.642578125;0.087890625;40.875;82.3125;-60.5;
1441975769130015;-0.24688720703125;0.57110595703125;0.7828369140625;0.00189208984375;11.287515497723833;12.7909054874591;0.8814962094363267;-0.806640625;0.65673828125;0.130859375;52.0625;81.375;-102.875;
1441975769145016;-0.27630615234375;0.57684326171875;0.768310546875;0.02496337890625;11.696009579846375;12.911458067110834;0.9168214214401689;-0.87451171875;0.66943359375;0.1396484375;80.4375;77.375;-144.6875;
1441975769168018;-0.30609130859375;0.58197021484375;0.75146484375;0.05303955078125;12.145468130468933;13.04422285907122;0.9459510733196089;-0.9619140625;0.6865234375;0.1064453125;105.1875;74.875;-182.625;
1441975769190019;-0.33624267578125;0.5850830078125;0.733154296875;0.08349609375;12.621506006495354;13.182916811645397;0.9815849123469819;-1.05810546875;0.75146484375;0.07958984375;118.0;63.6875;-208.0;
1441975769213020;-0.365966796875;0.58477783203125;0.71478271484375;0.1143798828125;13.107275440178125;13.317071400607087;1.0271106416768645;-1.11279296875;0.69970703125;0.09228515625;119.125;60.625;-223.875;
1441975769228021;-0.3941650390625;0.58013916015625;0.6981201171875;0.14385986328125;13.582956372162784;13.433636740122123;1.0798768519889173;-1.2509765625;0.609375;-0.01416015625;104.9375;55.1875;-229.75;
1441975769250022;-0.4195556640625;0.5731201171875;0.6824951171875;0.1722412109375;14.03673434330158;13.54054530784565;1.1333380467975074;-1.36669921875;0.576171875;-0.07470703125;79.25;47.0625;-226.875;
1441975769267023;-0.4423828125;0.5650634765625;0.66693115234375;0.2003173828125;14.473836068234222;13.649320445441498;1.1889130679850173;-1.4111328125;0.5673828125;-0.05712890625;66.4375;36.0625;-218.8125;
1441975769288025;-0.463134765625;0.55670166015625;0.6512451171875;0.2266845703125;14.883617827465459;13.77116063380716;1.2605173502544065;-1.37548828125;0.5263671875;-0.0205078125;64.8125;27.1875;-213.375;
1441975769310026;-0.48077392578125;0.5494384765625;0.63531494140625;0.25152587890625;15.254283058793959;13.912368344481287;1.3458462925800234;-1.36181640625;0.49267578125;-0.03564453125;61.9375;24.5;-202.1875;
1441975769333027;-0.494384765625;0.54376220703125;0.619140625;0.2764892578125;15.592191256012994;14.067720456276328;1.4300888139732888;-1.3798828125;0.3828125;-0.05810546875;66.5625;20.0625;-184.25;
1441975769348028;-0.5047607421875;0.53900146484375;0.603271484375;0.3011474609375;15.902178483994547;14.233653442443732;1.5165853172108148;-1.36083984375;0.3701171875;-0.06494140625;79.75;8.0;-169.25;
1441975769371029;-0.51373291015625;0.5333251953125;0.5889892578125;0.323486328125;16.186018460652065;14.405864479104729;1.6211554693507746;-1.28173828125;0.42724609375;-0.0771484375;85.875;-1.8125;-157.625;
1441975769393031;-0.5220947265625;0.525634765625;0.5772705078125;0.34326171875;16.451356493733655;14.574432684685634;1.742282339170713;-1.2333984375;0.5087890625;-0.10107421875;74.0625;-5.875;-148.1875;
1441975769408031;-0.52984619140625;0.515869140625;0.56829833984375;0.36065673828125;16.701472322272284;14.734110144857933;1.8744651096947567;-1.197265625;0.46484375;-0.1396484375;53.125;-12.5625;-139.375;
1441975769430033;-0.5360107421875;0.50665283203125;0.55999755859375;0.37738037109375;16.93311434365984;14.91888023177984;2.029937931775049;-1.13525390625;0.3505859375;-0.1259765625;31.4375;-19.4375;-129.75;
1441975769453034;-0.53973388671875;0.4993896484375;0.55133056640625;0.39404296875;17.140403022418415;15.151544852637896;2.2202661187632886;-1.072265625;0.21728515625;-0.0947265625;32.5625;-23.125;-118.5;
1441975769468035;-0.54119873046875;0.49444580078125;0.5428466796875;0.40972900390625;17.312988447977652;15.435811316025902;2.452748412664801;-1.00732421875;0.18994140625;-0.06298828125;45.0625;-25.1875;-106.6875;
1441975769490036;-0.54150390625;0.489990234375;0.535888671875;0.423583984375;17.45977756228908;15.756480927366324;2.7268556483056625;-1.005859375;0.17333984375;-0.087890625;54.3125;-26.25;-93.5625;
1441975769513037;-0.541259765625;0.48602294921875;0.53094482421875;0.4345703125;17.57468018648942;16.099270516426227;3.0343365893488743;-0.9833984375;0.1220703125;-0.07470703125;48.0625;-27.8125;-78.0625;
1441975769528038;-0.54071044921875;0.4822998046875;0.52777099609375;0.4432373046875;17.666519245634316;16.461356444824172;3.3713887728740923;-0.92626953125;0.109375;-0.08154296875;36.625;-27.75;-62.375;
1441975769550039;-0.5396728515625;0.47906494140625;0.526123046875;0.44989013671875;17.739321220272245;16.799372192739185;3.691809000046056;-0.9228515625;0.08154296875;-0.0732421875;25.875;-27.0;-47.875;
1441975769573041;-0.5382080078125;0.4765625;0.52593994140625;0.45452880859375;17.7956437810903;17.01466203437991;3.896185847331023;-0.95849609375;0.06005859375;-0.0634765625;17.9375;-26.4375;-34.4375;
1441975769588042;-0.53607177734375;0.4747314453125;0.52691650390625;0.45770263671875;17.84332581336882;16.97603285266662;3.850367562185767;-0.98681640625;0.0556640625;-0.07568359375;11.375;-26.1875;-21.5;
1441975769610043;-0.5330810546875;0.47406005859375;0.5286865234375;0.4598388671875;17.879381490577458;16.42528562047957;3.2918966224298334;-1.0029296875;0.04345703125;-0.06494140625;7.0;-25.5625;-9.1875;
1441975769633044;-0.52935791015625;0.4747314453125;0.53045654296875;0.46148681640625;17.89230762142087;15.33574632651815;2.1900746980299477;-1.01220703125;0.05908203125;-0.0498046875;7.5625;-24.1875;0.8125;
1441975769648045;-0.52508544921875;0.47613525390625;0.532470703125;0.46258544921875;17.87495195371695;14.150045610719815;0.9907170015223343;-1.0361328125;0.0712890625;-0.0556640625;12.125;-22.75;7.875;
1441975769670046;-0.52032470703125;0.4781494140625;0.53485107421875;0.46319580078125;17.831066665600975;13.378358014474093;0.20467353415171124;-1.0439453125;0.08203125;-0.04736328125;13.5;-21.1875;13.6875;
1441975769693048;-0.51507568359375;0.4808349609375;0.53741455078125;0.4632568359375;17.76964763569101;13.004551677192723;17.815316840409128;-1.0009765625;0.0810546875;-0.03076171875;14.0;-20.1875;19.8125;
1441975769708049;-0.509765625;0.4840087890625;0.54010009765625;0.46270751953125;17.699611314202397;12.855979887598293;17.651724130261872;-0.93310546875;0.09814453125;-0.01171875;15.1875;-18.3125;24.625;
1441975769733050;-0.50457763671875;0.4871826171875;0.54296875;0.46173095703125;17.626696243806823;12.785716851718938;17.568550115072032;-0.8740234375;0.12841796875;-0.013671875;14.5625;-15.9375;26.875;
1441975769753051;-0.49957275390625;0.4901123046875;0.54608154296875;0.46038818359375;17.55262996330461;12.742690731629645;17.515604829041937;-0.841796875;0.15234375;-0.00927734375;12.625;-14.9375;27.25;
1441975769768052;-0.4952392578125;0.4927978515625;0.54876708984375;0.458984375;17.48679049963134;12.731742030617104;17.49631397803059;-0.82080078125;0.1923828125;-0.0048828125;9.5625;-14.4375;25.5625;
1441975769790053;-0.49151611328125;0.4949951171875;0.55108642578125;0.45782470703125;17.430791725959732;12.719345044587033;17.476969871143584;-0.82421875;0.22802734375;-0.01806640625;7.5;-13.125;20.4375;
1441975769814055;-0.488525390625;0.496826171875;0.5523681640625;0.45751953125;17.392200557987262;12.706797652685799;17.45517488188349;-0.849609375;0.27001953125;-0.0205078125;6.5;-12.0;13.125;
1441975769828055;-0.4862060546875;0.4981689453125;0.55279541015625;0.4580078125;17.36955724606491;12.685887271995352;17.423599520686718;-0.86376953125;0.29052734375;-0.03515625;8.0;-11.75;3.9375;
1441975769850057;-0.4842529296875;0.49920654296875;0.55242919921875;0.45941162109375;17.360005107066915;12.651594416102167;17.375643684100776;-0.83642578125;0.2783203125;-0.046875;9.6875;-11.6875;-3.375;
1441975769873058;-0.4827880859375;0.5003662109375;0.550537109375;0.4619140625;17.36843442075814;12.626946538148829;17.33083732997731;-0.77734375;0.259765625;-0.03125;12.5625;-10.3125;-9.375;
1441975769888059;-0.48175048828125;0.50177001953125;0.54730224609375;0.46539306640625;17.392250800223298;12.612580979826546;17.290160984317424;-0.77099609375;0.2373046875;-0.03271484375;19.0;-7.5;-16.375;
1441975769910060;-0.48077392578125;0.50323486328125;0.54351806640625;0.46923828125;17.421511334721004;12.59817690907316;17.246834103072867;-0.83056640625;0.2119140625;-0.0400390625;25.25;-5.25;-21.5;
1441975769933061;-0.4803466796875;0.50433349609375;0.5396728515625;0.47283935546875;17.455522282691117;12.586661411206519;17.209561809230916;-0.8388671875;0.1982421875;-0.0498046875;27.75;-5.0625;-23.75;
1441975769949062;-0.4803466796875;0.50506591796875;0.53607177734375;0.4761962890625;17.491293064741637;12.568960227017012;17.1697819886906;-0.84619140625;0.17626953125;-0.05517578125;24.9375;-3.875;-24.0625;
1441975769970064;-0.4805908203125;0.505859375;0.53228759765625;0.47930908203125;17.528945093256308;12.56947237835473;17.148928073589946;-0.8837890625;0.1435546875;-0.0400390625;21.125;-2.4375;-23.1875;
1441975769993065;-0.48052978515625;0.507080078125;0.528564453125;0.48223876953125;17.561702383345576;12.588947996905208;17.14564345430821;-0.9228515625;0.09228515625;-0.0556640625;21.0;-1.0625;-20.0625;
1441975770011066;-0.4798583984375;0.50885009765625;0.52508544921875;0.48480224609375;17.584845531287918;12.633824903531753;17.166195056023778;-0.92431640625;0.05078125;-0.04345703125;22.25;0.1875;-14.4375;
1441975770030067;-0.4783935546875;0.51153564453125;0.521728515625;0.487060546875;17.596637935167937;12.72067652819336;17.225050651653678;-0.91064453125;0.0185546875;-0.02197265625;24.3125;1.75;-7.6875;
1441975770053068;-0.47589111328125;0.515380859375;0.51873779296875;0.4886474609375;17.590688936443645;12.8615397858185;17.33459455587921;-0.9052734375;-0.001953125;-0.015625;28.0625;3.5625;0.125;
1441975770068069;-0.47271728515625;0.52001953125;0.51666259765625;0.489013671875;17.56409431550604;13.038427448493186;17.482081940415867;-0.90576171875;0.01025390625;-0.00439453125;31.5;5.375;8.4375;
1441975770098071;-0.46954345703125;0.5247802734375;0.51593017578125;0.48773193359375;17.518809592485702;13.21945706792768;17.641923904622992;-0.91064453125;0.0576171875;-0.00146484375;29.6875;7.125;15.875;
1441975770122072;-0.467041015625;0.52911376953125;0.5164794921875;0.48492431640625;17.462509719507583;13.38332371398395;17.795797249605933;-0.9208984375;0.12109375;-0.0146484375;21.75;8.375;20.75;
1441975770136073;-0.46490478515625;0.53253173828125;0.5181884765625;0.4813232421875;17.400888317895554;13.48724006823922;17.89898654089426;-0.912109375;0.14111328125;-0.02783203125;10.25;9.25;25.0625;
1441975770150074;-0.462646484375;0.53582763671875;0.5205078125;0.47735595703125;17.333058692709653;13.558119689167015;17.97194077977342;-0.8818359375;0.11376953125;-0.0048828125;1.125;9.4375;29.5;
1441975770173075;-0.4598388671875;0.53961181640625;0.52276611328125;0.4732666015625;17.2585095276683;13.619185806192833;0.0322691650064803;-0.8486328125;0.09423828125;0.015625;-1.4375;9.625;34.1875;
1441975770189076;-0.45654296875;0.54376220703125;0.52532958984375;0.4688720703125;17.175306099295;13.66580640843246;0.07744487014044243;-0.8369140625;0.09765625;0.01513671875;1.125;9.6875;37.75;
1441975770210077;-0.45306396484375;0.5477294921875;0.52850341796875;0.46405029296875;17.08609667879086;13.691634056424757;0.10479967876049164;-0.83984375;0.12744140625;0.0068359375;2.125;9.125;40.6875;
1441975770233079;-0.44989013671875;0.5509033203125;0.53253173828125;0.45880126953125;16.99603461386444;13.694177201089033;0.11571397487108942;-0.8359375;0.1533203125;-4.8828125E-4;-1.375;7.5625;43.0;
1441975770249079;-0.44671630859375;0.55328369140625;0.537109375;0.45361328125;16.90802980944896;13.67292436872332;0.10652494793832035;-0.84423828125;0.13916015625;-0.00927734375;-8.0625;4.6875;45.25;
1441975770270081;-0.44287109375;0.5556640625;0.54180908203125;0.44891357421875;16.818536934680473;13.637412661955622;0.08010472982863297;-0.85400390625;0.1005859375;-0.01171875;-12.4375;0.9375;48.375;
1441975770293082;-0.4384765625;0.5584716796875;0.54583740234375;0.44476318359375;16.730186674693662;13.609506439249904;0.054964137544707276;-0.869140625;0.095703125;9.765625E-4;-9.5625;-1.875;50.75;
1441975770309083;-0.43359375;0.5614013671875;0.54949951171875;0.44134521484375;16.644609934188164;13.578735380686478;0.022033147160422345;-0.90771484375;0.10498046875;-0.0185546875;-3.625;-4.375;51.3125;
1441975770330084;-0.42822265625;0.56451416015625;0.552734375;0.4385986328125;16.56131174066195;13.548048117987651;17.984069579448253;-0.98388671875;0.1162109375;-0.01513671875;1.125;-6.75;51.3125;
1441975770353085;-0.42266845703125;0.56768798828125;0.55499267578125;0.43695068359375;16.48825505953702;13.5217035349053;17.94373330506288;-1.0498046875;0.14208984375;-0.015625;5.9375;-8.75;50.4375;
1441975770375087;-0.4169921875;0.5709228515625;0.5565185546875;0.436279296875;16.423819542576958;13.49770971812422;17.900260499065478;-1.11767578125;0.1494140625;-0.01123046875;12.5;-10.625;46.9375;
1441975770390088;-0.411376953125;0.57373046875;0.55804443359375;0.43597412109375;16.363925077374446;13.468576129604727;17.851972189367356;-1.14990234375;0.166015625;-0.015625;17.5;-12.625;43.0;
1441975770413089;-0.4063720703125;0.57586669921875;0.5599365234375;0.4354248046875;16.30754675141775;13.437370854771666;17.807067132195975;-1.095703125;0.17919921875;0.01953125;17.5625;-12.5625;39.5;
1441975770431090;-0.40252685546875;0.57708740234375;0.5625;0.43414306640625;16.254884184282155;13.40608706296475;17.772157648143885;-1.001953125;0.18701171875;0.05126953125;12.625;-10.1875;36.0;
1441975770450091;-0.39984130859375;0.577392578125;0.56573486328125;0.4320068359375;16.205253345353402;13.375090436680539;17.747976214504448;-0.904296875;0.18212890625;0.08251953125;3.6875;-6.3125;32.9375;
1441975770473092;-0.39886474609375;0.57659912109375;0.569580078125;0.42889404296875;16.162905897958193;13.347101011903685;17.73957664573052;-0.8349609375;0.193359375;0.10400390625;-6.125;-2.0625;29.25;
1441975770489093;-0.39959716796875;0.574462890625;0.5740966796875;0.425048828125;16.130211990985924;13.316060130229856;17.74109730482263;-0.833984375;0.21728515625;0.099609375;-17.9375;1.9375;25.0;
1441975770510094;-0.4019775390625;0.57110595703125;0.57891845703125;0.4207763671875;16.11008358637142;13.283520680899759;17.751613207048127;-0.8740234375;0.2275390625;0.0810546875;-31.0625;3.8125;20.75;
1441975770541096;-0.40557861328125;0.5667724609375;0.58355712890625;0.41680908203125;16.105564106526412;13.247796209861448;17.763927833755247;-0.91650390625;0.2216796875;0.052734375;-41.875;4.5;16.375;
1441975770549097;-0.40966796875;0.56219482421875;0.58709716796875;0.4139404296875;16.11797441958482;13.21409982691177;17.774009700967657;-0.97021484375;0.20068359375;0.03466796875;-46.8125;4.125;11.0625;
1441975770570098;-0.41339111328125;0.55804443359375;0.58929443359375;0.41265869140625;16.142612816960952;13.182277371613257;17.775127675476856;-1.0166015625;0.15966796875;0.0107421875;-43.5;2.3125;6.5;
1441975770593099;-0.4161376953125;0.55474853515625;0.59033203125;0.4129638671875;16.172288142822307;13.150950704049746;17.763419854957725;-1.044921875;0.12548828125;-0.0029296875;-33.125;-1.125;2.75;
1441975770609100;-0.4178466796875;0.55224609375;0.5904541015625;0.4144287109375;16.202867218210994;13.119899148816781;17.740641892496996;-1.02734375;0.12255859375;-0.0068359375;-20.6875;-5.0625;-0.8125;
1441975770630101;-0.41900634765625;0.55035400390625;0.58953857421875;0.41705322265625;16.239174305520276;13.091058635418468;17.710326496762505;-0.98193359375;0.13916015625;-0.00439453125;-10.0;-8.125;-4.5;
1441975770656103;-0.419677734375;0.5489501953125;0.58770751953125;0.4207763671875;16.281083626023324;13.062267070702042;17.67138700929601;-0.970703125;0.1572265625;4.8828125E-4;-0.375;-9.625;-9.1875;
1441975770669103;-0.41998291015625;0.5477294921875;0.5853271484375;0.42535400390625;16.327209751585272;13.028643212068946;17.62196553052982;-0.95458984375;0.17236328125;0.01220703125;7.8125;-10.8125;-14.4375;
1441975770690105;-0.4200439453125;0.54656982421875;0.58251953125;0.43060302734375;16.377058656463355;12.98912598648303;17.562605261218703;-0.93896484375;0.189453125;0.0263671875;13.5625;-11.875;-18.9375;
1441975770713106;-0.420166015625;0.54541015625;0.579345703125;0.43621826171875;16.430952196523542;12.946581296356074;17.498299486848826;-0.9306640625;0.19677734375;0.05224609375;17.625;-12.25;-22.875;
1441975770729107;-0.42047119140625;0.54412841796875;0.5758056640625;0.44219970703125;16.490173394732373;12.899246040070038;17.427996874886382;-0.93505859375;0.19580078125;0.05126953125;19.75;-12.3125;-25.8125;
1441975770752108;-0.42095947265625;0.5426025390625;0.57232666015625;0.44805908203125;16.549998406433446;12.845648584342378;17.353228086209473;-0.93798828125;0.17919921875;0.05126953125;20.4375;-12.3125;-28.1875;
1441975770773109;-0.42181396484375;0.54083251953125;0.5689697265625;0.45361328125;16.610456013677645;12.788045987331689;17.27747677233006;-0.9306640625;0.16796875;0.05615234375;18.875;-12.125;-29.0;
1441975770789110;-0.42303466796875;0.5389404296875;0.565673828125;0.4588623046875;16.671533324506292;12.728615251244692;17.20238545584692;-0.9345703125;0.169921875;0.056640625;16.3125;-11.0625;-29.9375;
1441975770810112;-0.424560546875;0.53668212890625;0.56256103515625;0.46392822265625;16.733334821981853;12.659350891881473;17.120470513244538;-0.962890625;0.1689453125;0.04931640625;13.25;-10.0;-30.75;
1441975770833113;-0.42584228515625;0.53448486328125;0.55950927734375;0.46881103515625;16.790916619880626;12.584149570798232;17.032450773859804;-0.9765625;0.1552734375;0.0537109375;10.8125;-9.875;-31.0625;
1441975770849114;-0.4271240234375;0.53253173828125;0.55645751953125;0.47357177734375;16.84628874443065;12.507780009795102;16.942927591798686;-0.9755859375;0.16796875;0.06005859375;10.625;-9.6875;-31.0625;
1441975770870115;-0.42840576171875;0.53070068359375;0.55328369140625;0.4781494140625;16.900459394085367;12.430206526362193;16.85203205691846;-0.9794921875;0.17626953125;0.0615234375;11.4375;-8.625;-31.4375;
1441975770901117;-0.42974853515625;0.52886962890625;0.55029296875;0.482421875;16.95175389563994;12.348578203161976;16.758671284397415;-0.990234375;0.1767578125;0.06201171875;11.25;-7.8125;-31.4375;
1441975770909117;-0.43115234375;0.5269775390625;0.54754638671875;0.486328125;16.999705696811585;12.262326050953869;16.66279656229339;-0.978515625;0.17822265625;0.06298828125;9.9375;-7.0625;-30.9375;
1441975770930118;-0.4326171875;0.52508544921875;0.54498291015625;0.48992919921875;17.044845676733996;12.172460476624666;16.564891064037383;-0.966796875;0.1630859375;0.07275390625;8.125;-5.8125;-29.6875;
1441975770953120;-0.43402099609375;0.5234375;0.54278564453125;0.492919921875;17.08366224791726;12.090501630278474;16.47682330705936;-0.95068359375;0.1435546875;0.0791015625;6.5625;-4.625;-27.375;
1441975770969121;-0.4354248046875;0.52191162109375;0.541015625;0.4952392578125;17.11664116218783;12.017314044229138;16.400328543332506;-0.94189453125;0.13720703125;0.0830078125;4.9375;-3.0625;-24.4375;
1441975770990122;-0.43695068359375;0.52044677734375;0.53985595703125;0.49676513671875;17.14358704762581;11.956035209091285;16.339951291108864;-0.94677734375;0.14453125;0.08154296875;2.5625;-2.0;-21.4375;
1441975771013123;-0.43865966796875;0.51873779296875;0.5394287109375;0.4974365234375;17.16467481864952;11.901498014805716;16.29208924710516;-0.95068359375;0.150390625;0.0703125;-1.875;-1.25;-18.0625;
1441975771029124;-0.44036865234375;0.51702880859375;0.53955078125;0.49761962890625;17.180393427985607;11.853496938096367;16.253744789751753;-0.95556640625;0.14111328125;0.0703125;-7.3125;-0.8125;-14.1875;
1441975771050125;-0.44158935546875;0.515625;0.539794921875;0.4976806640625;17.1903807415194;11.813590663951228;16.221907009875036;-0.95751953125;0.12060546875;0.072265625;-10.125;-0.8125;-10.1875;
1441975771073127;-0.44219970703125;0.514892578125;0.5401611328125;0.49749755859375;17.193122841273976;11.796576864063214;16.210329405825725;-0.96533203125;0.10400390625;0.07861328125;-8.4375;-0.75;-5.8125;
1441975771097128;-0.4422607421875;0.51458740234375;0.5408935546875;0.4969482421875;17.18739958262672;11.797728585891765;16.216211068755634;-0.962890625;0.1005859375;0.0751953125;-5.5;-0.625;-1.5;
1441975771110129;-0.4420166015625;0.51470947265625;0.54205322265625;0.49578857421875;17.17430503006907;11.823475844147403;16.247562808825972;-0.9453125;0.11767578125;0.08203125;-4.625;-0.625;2.75;
1441975771133130;-0.441650390625;0.51483154296875;0.543701171875;0.49420166015625;17.15558740046537;11.855440487196965;16.287409768241325;-0.95458984375;0.1328125;0.07470703125;-5.5625;-0.1875;6.4375;
1441975771149131;-0.44140625;0.51483154296875;0.54559326171875;0.4923095703125;17.135439779747752;11.888827944404348;16.330958930242;-0.9736328125;0.14111328125;0.0791015625;-7.6875;0.0;9.5625;
1441975771172132;-0.44091796875;0.5150146484375;0.547607421875;0.490234375;17.111544233144713;11.92782819481097;16.379770044375302;-0.98486328125;0.1298828125;0.08056640625;-9.4375;-0.0625;11.875;
1441975771193133;-0.44012451171875;0.5155029296875;0.5496826171875;0.4881591796875;17.084016704301938;11.970595980107209;16.43077499319728;-0.98291015625;0.11279296875;0.0888671875;-9.1875;0.5;15.1875;
1441975771211134;-0.43914794921875;0.51629638671875;0.55194091796875;0.4857177734375;17.051971389902576;12.024128814656022;16.49272216387282;-0.96923828125;0.10107421875;0.1015625;-7.1875;1.3125;18.3125;
1441975771232136;-0.4381103515625;0.51708984375;0.55462646484375;0.482666015625;17.014281022017272;12.083061250838355;16.562877494096913;-0.9677734375;0.10791015625;0.09765625;-7.125;2.0;21.125;
1441975771253137;-0.43731689453125;0.51763916015625;0.55780029296875;0.4791259765625;16.973654169464456;12.138708434635905;16.633968168988922;-0.962890625;0.10888671875;0.10009765625;-10.125;2.4375;24.625;
1441975771269138;-0.43658447265625;0.51812744140625;0.5614013671875;0.47509765625;16.92862871351848;12.194215085975518;16.70791378106667;-0.96923828125;0.10302734375;0.095703125;-13.75;2.75;27.4375;
1441975771292139;-0.435791015625;0.5186767578125;0.565185546875;0.47076416015625;16.880181410243807;12.249333820080173;16.782539735528612;-0.96337890625;0.0986328125;0.09326171875;-16.625;2.75;30.625;
1441975771313140;-0.4346923828125;0.519287109375;0.5689697265625;0.4664306640625;16.828613874869628;12.29848026171193;16.850160025947734;-0.9609375;0.095703125;0.09130859375;-17.75;2.8125;33.25;
1441975771329141;-0.43328857421875;0.520263671875;0.5726318359375;0.46221923828125;16.774525999509567;12.346959957035684;16.914491912599505;-0.9716796875;0.10009765625;0.09228515625;-16.5625;2.375;34.875;
1441975771352143;-0.43157958984375;0.5213623046875;0.57611083984375;0.4581298828125;16.718958094391148;12.390820084919088;16.97211768814659;-0.9794921875;0.10498046875;0.08642578125;-14.0;1.6875;36.0;
1441975771373144;-0.4296875;0.522705078125;0.579345703125;0.454345703125;16.66374990196122;12.431346435667479;17.023603330973074;-0.97607421875;0.11474609375;0.08544921875;-11.75;0.8125;36.75;
1441975771389145;-0.427490234375;0.52410888671875;0.582275390625;0.4510498046875;16.609650678701534;12.463430700083329;17.06331513126631;-0.97607421875;0.11376953125;0.07763671875;-9.25;-0.0625;36.8125;
1441975771411146;-0.42498779296875;0.525634765625;0.5850830078125;0.447998046875;16.554405546799508;12.49091577439145;17.09614864128953;-0.97021484375;0.11083984375;0.08544921875;-5.9375;-0.9375;36.4375;
1441975771433147;-0.422607421875;0.5272216796875;0.58758544921875;0.44512939453125;16.502565789521487;12.51806100675532;17.127411016403222;-0.96044921875;0.13232421875;0.09423828125;-3.5;-1.25;35.25;
1441975771449148;-0.42047119140625;0.5284423828125;0.59002685546875;0.44244384765625;16.45477431412811;12.537439656476256;17.15197006976831;-0.953125;0.15478515625;0.0908203125;-2.5625;-1.375;33.0625;
1441975771472149;-0.4189453125;0.52911376953125;0.5924072265625;0.43988037109375;16.414270375114956;12.549857695841684;17.17239116274143;-0.95556640625;0.17578125;0.08935546875;-4.0625;-1.375;29.5625;
1441975771493151;-0.41790771484375;0.52935791015625;0.59466552734375;0.4375;16.38043432021002;12.55685403497095;17.189156188058732;-0.953125;0.18505859375;0.09130859375;-6.6875;-1.3125;25.6875;
1441975771509152;-0.4176025390625;0.5291748046875;0.596435546875;0.43560791015625;16.358909544113175;12.559653116192715;17.202240168928405;-0.94189453125;0.201171875;0.095703125;-8.6875;-0.75;21.375;
1441975771533153;-0.41790771484375;0.52862548828125;0.59771728515625;0.43426513671875;16.348842341953013;12.558139496015496;17.210816679809177;-0.94580078125;0.2001953125;0.09423828125;-9.3125;0.25;15.5;
1441975771553154;-0.418701171875;0.5277099609375;0.59857177734375;0.43341064453125;16.348613207249446;12.552026753382338;17.214604557184614;-0.9521484375;0.2060546875;0.10009765625;-9.1875;1.0625;9.8125;
1441975771569155;-0.420166015625;0.52642822265625;0.5989990234375;0.43304443359375;16.359674992245456;12.542242871607955;17.215042803049556;-0.94384765625;0.19970703125;0.0947265625;-9.1875;1.625;4.6875;
1441975771592156;-0.42205810546875;0.5247802734375;0.5989990234375;0.43304443359375;16.379527485937444;12.528725326002618;17.211743762966428;-0.94189453125;0.18505859375;0.09423828125;-9.75;2.125;0.0;
1441975771613157;-0.42449951171875;0.52288818359375;0.59869384765625;0.4334716796875;16.408276802629796;12.511920666325814;17.20528870774855;-0.95458984375;0.181640625;0.0966796875;-9.8125;2.625;-4.25;
1441975771629158;-0.42706298828125;0.52056884765625;0.5982666015625;0.43426513671875;16.4415807340369;12.4856872300406;17.189579251831287;-0.96142578125;0.1650390625;0.08349609375;-10.0625;2.375;-8.0625;
1441975771652160;-0.42974853515625;0.518310546875;0.5975341796875;0.4354248046875;16.47913569797097;12.45815411523927;17.170773025185913;-0.9560546875;0.15283203125;0.091796875;-10.5625;1.75;-10.375;
1441975771673161;-0.432373046875;0.51605224609375;0.5963134765625;0.43707275390625;16.521309797993045;12.426964616837727;17.145313349409502;-0.96728515625;0.1484375;0.0810546875;-9.0625;1.125;-12.875;
1441975771689162;-0.43463134765625;0.51397705078125;0.5948486328125;0.4393310546875;16.56399481074881;12.389050578540322;17.109053002495273;-0.99267578125;0.1416015625;0.08056640625;-6.0625;0.125;-15.0;
1441975771712163;-0.43658447265625;0.51202392578125;0.59320068359375;0.44189453125;16.606064299581988;12.346580380280493;17.065601213641035;-0.9970703125;0.14404296875;0.09326171875;-2.375;-0.9375;-17.0;
1441975771733164;-0.43829345703125;0.51025390625;0.59136962890625;0.4447021484375;16.647523812235622;12.301313891872908;17.01689064670183;-0.98046875;0.14306640625;0.09619140625;0.1875;-1.5625;-18.125;
1441975771749165;-0.43994140625;0.508544921875;0.58929443359375;0.44775390625;16.690506253076524;12.252199055225976;16.962575878248064;-0.97314453125;0.1533203125;0.10595703125;2.5;-1.5625;-19.625;
1441975771778167;-0.4415283203125;0.50689697265625;0.587158203125;0.45086669921875;16.733032782052653;12.199958337577407;16.90443639313004;-0.97021484375;0.15380859375;0.10546875;4.25;-1.75;-21.0625;
1441975771793168;-0.44329833984375;0.50506591796875;0.58514404296875;0.45379638671875;16.775500373836472;12.1433469384641;16.843870643460292;-0.97607421875;0.1591796875;0.103515625;4.5;-2.125;-22.3125;
1441975771810169;-0.44525146484375;0.50299072265625;0.58331298828125;0.45654296875;16.817560262769522;12.080287592458639;16.779150158051916;-0.974609375;0.16259765625;0.0986328125;2.9375;-2.0625;-23.0;
1441975771832170;-0.44720458984375;0.50067138671875;0.58172607421875;0.45916748046875;16.857345317876984;12.007842492896879;16.706813606992093;-0.9658203125;0.15380859375;0.09375;0.25;-2.3125;-23.3125;
1441975771853171;-0.4490966796875;0.49847412109375;0.58001708984375;0.46197509765625;16.89701856815208;11.930059834504235;16.627722742926867;-0.96484375;0.15185546875;0.10693359375;-1.1875;-2.5;-23.4375;
1441975771875172;-0.45074462890625;0.49652099609375;0.57818603515625;0.464599609375;16.93384654560937;11.85552476597559;16.55068192563434;-0.97900390625;0.146484375;0.10595703125;-0.1875;-2.75;-23.6875;
1441975771892173;-0.45245361328125;0.4945068359375;0.5765380859375;0.46722412109375;16.969128272092785;11.773265353473812;16.46677755387982;-0.9921875;0.16259765625;0.0927734375;1.0;-3.0625;-23.875;
1441975771913175;-0.453857421875;0.492431640625;0.5750732421875;0.4698486328125;16.99960758625505;11.681817221364367;16.373527742325816;-1.00146484375;0.1572265625;0.0908203125;0.1875;-3.875;-23.5625;
1441975771935176;-0.45489501953125;0.49078369140625;0.5732421875;0.47271728515625;17.028714341276483;11.591036163235172;16.276917507841286;-1.00732421875;0.154296875;0.10498046875;0.125;-4.6875;-22.9375;
1441975771952177;-0.455810546875;0.489013671875;0.5714111328125;0.4759521484375;17.05625064616243;11.482825362919389;16.161816423743996;-1.0390625;0.16455078125;0.0947265625;3.875;-5.3125;-23.25;
1441975771973178;-0.4560546875;0.4873046875;0.570068359375;0.47906494140625;17.07271249376505;11.370791211830632;16.042565638133947;-1.04443359375;0.11572265625;0.0966796875;5.4375;-7.375;-21.75;
1441975772003180;-0.45562744140625;0.48626708984375;0.56878662109375;0.4820556640625;17.081446454517557;11.275952737219617;15.937185613540503;-1.01708984375;0.11181640625;0.119140625;5.6875;-8.3125;-18.125;
1441975772012180;-0.455078125;0.485595703125;0.5675048828125;0.4847412109375;17.08800487245164;11.196687535584715;15.8468589067642;-1.02001953125;0.1259765625;0.13818359375;9.1875;-7.8125;-15.6875;
1441975772033182;-0.45458984375;0.48431396484375;0.5673828125;0.48663330078125;17.08486606877615;11.117768179571526;15.764432424665225;-1.02734375;0.12451171875;0.11474609375;9.625;-8.0625;-13.125;
1441975772055183;-0.4541015625;0.4830322265625;0.56805419921875;0.487548828125;17.074891686721774;11.062383221059154;15.710639302043973;-0.98291015625;0.11474609375;0.1298828125;2.6875;-9.375;-8.9375;
1441975772072184;-0.45379638671875;0.4815673828125;0.56915283203125;0.488037109375;17.062749057817108;11.012819513395694;15.66617536849471;-0.96826171875;0.13525390625;0.13330078125;-2.4375;-8.5625;-5.375;
1441975772094185;-0.453125;0.4803466796875;0.57080078125;0.4879150390625;17.0433768466812;10.985978752420845;15.646028259013;-0.97509765625;0.1083984375;0.13525390625;-5.75;-8.5;-2.0;
1441975772109186;-0.4525146484375;0.4791259765625;0.57275390625;0.48736572265625;17.022201531299437;10.969473008713937;15.6385038290047;-0.9716796875;0.13671875;0.142578125;-7.1875;-8.375;1.4375;
1441975772131187;-0.4520263671875;0.4775390625;0.5753173828125;0.48638916015625;16.99710941447153;10.95350794555632;15.635914693872783;-0.95361328125;0.12646484375;0.1298828125;-9.3125;-8.75;4.0625;
1441975772154188;-0.45135498046875;0.47601318359375;0.578125;0.48516845703125;16.96869734749295;10.945214254596811;15.641715368018849;-0.923828125;0.11181640625;0.1328125;-13.5625;-9.375;7.125;
1441975772169189;-0.449951171875;0.47515869140625;0.5806884765625;0.4842529296875;16.93653368820281;10.948549514535253;15.653535387949248;-0.9072265625;0.09423828125;0.150390625;-13.5;-9.125;10.3125;
1441975772192191;-0.4478759765625;0.475341796875;0.58306884765625;0.48309326171875;16.901010044875562;10.981552270370647;15.690293964655085;-0.892578125;0.0830078125;0.1591796875;-8.0;-9.1875;13.1875;
1441975772214192;-0.44586181640625;0.47564697265625;0.585693359375;0.4815673828125;16.86407867188131;11.021741548244282;15.735815274142805;-0.87744140625;0.12548828125;0.14453125;-3.375;-8.4375;15.5;
1441975772231193;-0.44403076171875;0.4754638671875;0.58868408203125;0.479736328125;16.825284815725862;11.053760594970308;15.77706054820324;-0.86767578125;0.138671875;0.1328125;-4.8125;-8.3125;16.75;
1441975772252194;-0.4422607421875;0.47564697265625;0.591552734375;0.4776611328125;16.787898048099695;11.095352924010474;15.82735165412545;-0.853515625;0.13623046875;0.14697265625;-8.4375;-8.375;17.625;
1441975772274195;-0.44061279296875;0.4759521484375;0.59429931640625;0.4754638671875;16.752185760649475;11.138750068521523;15.879453453871086;-0.84130859375;0.146484375;0.1484375;-7.6875;-6.3125;18.1875;
1441975772295197;-0.43951416015625;0.476318359375;0.59710693359375;0.47259521484375;16.719991762061806;11.191203502397345;15.944133156041705;-0.8115234375;0.15625;0.1611328125;-7.75;-3.5625;18.0;
1441975772312197;-0.43927001953125;0.47607421875;0.60040283203125;0.46893310546875;16.690225159510756;11.240337631863678;16.01342079670171;-0.78466796875;0.185546875;0.15478515625;-11.0625;-0.5;16.9375;
1441975772334199;-0.4400634765625;0.47540283203125;0.60394287109375;0.46429443359375;16.666039188251453;11.293389638870824;16.094390806010615;-0.7578125;0.2060546875;0.1611328125;-18.9375;2.625;16.0625;
1441975772355200;-0.44244384765625;0.474365234375;0.6065673828125;0.4595947265625;16.66167045352941;11.341099773868832;16.17315554564903;-0.79833984375;0.263671875;0.1611328125;-26.8125;6.6875;12.8125;
1441975772372201;-0.4459228515625;0.471923828125;0.60931396484375;0.455078125;16.665983794147998;11.359250369153603;16.229392079887013;-0.93896484375;0.2607421875;0.1044921875;-30.5625;8.4375;7.3125;
1441975772394202;-0.4498291015625;0.46868896484375;0.61212158203125;0.45074462890625;16.673917264242704;11.359767838996225;16.271176639775693;-1.00390625;0.19921875;0.10693359375;-37.8125;7.0;5.625;
1441975772415203;-0.4534912109375;0.4659423828125;0.61419677734375;0.44720458984375;16.686119912923292;11.35947084316875;16.305578070281246;-0.97216796875;0.13623046875;0.12255859375;-40.0625;7.4375;5.625;
1441975772432204;-0.45623779296875;0.46466064453125;0.61541748046875;0.44403076171875;16.696572410487263;11.384006985166154;16.35443728364848;-0.9306640625;0.080078125;0.1396484375;-33.0625;9.4375;6.3125;
1441975772454206;-0.458740234375;0.46441650390625;0.6158447265625;0.4410400390625;16.710209489651668;11.429055373975594;16.417271416576163;-0.9404296875;0.11572265625;0.14501953125;-22.75;11.625;6.5625;
1441975772475207;-0.46136474609375;0.46343994140625;0.61724853515625;0.43743896484375;16.716755963321766;11.466944518955593;16.48001526729719;-0.99560546875;0.14990234375;0.11181640625;-16.375;12.125;5.8125;
1441975772491208;-0.4644775390625;0.4617919921875;0.61920166015625;0.43304443359375;16.722146243322737;11.50366449466112;16.548882108347843;-1.00244140625;0.15087890625;0.1181640625;-23.375;10.8125;8.125;
1441975772514209;-0.467529296875;0.45989990234375;0.62139892578125;0.42852783203125;16.72485106786741;11.536701463045327;16.61569189214625;-1.00830078125;0.1435546875;0.1201171875;-30.3125;11.4375;10.125;
1441975772535210;-0.4703369140625;0.4588623046875;0.62310791015625;0.4241943359375;16.728021216915177;11.585475543617399;16.69307108541036;-1.00244140625;0.12646484375;0.14404296875;-31.6875;12.25;11.5;
1441975772552211;-0.47308349609375;0.4576416015625;0.62457275390625;0.42022705078125;16.732995459595642;11.62624133232053;16.761076508974323;-1.0634765625;0.1513671875;0.13134765625;-26.6875;13.0625;11.8125;
1441975772574212;-0.47528076171875;0.456298828125;0.62652587890625;0.416259765625;16.729608469218224;11.660233274708451;16.82254182596859;-1.09033203125;0.109375;0.12158203125;-24.9375;11.4375;13.3125;
1441975772595214;-0.47662353515625;0.45574951171875;0.62835693359375;0.41265869140625;16.719243359915982;11.700898477649588;16.884504980155118;-1.05078125;0.06689453125;0.14208984375;-24.875;9.5625;17.875;
1441975772611215;-0.47698974609375;0.4564208984375;0.6297607421875;0.4093017578125;16.701780805215332;11.758728191819838;16.955404414014886;-1.009765625;0.0517578125;0.14794921875;-18.5;9.125;21.5;
1441975772634216;-0.4769287109375;0.45758056640625;0.631103515625;0.40594482421875;16.679572584125733;11.82235036436382;17.029306304361167;-0.99072265625;0.0751953125;0.13818359375;-10.375;8.3125;23.8125;
1441975772655217;-0.47650146484375;0.4588623046875;0.63262939453125;0.402587890625;16.652081119378103;11.882859520805255;17.099248635279015;-1.01708984375;0.10205078125;0.12890625;-7.25;7.1875;25.1875;
1441975772671218;-0.47589111328125;0.46002197265625;0.63433837890625;0.3992919921875;16.62167074172943;11.935534026530377;17.161558736220364;-1.0224609375;0.11962890625;0.12548828125;-7.0625;5.6875;26.25;
1441975772694219;-0.47467041015625;0.46148681640625;0.63592529296875;0.396484375;16.587555876669914;11.982089808115855;17.21336483912637;-0.9990234375;0.1181640625;0.12255859375;-7.0;4.375;26.625;
1441975772716221;-0.47320556640625;0.46356201171875;0.636962890625;0.3941650390625;16.55497013028495;12.032812723889604;17.263810062669016;-0.96044921875;0.12890625;0.14501953125;-2.875;3.375;26.4375;
1441975772731221;-0.47174072265625;0.4656982421875;0.63775634765625;0.39215087890625;16.524580098994413;12.080239478953791;17.309165216015526;-0.9580078125;0.1650390625;0.13037109375;2.375;3.25;23.875;
1441975772753223;-0.47064208984375;0.46734619140625;0.63836669921875;0.3905029296875;16.50077619680513;12.11689483873376;17.344600060016468;-0.9677734375;0.2021484375;0.12548828125;3.8125;3.0625;20.0;
1441975772776224;-0.469970703125;0.46832275390625;0.6387939453125;0.38946533203125;16.485727868559692;12.13821909287142;17.365511106617888;-0.95849609375;0.21484375;0.12451171875;2.4375;2.5625;15.625;
1441975772791225;-0.46942138671875;0.46917724609375;0.63873291015625;0.38916015625;16.47806046342973;12.152782599892838;17.37677204013982;-0.9423828125;0.2041015625;0.12646484375;1.625;2.0;10.9375;
1441975772813226;-0.468994140625;0.47003173828125;0.63812255859375;0.38958740234375;16.477882251272746;12.16325777151662;17.380507813369793;-0.93310546875;0.2021484375;0.13134765625;4.125;2.0;6.375;
1441975772836227;-0.46905517578125;0.4705810546875;0.63714599609375;0.390625;16.487361867700017;12.167039401528026;17.376871903820458;-0.92431640625;0.20458984375;0.12451171875;7.0625;1.625;1.625;
1441975772851228;-0.4696044921875;0.470458984375;0.6358642578125;0.39208984375;16.50637476375338;12.160046740108724;17.363711166651804;-0.9287109375;0.21923828125;0.11669921875;7.25;1.5;-4.1875;
1441975772873230;-0.470458984375;0.469970703125;0.63433837890625;0.39410400390625;16.532644297225268;12.143539192037558;17.340602091302934;-0.9482421875;0.2041015625;0.10791015625;6.125;0.9375;-8.8125;
1441975772896231;-0.47149658203125;0.46942138671875;0.6324462890625;0.3966064453125;16.56481078198;12.122803462392755;17.31143436207413;-0.94091796875;0.1953125;0.11376953125;5.8125;0.6875;-12.6875;
1441975772911232;-0.47259521484375;0.4688720703125;0.6300048828125;0.39971923828125;16.603330941602703;12.09732897674926;17.274343789982975;-0.93798828125;0.1982421875;0.11279296875;7.8125;0.9375;-16.75;
1441975772941233;-0.47381591796875;0.46820068359375;0.62738037109375;0.4031982421875;16.64557984012135;12.064889116696088;17.229360899193903;-0.953125;0.19384765625;0.10986328125;10.5;0.8125;-20.3125;
1441975772956234;-0.475341796875;0.46728515625;0.6246337890625;0.40679931640625;16.69193058032672;12.026372368515243;17.179166908758106;-0.95849609375;0.1953125;0.11181640625;11.1875;0.6875;-23.3125;
1441975772971235;-0.4769287109375;0.46624755859375;0.62176513671875;0.4105224609375;16.73998947426148;11.98171212616607;17.12268613037475;-0.96044921875;0.1904296875;0.10498046875;10.375;0.75;-25.5;
1441975772993236;-0.4786376953125;0.465087890625;0.6187744140625;0.414306640625;16.789951606458168;11.931268757368182;17.060627592490235;-0.958984375;0.1806640625;0.107421875;10.375;1.0;-27.0625;
1441975773016238;-0.48040771484375;0.4638671875;0.61578369140625;0.41802978515625;16.839858735582933;11.876139176362505;16.99443656143101;-0.95458984375;0.1708984375;0.1064453125;10.25;1.375;-28.0;
1441975773031239;-0.482421875;0.46258544921875;0.6129150390625;0.42144775390625;16.88959965727168;11.820196414040355;16.92953835050841;-0.95361328125;0.1669921875;0.10302734375;9.3125;1.6875;-28.4375;
1441975773054240;-0.484375;0.4610595703125;0.6102294921875;0.4246826171875;16.93691527741858;11.755040438097982;16.85709923369411;-0.96435546875;0.15966796875;0.0966796875;7.6875;1.9375;-28.1875;
1441975773076241;-0.486328125;0.45965576171875;0.60772705078125;0.427490234375;16.980976148548358;11.693889876239272;16.790104039952023;-0.966796875;0.15185546875;0.10009765625;5.75;2.0;-27.25;
1441975773091242;-0.48809814453125;0.4583740234375;0.60546875;0.43011474609375;17.020563893468143;11.631509816150153;16.722232279687276;-0.966796875;0.1484375;0.09619140625;4.8125;2.3125;-25.6875;
1441975773113243;-0.4898681640625;0.4571533203125;0.6033935546875;0.4322509765625;17.057132605756617;11.575082067235313;16.662133457816516;-0.97216796875;0.14892578125;0.10009765625;4.125;2.375;-23.9375;
1441975773136245;-0.49151611328125;0.4559326171875;0.6016845703125;0.43414306640625;17.089055169813008;11.51700059128819;16.60177869475737;-0.9765625;0.14208984375;0.0869140625;2.6875;2.3125;-21.875;
1441975773151245;-0.492919921875;0.4549560546875;0.60009765625;0.43572998046875;17.116789232759196;11.467299377914616;16.549684333169992;-0.9775390625;0.13623046875;0.09716796875;1.3125;2.25;-19.4375;
1441975773173247;-0.49395751953125;0.45428466796875;0.598876953125;0.43695068359375;17.137493070320176;11.428968996169752;16.50915380664065;-0.9736328125;0.126953125;0.08935546875;1.3125;2.1875;-16.75;
1441975773196248;-0.4947509765625;0.45391845703125;0.59783935546875;0.43780517578125;17.15373947570918;11.405177869334121;16.483198490990212;-0.97216796875;0.13623046875;0.09912109375;1.6875;2.0625;-13.75;
1441975773212249;-0.49530029296875;0.45367431640625;0.59722900390625;0.4383544921875;17.164061098156715;11.388925382476325;16.465828799163106;-0.966796875;0.1357421875;0.0888671875;1.25;2.0625;-10.75;
1441975773233250;-0.4957275390625;0.45367431640625;0.59674072265625;0.4384765625;17.171542129256615;11.38962661786232;16.465989124260602;-0.96142578125;0.14306640625;0.095703125;0.875;1.8125;-8.1875;
1441975773256251;-0.49591064453125;0.45367431640625;0.59661865234375;0.4384765625;17.17400864670984;11.390825322362392;16.46734464821728;-0.97265625;0.14697265625;0.08349609375;0.25;1.4375;-5.5;
1441975773272252;-0.495849609375;0.45379638671875;0.59649658203125;0.43853759765625;17.17440745052948;11.393303344415504;16.468776103668027;-0.9794921875;0.13916015625;0.091796875;-0.5625;0.875;-3.5625;
1441975773293254;-0.495361328125;0.45440673828125;0.5963134765625;0.438720703125;17.1714353908339;11.405976567892434;16.477227772952126;-0.96337890625;0.126953125;0.09326171875;0.8125;0.1875;-1.625;
1441975773316255;-0.49432373046875;0.45550537109375;0.59619140625;0.43890380859375;17.162915214003977;11.430692139646101;16.494930177418052;-0.955078125;0.1201171875;0.09619140625;4.1875;-0.125;0.625;
1441975773332256;-0.4931640625;0.4569091796875;0.59619140625;0.43878173828125;17.15156576684462;11.470334582795903;16.52755861950978;-0.9453125;0.1318359375;0.09814453125;7.125;-0.25;3.0625;
1441975773361257;-0.491943359375;0.45819091796875;0.5965576171875;0.4383544921875;17.13639804012486;11.51066489746616;16.56300227665583;-0.94775390625;0.14306640625;0.0947265625;7.125;-0.375;4.8125;
1441975773383259;-0.49078369140625;0.4593505859375;0.5970458984375;0.437744140625;17.120471947789618;11.550227477558803;16.59910744033679;-0.95263671875;0.154296875;0.0927734375;4.9375;-0.6875;6.25;
1441975773392259;-0.48956298828125;0.46044921875;0.5975341796875;0.437255859375;17.104223172613615;11.583639186562296;16.628711704768758;-0.9638671875;0.1455078125;0.08984375;3.4375;-1.0625;7.5;
1441975773413260;-0.4879150390625;0.46197509765625;0.597900390625;0.43701171875;17.085142544219185;11.620519513078548;16.658257859035373;-0.9677734375;0.12548828125;0.0947265625;4.4375;-1.625;8.75;
1441975773436262;-0.4859619140625;0.46392822265625;0.59808349609375;0.43682861328125;17.064255091505096;11.665581859488267;16.693189161408835;-0.9609375;0.1220703125;0.1015625;7.6875;-1.75;10.3125;
1441975773452263;-0.4840087890625;0.4659423828125;0.59832763671875;0.4366455078125;17.042654733098214;11.709981078507525;16.727422375627707;-0.958984375;0.13330078125;0.09130859375;10.25;-1.875;11.125;
1441975773473264;-0.48193359375;0.46783447265625;0.59857177734375;0.43646240234375;17.02007450591395;11.749057795720613;16.756393142593872;-0.9638671875;0.1328125;0.091796875;10.625;-2.25;12.125;
1441975773496265;-0.4796142578125;0.469970703125;0.59869384765625;0.4365234375;16.996439000787767;11.787080613923528;16.781826926953233;-0.9658203125;0.12109375;0.0966796875;10.6875;-2.5625;12.875;
1441975773512266;-0.47698974609375;0.47247314453125;0.5986328125;0.43682861328125;16.971484007545452;11.827109749096579;16.806083725822965;-0.96826171875;0.123046875;0.10107421875;13.125;-2.875;13.5;
1441975773533267;-0.47418212890625;0.47515869140625;0.5985107421875;0.4371337890625;16.94499190000501;11.869298798611386;16.831284074756674;-0.9580078125;0.1279296875;0.10107421875;16.3125;-3.0;14.0;
1441975773556269;-0.47161865234375;0.4776611328125;0.59844970703125;0.43731689453125;16.91995373408997;11.908908324487959;16.85564885423872;-0.94873046875;0.13916015625;0.1044921875;17.3125;-2.625;14.0625;
1441975773578270;-0.4691162109375;0.47998046875;0.598388671875;0.43743896484375;16.895484489243042;11.944574547971946;16.876980489110913;-0.9580078125;0.1455078125;0.1044921875;16.0;-2.5;13.8125;
1441975773593271;-0.46697998046875;0.482177734375;0.5982666015625;0.43756103515625;16.874615272518973;11.978869542634698;16.89812193380174;-0.9619140625;0.1513671875;0.1064453125;14.8125;-2.25;13.0;
1441975773616272;-0.46502685546875;0.48406982421875;0.59820556640625;0.4376220703125;16.855186521327397;12.007406547021924;16.915279593390057;-0.96484375;0.154296875;0.10205078125;13.5;-1.6875;11.875;
1441975773638273;-0.46337890625;0.48583984375;0.59808349609375;0.4376220703125;16.83869015334867;12.035893917686852;16.933598894001438;-0.958984375;0.15966796875;0.109375;12.125;-0.875;10.5625;
1441975773653274;-0.4620361328125;0.48724365234375;0.5977783203125;0.43780517578125;16.827316502600087;12.056391437144777;16.94481461226188;-0.9521484375;0.16748046875;0.10791015625;10.5;-0.25;9.0625;
1441975773676275;-0.46099853515625;0.48846435546875;0.59735107421875;0.43817138671875;16.820278438469384;12.072497448318334;16.952127549810132;-0.95556640625;0.16259765625;0.10888671875;9.6875;0.1875;7.0;
1441975773692276;-0.46014404296875;0.48956298828125;0.5966796875;0.438720703125;16.81730534470456;12.085957674627165;16.956443136274036;-0.953125;0.15478515625;0.10693359375;9.3125;0.375;5.0625;
1441975773713278;-0.45947265625;0.49053955078125;0.59576416015625;0.4395751953125;16.818820176063056;12.094821955730808;16.95543807462258;-0.94970703125;0.15185546875;0.10400390625;9.3125;0.5625;3.125;
1441975773736279;-0.45867919921875;0.49163818359375;0.5946044921875;0.4407958984375;16.82198925059252;12.101270364260778;16.949539532916067;-0.951171875;0.14892578125;0.1015625;10.3125;0.5625;1.25;
1441975773752280;-0.45794677734375;0.49285888671875;0.59307861328125;0.4422607421875;16.828746505726357;12.109392454676371;16.94337550236133;-0.94921875;0.1513671875;0.10009765625;12.375;0.4375;-0.5625;
1441975773773281;-0.45733642578125;0.4937744140625;0.5914306640625;0.4439697265625;16.838869333811996;12.108846916259244;16.92873112647851;-0.9501953125;0.15380859375;0.091796875;14.25;0.125;-2.375;
1441975773796282;-0.456787109375;0.4945068359375;0.58990478515625;0.44586181640625;16.849657403719874;12.10054519673522;16.90683023511356;-0.951171875;0.14892578125;0.0927734375;14.0;0.0;-4.1875;
1441975773812283;-0.45623779296875;0.4954833984375;0.5880126953125;0.44775390625;16.862440888627546;12.100054855953749;16.891007757153393;-0.931640625;0.15234375;0.10595703125;13.3125;-0.125;-5.8125;
1441975773833284;-0.45556640625;0.4967041015625;0.5859375;0.44989013671875;16.87576851403242;12.100957802264723;16.87427418988934;-0.91455078125;0.14306640625;0.10546875;15.375;1.0625;-5.75;
1441975773856286;-0.45489501953125;0.49798583984375;0.58367919921875;0.4520263671875;16.890248921940522;12.10450348631956;16.859502650975674;-0.89990234375;0.1484375;0.10595703125;17.4375;2.0625;-6.9375;
1441975773878287;-0.45428466796875;0.4991455078125;0.58172607421875;0.45391845703125;16.902568328064955;12.107554748492602;16.84634659836219;-0.91162109375;0.16650390625;0.10009765625;18.3125;1.875;-8.25;
1441975773893288;-0.45379638671875;0.49993896484375;0.580078125;0.45550537109375;16.913553953537374;12.106360917392575;16.832136283461473;-0.90576171875;0.19091796875;0.087890625;15.8125;0.9375;-9.125;
1441975773916289;-0.45306396484375;0.500732421875;0.57861328125;0.457275390625;16.92182802475031;12.09860444946115;16.810649082229578;-0.87060546875;0.17138671875;0.09033203125;12.6875;1.125;-7.8125;
1441975773940291;-0.45184326171875;0.5020751953125;0.576904296875;0.459228515625;16.927233914579965;12.098536754300225;16.792640768309287;-0.8251953125;0.14794921875;0.0869140625;13.5;-0.625;-6.3125;
1441975773953291;-0.45037841796875;0.50372314453125;0.57550048828125;0.46063232421875;16.92612368835327;12.111630348783118;16.78869045615935;-0.783203125;0.14453125;0.08447265625;17.5625;-0.9375;-4.8125;
1441975773976293;-0.44915771484375;0.50482177734375;0.5745849609375;0.46173095703125;16.92375898721117;12.115718528746559;16.78030921572597;-0.76806640625;0.1953125;0.08154296875;16.6875;0.1875;-4.5;
1441975773992294;-0.4478759765625;0.50506591796875;0.57440185546875;0.46295166015625;16.917842890833303;12.092421785987149;16.748585220668396;-0.7900390625;0.185546875;0.0712890625;11.875;-1.9375;-3.25;
1441975774021295;-0.445068359375;0.50543212890625;0.5745849609375;0.46502685546875;16.898939744077982;12.045515970684372;16.687118729668143;-0.78759765625;0.15576171875;0.0673828125;7.8125;-7.0625;-2.0;
1441975774036296;-0.44097900390625;0.50714111328125;0.57440185546875;0.46728515625;16.869829504376945;12.022639252713372;16.6405498707683;-0.74609375;0.1318359375;0.10498046875;13.625;-12.1875;2.3125;
1441975774058297;-0.4368896484375;0.5086669921875;0.57440185546875;0.46942138671875;16.839232515526838;11.998620597080022;16.594239454468788;-0.67431640625;0.140625;0.10009765625;23.125;-12.8125;6.5625;
1441975774074298;-0.43243408203125;0.51019287109375;0.57501220703125;0.47119140625;16.80004988516419;11.977396051573036;16.55247322697453;-0.6416015625;0.1337890625;0.10693359375;21.875;-12.875;7.625;
1441975774096300;-0.42767333984375;0.51177978515625;0.5758056640625;0.47283935546875;16.756457840400827;11.959247092422082;16.513598441135937;-0.6015625;0.14453125;0.1220703125;20.0625;-13.4375;10.125;
1441975774118301;-0.42266845703125;0.51336669921875;0.5765380859375;0.47467041015625;16.711619832709115;11.93971992022585;16.471923050671926;-0.57470703125;0.1435546875;0.11962890625;20.25;-14.375;11.9375;
1441975774135302;-0.41705322265625;0.5152587890625;0.577392578125;0.47650146484375;16.660234784456968;11.925572048326774;16.433318999228057;-0.56103515625;0.12841796875;0.1162109375;21.5625;-15.875;13.5;
1441975774156303;-0.4114990234375;0.51641845703125;0.57928466796875;0.47784423828125;16.60147072463566;11.90239182497054;16.392350143426963;-0.517578125;0.115234375;0.11083984375;23.9375;-17.8125;16.375;
1441975774178304;-0.40533447265625;0.51715087890625;0.58209228515625;0.47894287109375;16.530626077088648;11.872387799258046;16.347352569666953;-0.45263671875;0.08349609375;0.1171875;17.6875;-19.8125;20.9375;
1441975774195305;-0.39849853515625;0.5179443359375;0.5855712890625;0.47955322265625;16.447793004840243;11.849274177512068;16.31044931900525;-0.40234375;0.0625;0.12451171875;14.6875;-23.6875;25.75;
1441975774216306;-0.39117431640625;0.51953125;0.589111328125;0.47943115234375;16.35781534897536;11.849660194391426;16.295595842062777;-0.35693359375;0.0849609375;0.1484375;13.625;-24.3125;29.5;
1441975774232307;-0.38397216796875;0.52130126953125;0.593017578125;0.47857666015625;16.264402967327218;11.860717421897453;16.294383304355076;-0.35498046875;0.1259765625;0.1337890625;15.75;-22.875;32.8125;
1441975774255309;-0.37786865234375;0.521484375;0.5982666015625;0.47674560546875;16.16990279010765;11.855788448304324;16.29167256349041;-0.431640625;0.208984375;0.125;12.125;-22.25;32.6875;
1441975774276310;-0.373046875;0.52020263671875;0.60357666015625;0.47515869140625;16.08772790114171;11.830015851481871;16.27557506112369;-0.54052734375;0.29736328125;0.1474609375;-3.3125;-23.125;29.375;
1441975774298311;-0.368896484375;0.51861572265625;0.6075439453125;0.47515869140625;16.024641885463662;11.791219811075376;16.240812185437633;-0.6845703125;0.3310546875;0.18505859375;-11.25;-23.125;22.625;
1441975774315312;-0.36444091796875;0.51715087890625;0.61029052734375;0.4766845703125;15.970464008005903;11.745148084232918;16.189547005146128;-0.82958984375;0.2822265625;0.18359375;-6.375;-26.0625;17.4375;
1441975774336313;-0.3597412109375;0.51654052734375;0.61175537109375;0.47900390625;15.924018288251908;11.708607544676335;16.138564685784683;-0.9697265625;0.27294921875;0.203125;2.5;-30.0;13.5625;
1441975774358315;-0.35528564453125;0.5155029296875;0.613037109375;0.4818115234375;15.881591385059416;11.664603866252275;16.080102943932076;-1.05517578125;0.25830078125;0.1845703125;11.1875;-31.5;13.0625;
1441975774375315;-0.3499755859375;0.51446533203125;0.61468505859375;0.4847412109375;15.828615366798417;11.620732699642613;16.01995551509854;-1.10791015625;0.212890625;0.208984375;11.5;-32.625;13.25;
1441975774396317;-0.34375;0.51312255859375;0.61700439453125;0.48760986328125;15.761937731562453;11.575081573767125;15.958320394030842;-1.125;0.19384765625;0.228515625;13.6875;-36.6875;18.1875;
1441975774418318;-0.3372802734375;0.511962890625;0.61981201171875;0.48980712890625;15.687938507198949;11.539522903085501;15.908865333698166;-1.142578125;0.24169921875;0.291015625;13.5;-38.6875;20.3125;
1441975774435319;-0.33148193359375;0.509033203125;0.62396240234375;0.4915771484375;15.60850312054463;11.486913332063736;15.854638793711299;-1.16064453125;0.27001953125;0.28125;11.3125;-40.3125;24.0625;
1441975774456320;-0.325439453125;0.5062255859375;0.628662109375;0.49249267578125;15.521153749417925;11.445098641152315;15.814215911269628;-1.15283203125;0.25830078125;0.32373046875;-0.8125;-42.375;25.3125;
1441975774478321;-0.31866455078125;0.504150390625;0.63336181640625;0.4930419921875;15.426837287205124;11.41745043488657;15.784712173550162;-1.1103515625;0.27490234375;0.322265625;-3.0625;-42.125;29.625;
1441975774495322;-0.31201171875;0.5020751953125;0.6378173828125;0.49365234375;15.335122763244913;11.391617014499223;15.756473221235197;-1.13037109375;0.32177734375;0.3310546875;-0.125;-42.5;32.25;
1441975774516324;-0.30517578125;0.50042724609375;0.64190673828125;0.49432373046875;15.244540663644269;11.372232089378475;15.7316096833502;-1.16064453125;0.34814453125;0.3310546875;-0.4375;-43.875;31.125;
1441975774538325;-0.2977294921875;0.49908447265625;0.64569091796875;0.4952392578125;15.150956758416735;11.356895516038993;15.70641771298308;-1.14599609375;0.34716796875;0.32275390625;3.0625;-44.0625;31.4375;
1441975774555326;-0.2891845703125;0.49822998046875;0.64892578125;0.4969482421875;15.052548745917182;11.34474690484411;15.675667181996623;-1.13818359375;0.373046875;0.33154296875;6.75;-46.0625;31.375;
1441975774576327;-0.2789306640625;0.497802734375;0.6522216796875;0.49896240234375;14.938939595810586;11.338559972874965;15.643640545295746;-1.12451171875;0.39453125;0.3408203125;13.6875;-50.25;30.0;
1441975774616329;-0.26812744140625;0.49737548828125;0.65570068359375;0.5006103515625;14.81845749986891;11.336579525609228;15.615599910577599;-1.0400390625;0.42236328125;0.37744140625;21.0625;-53.375;31.9375;
1441975774621330;-0.2579345703125;0.49725341796875;0.6588134765625;0.5020751953125;14.706182029795434;11.33893648470145;15.592151391071026;-0.98291015625;0.46826171875;0.40185546875;20.875;-52.625;32.4375;
1441975774636330;-0.24822998046875;0.49639892578125;0.66229248046875;0.50323486328125;14.594388534969614;11.336257638544955;15.569158865282132;-0.99951171875;0.47802734375;0.392578125;20.5625;-50.8125;32.0;
1441975774658332;-0.23846435546875;0.4952392578125;0.6658935546875;0.50433349609375;14.480568987438087;11.332203982175418;15.54590849431145;-1.00244140625;0.47607421875;0.41162109375;15.375;-50.5625;33.125;
1441975774675333;-0.22833251953125;0.49334716796875;0.669677734375;0.50592041015625;14.361476970445615;11.321156940652628;15.515660386421324;-0.9580078125;0.47998046875;0.41357421875;13.8125;-51.75;32.625;
1441975774696334;-0.21697998046875;0.49334716796875;0.6722412109375;0.5074462890625;14.242106254854978;11.330227423420306;15.49238825993481;-0.912109375;0.48681640625;0.474609375;13.9375;-53.1875;30.875;
1441975774718335;-0.20599365234375;0.4951171875;0.6737060546875;0.5084228515625;14.135742753867424;11.356638724284585;15.480407967493887;-0.88720703125;0.5390625;0.4775390625;26.75;-50.5625;31.5;
1441975774735336;-0.19757080078125;0.49639892578125;0.6744384765625;0.509521484375;14.057062633033087;11.37512269958638;15.467249186052902;-0.95361328125;0.6435546875;0.46435546875;31.375;-44.9375;28.8125;
1441975774756337;-0.19073486328125;0.49554443359375;0.67584228515625;0.51104736328125;13.985375830608321;11.372217277207973;15.444740741430907;-1.03759765625;0.60693359375;0.41455078125;23.9375;-41.6875;24.5;
1441975774778339;-0.18243408203125;0.495361328125;0.6771240234375;0.51263427734375;13.902298421716162;11.377233979420078;15.422789205217029;-0.9609375;0.4775390625;0.427734375;14.125;-41.375;23.1875;
1441975774794339;-0.17340087890625;0.4969482421875;0.67724609375;0.5140380859375;13.823029529249187;11.398998989818129;15.406734866594984;-0.8896484375;0.53125;0.46630859375;21.0625;-41.625;22.8125;
1441975774816341;-0.16717529296875;0.49676513671875;0.67828369140625;0.514892578125;13.759658031429698;11.404134382687733;15.392740268401884;-0.9150390625;0.62939453125;0.40478515625;28.0;-41.9375;20.875;
1441975774840342;-0.16339111328125;0.495849609375;0.67901611328125;0.51605224609375;13.719796636902842;11.398945178124718;15.37667973487451;-0.931640625;0.6416015625;0.40966796875;9.5625;-36.625;16.6875;
1441975774855343;-0.15966796875;0.49609375;0.67840576171875;0.51776123046875;13.692148330490882;11.401515999986662;15.359300742926102;-0.978515625;0.56640625;0.4072265625;3.125;-31.5625;13.125;
1441975774883345;-0.15435791015625;0.497802734375;0.677001953125;0.51953125;13.658024848321256;11.418191733673464;15.343742658344516;-0.95849609375;0.48828125;0.408203125;14.125;-28.1875;11.375;
1441975774898345;-0.14788818359375;0.50054931640625;0.675537109375;0.520751953125;13.615079055935661;11.446489670126859;15.334243194927945;-0.869140625;0.48095703125;0.42578125;27.8125;-25.5;12.3125;
1441975774915346;-0.14263916015625;0.50238037109375;0.67474365234375;0.52142333984375;13.57639578979758;11.467362999709549;15.327674197016838;-0.80712890625;0.556640625;0.416015625;32.5625;-23.9375;13.375;
1441975774936348;-0.13922119140625;0.5035400390625;0.67431640625;0.52178955078125;13.55050307753266;11.480839066580314;15.323828430954295;-0.82373046875;0.58154296875;0.42919921875;22.875;-20.875;12.875;
1441975774958349;-0.1370849609375;0.50390625;0.67376708984375;0.522705078125;13.536435164663363;11.484550457481296;15.314836691139522;-0.86328125;0.5986328125;0.400390625;12.0625;-18.0;10.125;
1441975774975350;-0.13494873046875;0.50457763671875;0.67291259765625;0.52374267578125;13.525172496151443;11.49030353787414;15.305665721104189;-0.85009765625;0.53466796875;0.4013671875;8.125;-16.4375;6.5625;
1441975774996351;-0.13140869140625;0.5067138671875;0.6712646484375;0.524658203125;13.508875963500369;11.51020620320925;15.299417769315147;-0.765625;0.51123046875;0.42138671875;11.875;-12.25;3.5625;
1441975775018352;-0.12799072265625;0.50897216796875;0.67010498046875;0.5247802734375;13.489613529835706;11.533011703554562;15.299960566846805;-0.70556640625;0.533203125;0.41796875;23.0;-10.0625;4.0;
1441975775034353;-0.1241455078125;0.51190185546875;0.6688232421875;0.5245361328125;13.467965701301996;11.562597839268358;15.304523407714202;-0.6630859375;0.5390625;0.39794921875;20.6875;-7.25;6.1875;
1441975775056354;-0.12200927734375;0.51446533203125;0.66796875;0.523681640625;13.457473458786321;11.588178080229499;15.315110449264576;-0.64111328125;0.58154296875;0.38671875;23.4375;-5.125;6.875;
1441975775078356;-0.123779296875;0.51348876953125;0.66937255859375;0.5223388671875;13.460512800615984;11.581437660357485;15.325630697623465;-0.56689453125;0.62255859375;0.31396484375;11.1875;0.3125;0.1875;
1441975775094357;-0.1273193359375;0.5133056640625;0.669677734375;0.52130126953125;13.489087740974988;11.577348103967543;15.338190907591303;-0.56103515625;0.654296875;0.33203125;-21.5;5.6875;-6.875;
1441975775117358;-0.1318359375;0.5155029296875;0.66748046875;0.52081298828125;13.548183003106539;11.589440732840796;15.353761528612136;-0.65478515625;0.619140625;0.294921875;-20.75;10.375;-10.8125;
1441975775138359;-0.1353759765625;0.51959228515625;0.66168212890625;0.52325439453125;13.629995409942719;11.61051474191549;15.349618723326842;-0.68408203125;0.61328125;0.24169921875;-8.1875;17.9375;-20.6875;
1441975775154360;-0.15252685546875;0.517822265625;0.652587890625;0.5316162109375;13.856625311378357;11.546250021231437;15.295742370030009;-0.58642578125;0.8740234375;0.3916015625;12.75;25.6875;-56.0;
1441975775177361;-0.1812744140625;0.5078125;0.64617919921875;0.5400390625;14.151843548368435;11.386884927387271;15.216582892261972;-0.60302734375;1.18408203125;0.38330078125;-29.875;42.4375;-121.5;
1441975775198363;-0.22003173828125;0.482666015625;0.64520263671875;0.5498046875;14.455901637772826;11.053137054583846;15.049515810516947;-1.0625;0.62548828125;0.4296875;-99.8125;55.875;-145.1875;
1441975775214363;-0.22412109375;0.4822998046875;0.63616943359375;0.55889892578125;14.552114864877057;10.995189850038674;14.95171210603413;-1.99072265625;-0.49609375;0.72216796875;-200.3125;38.125;-178.3125;
1441975775237365;-0.20989990234375;0.492919921875;0.62652587890625;0.5660400390625;14.51920293018912;11.087100354567838;14.91746554023434;-1.791015625;-1.072265625;0.48291015625;22.1875;0.25;-73.6875;
1441975775258366;-0.18231201171875;0.51324462890625;0.62249755859375;0.56195068359375;14.349977253960875;11.343511519044;15.025085312918371;-1.01025390625;-0.06201171875;0.84619140625;126.0;-20.875;3.625;
1441975775274367;-0.1890869140625;0.51654052734375;0.628662109375;0.5496826171875;14.367429658224388;11.410079389585869;15.158750698445159;-1.095703125;1.07373046875;0.1171875;162.375;-22.8125;97.0625;
1441975775297368;-0.21282958984375;0.50469970703125;0.6395263671875;0.539306640625;14.47565239399412;11.30670276775854;15.229618855400679;-0.9208984375;0.935546875;0.046875;-65.5625;41.125;23.125;
1441975775318369;-0.23480224609375;0.4930419921875;0.64532470703125;0.5340576171875;14.607504514947813;11.185051237585759;15.244395505715719;-1.421875;0.712890625;0.33642578125;-163.5625;62.25;-11.5;
1441975775334370;-0.25250244140625;0.49542236328125;0.6348876953125;0.53631591796875;14.844049937347043;11.159861410295308;15.229718454716771;-1.13916015625;0.33837890625;0.51708984375;-132.8125;51.8125;-37.6875;
1441975775358372;-0.25177001953125;0.5107421875;0.61871337890625;0.54119873046875;14.981630617113026;11.282372862254258;15.243155922788844;-0.9970703125;-0.1953125;0.35205078125;1.5625;74.6875;-50.4375;
1441975775378373;-0.24371337890625;0.52606201171875;0.60125732421875;0.5498046875;15.064393803767384;11.40276296665686;15.217322658717704;-1.58251953125;0.11376953125;0.2060546875;111.625;47.25;-35.5625;
1441975775394374;-0.2296142578125;0.543701171875;0.58740234375;0.55364990234375;15.067741884672609;11.586912377544678;15.25381081938142;-1.36328125;0.35791015625;0.3662109375;143.0;16.625;-35.9375;
1441975775417375;-0.2054443359375;0.56341552734375;0.5731201171875;0.55841064453125;14.985764900901174;11.800931867935272;15.277055578423182;-1.39990234375;0.34130859375;0.49609375;154.0625;14.9375;14.4375;
1441975775438376;-0.17535400390625;0.58587646484375;0.55279541015625;0.56597900390625;14.899584722236543;12.035924077037407;15.265840964390884;-1.5283203125;0.39599609375;0.46923828125;195.0625;-15.6875;45.125;
1441975775454377;-0.14886474609375;0.60943603515625;0.5294189453125;0.57098388671875;14.861447294923089;12.294376291107014;15.282596367111088;-1.3720703125;0.59130859375;0.46142578125;245.875;-26.875;35.6875;
1441975775477379;-0.12890625;0.63128662109375;0.51031494140625;0.56951904296875;14.828779681603123;12.558568914471776;15.361326419748435;-1.13330078125;0.837890625;0.40966796875;244.5;1.125;17.875;
1441975775498380;-0.11895751953125;0.64495849609375;0.5029296875;0.5628662109375;14.775856413861092;12.741244272645233;15.465556649378053;-1.06640625;1.05908203125;0.05810546875;194.5625;30.5625;23.5625;
1441975775514381;-0.1080322265625;0.65380859375;0.5013427734375;0.55621337890625;14.669485913263664;12.860282737244505;15.533295236586895;-1.0869140625;0.81298828125;0.162109375;92.1875;44.0625;32.625;
1441975775537382;-0.09796142578125;0.65789794921875;0.508056640625;0.54718017578125;14.504028846534716;12.920565769422728;15.590288418097073;-0.751953125;1.01220703125;0.23193359375;61.75;30.125;29.0;
1441975775558383;-0.09368896484375;0.66058349609375;0.517333984375;0.53582763671875;14.360447801677763;12.967737750581712;15.673137805261607;-0.33984375;1.12548828125;0.30859375;15.8125;29.25;35.9375;
1441975775574384;-0.09515380859375;0.66552734375;0.5267333984375;0.52001953125;14.242307114702934;13.04760205916612;15.815560322861336;-0.087890625;1.0595703125;0.22021484375;-19.6875;44.875;23.8125;
1441975775603386;-0.10089111328125;0.66644287109375;0.53790283203125;0.50616455078125;14.15639816004865;13.078053089934391;15.936047495574735;-0.42333984375;1.125;0.0322265625;-40.75;72.875;27.875;
1441975775618387;-0.10406494140625;0.66766357421875;0.5496826171875;0.4910888671875;14.037442702670536;13.109244148791388;16.052336126566797;-0.6982421875;1.00537109375;0.0302734375;-69.9375;63.5625;28.375;
1441975775634387;-0.10479736328125;0.66790771484375;0.56329345703125;0.474853515625;13.880556477603513;13.126111026682596;16.157288489244937;-0.69384765625;0.9970703125;0.01416015625;-65.0;60.125;46.0625;
1441975775657389;-0.1064453125;0.666259765625;0.57666015625;0.4605712890625;13.743943016652949;13.120062564763764;16.242563084535693;-0.658203125;1.04541015625;0.07958984375;-65.9375;57.0;61.5;
1441975775678390;-0.114990234375;0.6640625;0.594970703125;0.43780517578125;13.592158607511976;13.122197923966333;16.401667653145463;-0.62548828125;0.8671875;0.0546875;-72.4375;46.0625;59.8125;
1441975775694391;-0.12603759765625;0.65411376953125;0.61944580078125;0.415283203125;13.43857263504118;13.047418024109042;16.535477722442987;-0.73486328125;0.92041015625;0.01025390625;-115.1875;97.25;87.0625;
1441975775717392;-0.13726806640625;0.64111328125;0.64300537109375;0.39569091796875;13.315424611541872;12.94609902631559;16.642521295468626;-0.96142578125;0.81787109375;0.0703125;-170.375;81.375;91.25;
1441975775746394;-0.1453857421875;0.63153076171875;0.661865234375;0.37664794921875;13.193211472331294;12.879101051855708;16.747534498789495;-0.90673828125;0.59130859375;0.01318359375;-176.5625;63.25;78.5;
1441975775754394;-0.15826416015625;0.61822509765625;0.681884765625;0.35736083984375;13.112812646254495;12.787400582763478;16.86081707728185;-0.88525390625;0.51611328125;0.08203125;-138.625;61.9375;80.6875;
1441975775779396;-0.1759033203125;0.60736083984375;0.6939697265625;0.34423828125;13.147917360185145;12.724737554182097;16.967834332190833;-0.77880859375;0.419921875;0.12548828125;-166.3125;72.5;64.0;
1441975775806397;-0.19451904296875;0.60626220703125;0.69061279296875;0.34283447265625;13.31928989391541;12.748286895672198;17.04856090847509;-0.66455078125;0.10986328125;0.193359375;-131.5625;82.125;10.625;
1441975775814398;-0.20294189453125;0.61224365234375;0.68017578125;0.34820556640625;13.462841584351436;12.817814915116928;17.07761885259665;-0.9130859375;-0.12744140625;0.08984375;-24.0;72.8125;-16.125;
1441975775837399;-0.19915771484375;0.6209716796875;0.6697998046875;0.35498046875;13.504963954488378;12.889640406737938;17.057728131796022;-1.08056640625;0.10546875;0.162109375;56.125;32.75;-17.3125;
1441975775859400;-0.19525146484375;0.62249755859375;0.666259765625;0.36114501953125;13.52213070390916;12.890593503413426;17.01190321236473;-0.861328125;0.41455078125;0.162109375;89.4375;-10.3125;-2.625;
1441975775881402;-0.19573974609375;0.621826171875;0.66424560546875;0.36566162109375;13.563148326804145;12.880822870235866;16.986024907515958;-0.68115234375;0.427734375;0.20166015625;38.6875;-27.125;-3.5625;
1441975775896402;-0.1971435546875;0.6241455078125;0.66082763671875;0.36712646484375;13.596453394274015;12.906124019290464;16.993826443487542;-0.65869140625;0.40673828125;0.185546875;13.125;-10.9375;-12.75;
1441975775918404;-0.19989013671875;0.62548828125;0.6593017578125;0.36614990234375;13.619226772797884;12.926895657643872;17.017582041863857;-0.603515625;0.46826171875;0.17529296875;23.1875;11.5625;-10.125;
1441975775934405;-0.20184326171875;0.624755859375;0.6591796875;0.3665771484375;13.64002903402342;12.923496329306497;17.021093306894592;-0.51123046875;0.52734375;0.12255859375;4.5;19.5625;-10.25;
1441975775956406;-0.204345703125;0.62298583984375;0.65850830078125;0.3692626953125;13.682959315271836;12.909018158539146;17.010022828687756;-0.4150390625;0.388671875;0.19921875;-0.25;10.5;-9.9375;
1441975775978407;-0.2095947265625;0.62005615234375;0.65826416015625;0.37176513671875;13.747872541809677;12.888672924818414;17.007315365173334;-0.32568359375;0.353515625;0.20654296875;-0.3125;4.125;-25.375;
1441975775995408;-0.22003173828125;0.61590576171875;0.65887451171875;0.37158203125;13.839226725382403;12.871811484426605;17.038856094330754;-0.25634765625;0.36767578125;0.2080078125;-12.5625;12.8125;-39.375;
1441975776023410;-0.2354736328125;0.6094970703125;0.6614990234375;0.367919921875;13.947426570577969;12.850641937419498;17.104892918157372;-0.21875;0.3623046875;0.14892578125;-37.125;36.1875;-49.125;
1441975776039411;-0.25445556640625;0.60040283203125;0.66534423828125;0.36334228515625;14.08011742099527;12.81595785130966;17.182304324313865;-0.1904296875;0.35302734375;0.109375;-69.9375;57.75;-53.5625;
1441975776054412;-0.2747802734375;0.59271240234375;0.666748046875;0.35858154296875;14.232897824955378;12.807319590357544;17.27775928020715;-0.19384765625;0.24853515625;0.1650390625;-89.5;70.3125;-58.125;
1441975776076413;-0.2945556640625;0.5870361328125;0.66497802734375;0.35546875;14.40129797628129;12.824918597400133;17.37621370826523;-0.24951171875;0.08544921875;0.16650390625;-77.375;82.3125;-54.75;
1441975776099414;-0.31207275390625;0.5826416015625;0.66229248046875;0.35272216796875;14.553444018205251;12.855747935900473;17.472744050667302;-0.34814453125;0.08984375;0.12890625;-57.0;81.0625;-59.3125;
1441975776115415;-0.32525634765625;0.5799560546875;0.66064453125;0.3482666015625;14.649265679554498;12.89555640049649;17.568153361371525;-0.5087890625;0.17529296875;0.0478515625;-47.75;70.0;-52.0;
1441975776136416;-0.33624267578125;0.57757568359375;0.66064453125;0.34173583984375;14.704782498710617;12.934940566123046;17.6667710806966;-0.55126953125;0.306640625;0.02734375;-40.5625;59.5;-32.25;
1441975776159418;-0.34564208984375;0.5758056640625;0.66033935546875;0.33587646484375;14.749889457656687;12.975357970934562;17.756877851748907;-0.50830078125;0.40234375;0.01611328125;-45.625;55.75;-20.875;
1441975776181419;-0.354736328125;0.5740966796875;0.659423828125;0.3311767578125;14.801066672075862;13.01588373296768;17.84056649211479;-0.5537109375;0.50732421875;0.04638671875;-37.4375;51.0;-22.625;
1441975776196420;-0.36260986328125;0.57232666015625;0.65863037109375;0.3272705078125;14.846392564915497;13.049777643221173;17.912137285278508;-0.6806640625;0.59912109375;0.01904296875;-33.1875;45.125;-27.9375;
1441975776219421;-0.3665771484375;0.57342529296875;0.65692138671875;0.324462890625;14.861866384554375;13.093591193472164;17.967629184719847;-0.84912109375;0.587890625;0.04541015625;-29.0625;38.8125;-20.6875;
1441975776234422;-0.36749267578125;0.57769775390625;0.65386962890625;0.32183837890625;14.848584931772193;13.157490789901795;0.020382923752630518;-0.87353515625;0.53369140625;0.1259765625;-1.5625;32.875;-3.8125;
1441975776256423;-0.365966796875;0.58575439453125;0.6513671875;0.31396484375;14.763557333407025;13.25449380349886;0.1055739108046528;-0.77978515625;0.56005859375;0.12158203125;21.0;30.375;5.0;
1441975776287425;-0.3626708984375;0.59442138671875;0.65106201171875;0.30194091796875;14.62295990545973;13.344354768176325;0.1959809868867071;-0.7490234375;0.77783203125;0.02197265625;22.75;39.3125;28.6875;
1441975776300426;-0.35955810546875;0.59979248046875;0.6539306640625;0.2884521484375;14.472472123096624;13.391833176222208;0.2686269432138317;-0.7021484375;0.8095703125;-0.0703125;9.375;38.6875;53.625;
1441975776316427;-0.356201171875;0.603515625;0.65850830078125;0.27410888671875;14.31374998405927;13.415650082518393;0.32998989915364096;-0.595703125;0.78515625;0.0029296875;-13.5;36.5625;56.1875;
1441975776340428;-0.3487548828125;0.60980224609375;0.66357421875;0.2569580078125;14.092808822910825;13.441493512256791;0.38446637819358886;-0.6865234375;0.73876953125;0.03662109375;-25.25;34.8125;67.75;
1441975776360429;-0.34014892578125;0.61712646484375;0.66827392578125;0.2384033203125;13.849482513629521;13.470257300178135;0.4391833469574933;-0.63916015625;0.73046875;0.03125;-16.625;31.75;99.5625;
1441975776376430;-0.32977294921875;0.6248779296875;0.673095703125;0.2183837890625;13.579781769364939;13.49372663586152;0.4878478178779247;-0.5537109375;0.7578125;0.0341796875;-12.8125;33.9375;118.75;
1441975776399431;-0.31817626953125;0.631103515625;0.67999267578125;0.195068359375;13.276183679335125;13.496433769967885;0.5350207970265903;-0.56591796875;0.84521484375;0.02685546875;-11.875;32.375;131.4375;
1441975776421433;-0.3043212890625;0.6363525390625;0.68841552734375;0.1688232421875;12.933683002595464;13.481993464985933;0.5775576663348809;-0.58837890625;0.908203125;0.03564453125;-29.875;33.8125;148.5625;
1441975776436433;-0.28741455078125;0.64202880859375;0.69659423828125;0.14093017578125;12.555158650255606;13.4637394326166;0.6128727542198411;-0.5966796875;0.96337890625;0.0361328125;-42.125;32.0625;168.9375;
1441975776460435;-0.2696533203125;0.646728515625;0.7049560546875;0.109375;12.14472453449266;13.439695414388098;0.65925868811666;-0.5712890625;0.97265625;0.01171875;-39.875;26.125;187.8125;
1441975776480436;-0.25030517578125;0.650634765625;0.71282958984375;0.076171875;11.713011001789479;13.410007156854395;0.7060914089534287;-0.490234375;1.01953125;0.02392578125;-49.4375;35.0;203.9375;
1441975776496437;-0.22808837890625;0.65301513671875;0.7208251953125;0.04266357421875;11.261869958704379;13.36661950855164;0.7419867189926064;-0.47119140625;1.1962890625;0.0673828125;-52.25;35.75;214.5625;
1441975776519438;-0.20452880859375;0.65557861328125;0.726806640625;0.0079345703125;10.792260161416667;13.329181802814343;0.7824529883221719;-0.359375;1.103515625;0.076171875;-58.125;23.875;225.125;
1441975776548440;-0.18096923828125;0.65673828125;0.73150634765625;-0.0279541015625;10.318272819715526;13.28845349383078;0.831392510440797;-0.16845703125;1.05224609375;0.08544921875;-51.0;25.8125;233.8125;
1441975776556440;-0.1572265625;0.6572265625;0.73443603515625;-0.06219482421875;9.858078587670938;13.248768855221094;0.8771382139697832;-0.06005859375;1.03173828125;0.13671875;-53.375;31.625;236.875;
1441975776579442;-0.1341552734375;0.65643310546875;0.73638916015625;-0.09356689453125;9.4286611477715;13.206085081677937;0.9175433249302737;-0.00830078125;0.98828125;0.1025390625;-47.875;26.375;230.5;
1441975776608443;-0.113037109375;0.65155029296875;0.74017333984375;-0.12176513671875;9.049630653600031;13.139820056258374;0.9560756342733344;0.017578125;0.97021484375;0.07666015625;-47.8125;19.5625;216.0;
1441975776617444;-0.09246826171875;0.64453125;0.7449951171875;-0.14447021484375;8.722229552289102;13.062514413531602;0.9783131113614035;-0.0302734375;0.90625;0.08203125;-68.375;16.6875;193.1875;
1441975776640445;-0.0726318359375;0.63897705078125;0.7486572265625;-0.16070556640625;8.445467554138919;13.000198989900882;0.9787930479282464;-0.1298828125;0.8203125;0.09521484375;-77.25;-1.0;168.1875;
1441975776661446;-0.0535888671875;0.6348876953125;0.75146484375;-0.17108154296875;8.21427515449984;12.952913071835143;0.9582100165439819;-0.14404296875;0.7041015625;0.1376953125;-62.1875;-22.9375;140.3125;
1441975776676447;-0.0382080078125;0.63299560546875;0.75335693359375;-0.17388916015625;8.064300493199212;12.928140956835255;0.9167742533886285;-0.1572265625;0.66748046875;0.13671875;-49.625;-41.9375;114.125;
1441975776699448;-0.02471923828125;0.6280517578125;0.758544921875;-0.17169189453125;7.9736568898572635;12.884398768097714;0.861726262571038;-0.13427734375;0.70849609375;0.064453125;-36.5;-57.4375;82.5625;
1441975776721450;-0.013916015625;0.62139892578125;0.76580810546875;-0.16473388671875;7.943039754249776;12.831589943519791;0.7959453695203773;-0.1015625;0.5732421875;0.1005859375;-54.625;-65.0625;47.25;
1441975776736451;-0.00830078125;0.619140625;0.77020263671875;-0.152587890625;7.985278702833859;12.815056773447887;0.7216547092778682;-0.06982421875;0.46484375;0.14892578125;-62.3125;-69.25;11.0625;
1441975776760452;-0.009765625;0.62396240234375;0.7696533203125;-0.13446044921875;8.121169871156148;12.853747931495032;0.6407242574354151;-0.04296875;0.443359375;0.1650390625;-26.5625;-68.625;-29.3125;
1441975776781453;-0.01605224609375;0.63287353515625;0.76605224609375;-0.11102294921875;8.334220043023919;12.9239336928316;0.5526574737337371;-0.06103515625;0.43505859375;0.0986328125;25.375;-64.25;-75.9375;
1441975776796454;-0.026123046875;0.64520263671875;0.75921630859375;-0.0810546875;8.627712710937818;13.021158218179643;0.45200330264369504;-0.15625;0.51123046875;0.07421875;57.625;-63.5;-118.8125;
1441975776819455;-0.03887939453125;0.657470703125;0.75115966796875;-0.04345703125;9.007253257890886;13.119694133402213;0.3342801874084684;-0.29052734375;0.60400390625;0.04150390625;87.125;-72.875;-157.125;
1441975776842457;-0.05621337890625;0.667724609375;0.7421875;-0.001220703125;9.469336028545161;13.206750871204726;0.22124281822450048;-0.35400390625;0.5703125;-0.0458984375;92.25;-88.75;-199.3125;
1441975776856457;-0.0797119140625;0.677734375;0.7296142578125;0.0433349609375;10.008307266993572;13.30039295011188;0.1304481239014859;-0.3603515625;0.56591796875;-0.001953125;90.6875;-85.9375;-237.5625;
1441975776879459;-0.10882568359375;0.68597412109375;0.71343994140625;0.09197998046875;10.635048143067799;13.395309249461468;0.053925882633148646;-0.4072265625;0.49462890625;-0.03271484375;104.0;-67.375;-271.1875;
1441975776900460;-0.14093017578125;0.69061279296875;0.6942138671875;0.14556884765625;11.337593247279386;13.480287042951495;17.97672998884279;-0.52880859375;0.4619140625;-0.06689453125;110.9375;-58.625;-310.8125;
1441975776916461;-0.17303466796875;0.68804931640625;0.6759033203125;0.199462890625;12.055720417126881;13.522363790722315;17.895105520221584;-0.76025390625;0.6015625;-0.1123046875;109.1875;-65.9375;-345.25;
1441975776939462;-0.20318603515625;0.6793212890625;0.659912109375;0.248291015625;12.727005301803624;13.520268326684313;17.813937309081542;-1.02734375;0.51953125;-0.072265625;78.0625;-73.5625;-348.8125;
1441975776962463;-0.23309326171875;0.67242431640625;0.63800048828125;0.2939453125;13.385088749242518;13.551802168430562;17.754978765443393;-1.13037109375;0.40087890625;0.04736328125;43.75;-69.625;-324.375;
1441975776976464;-0.26361083984375;0.666015625;0.60858154296875;0.3414306640625;14.086335935467313;13.618591710436412;17.707015578746;-0.9921875;0.365234375;0.10693359375;71.375;-47.6875;-320.75;
1441975777005466;-0.2935791015625;0.6529541015625;0.58203125;0.38555908203125;14.770282019397172;13.634749014330456;17.648301429783828;-1.16650390625;0.43212890625;-0.12744140625;100.75;-44.25;-342.875;
1441975777022467;-0.3243408203125;0.63092041015625;0.5621337890625;0.42498779296875;15.429419161558279;13.543918961465085;17.545391113268202;-1.396484375;0.38720703125;-0.28857421875;61.125;-53.25;-333.4375;
1441975777037468;-0.35321044921875;0.60760498046875;0.5401611328125;0.46282958984375;16.074937610472745;13.39531942393307;17.380115597306123;-1.390625;0.28125;-0.2626953125;-3.0;-63.9375;-322.1875;
1441975777059469;-0.37579345703125;0.5880126953125;0.51348876953125;0.49920654296875;16.669272207656572;13.176934512051597;17.10505186478936;-1.423828125;0.00927734375;-0.14990234375;3.3125;-62.4375;-315.5;
1441975777082470;-0.39410400390625;0.56939697265625;0.48583984375;0.53326416015625;17.200425053591665;12.645396192716559;16.504447235606925;-1.470703125;0.04052734375;-0.10107421875;45.3125;-57.375;-297.0625;
1441975777096471;-0.409423828125;0.55010986328125;0.45751953125;0.5660400390625;17.58937409778388;10.691837337016235;14.475581249305128;-1.4765625;0.19287109375;-0.1484375;58.75;-58.4375;-281.5625;
1441975777119472;-0.41986083984375;0.53271484375;0.42633056640625;0.59844970703125;17.464583554828042;7.441096913477363;11.121006649459119;-1.54931640625;0.162109375;-0.12646484375;65.4375;-62.875;-273.3125;
1441975777142474;-0.42791748046875;0.5159912109375;0.39434814453125;0.62847900390625;17.047642937276635;6.3843727075517345;9.953977652169684;-1.55419921875;0.32470703125;-0.14990234375;94.5625;-62.75;-267.0;
1441975777163475;-0.4359130859375;0.49676513671875;0.36456298828125;0.65594482421875;16.582913037104156;6.053954382042001;9.531680664711057;-1.515625;0.43408203125;-0.30419921875;101.0625;-60.3125;-259.375;
1441975777179476;-0.4405517578125;0.4776611328125;0.3348388671875;0.682373046875;16.124776809319663;5.946433294360495;9.322391221515328;-1.431640625;0.3447265625;-0.306640625;83.375;-67.5;-251.25;
1441975777202477;-0.4403076171875;0.4600830078125;0.30401611328125;0.70849609375;15.688382803602432;5.937684076998445;9.18718441114913;-1.30859375;0.3232421875;-0.19921875;93.4375;-69.875;-240.1875;
1441975777223478;-0.4384765625;0.442626953125;0.27484130859375;0.7322998046875;15.278680061307977;5.9637695840341465;9.090034014994437;-1.15087890625;0.37939453125;-0.15966796875;117.1875;-68.75;-227.4375;
1441975777239479;-0.43634033203125;0.4241943359375;0.24822998046875;0.753662109375;14.88769812402012;6.00552693532996;9.022042890810283;-1.06396484375;0.41357421875;-0.19140625;113.8125;-70.125;-213.125;
1441975777262481;-0.43310546875;0.40643310546875;0.22406005859375;0.77264404296875;14.530368620116256;6.057373508669236;8.97070998531992;-0.99658203125;0.3623046875;-0.16015625;100.5;-74.75;-199.5625;
1441975777283482;-0.42987060546875;0.3902587890625;0.20330810546875;0.78839111328125;14.22001877573684;6.105619512068327;8.930118833003862;-0.85009765625;0.36962890625;-0.1337890625;94.25;-73.1875;-180.4375;
1441975777307483;-0.42706298828125;0.37603759765625;0.1864013671875;0.80084228515625;13.960497393898393;6.146803458992451;8.899941476835082;-0.74462890625;0.41552734375;-0.18310546875;80.3125;-67.5625;-157.375;
1441975777322484;-0.424072265625;0.3646240234375;0.17303466796875;0.8106689453125;13.756143286457965;6.184801338419552;8.878083446945432;-0.74951171875;0.40185546875;-0.177734375;63.625;-60.5;-132.0625;
1441975777343485;-0.41912841796875;0.3599853515625;0.16571044921875;0.81683349609375;13.663976568200509;6.227832229135891;8.870413300220859;-0.75244140625;0.49609375;-0.1611328125;52.75;-50.75;-107.125;
1441975777367487;-0.4188232421875;0.35565185546875;0.16229248046875;0.819580078125;13.596777124659233;6.237423853009644;8.868520544834261;-0.5439453125;0.57763671875;-0.20068359375;40.9375;-45.625;-91.375;
1441975777382487;-0.4197998046875;0.3560791015625;0.16375732421875;0.818603515625;13.609578545517499;6.230746600195036;8.872466666210094;-0.42919921875;0.47802734375;-0.16845703125;4.5;-37.875;-68.8125;
1441975777403489;-0.41851806640625;0.363037109375;0.1688232421875;0.815185546875;13.715613725394338;6.22972887468384;8.87934391420568;-0.525390625;0.3720703125;-0.05126953125;-17.5;-15.875;-32.4375;
1441975777419490;-0.41424560546875;0.37615966796875;0.17779541015625;0.8094482421875;13.914182007302573;6.2421342115378575;8.895688980406883;-0.69775390625;0.2431640625;-0.0390625;-11.125;5.5;6.875;
1441975777442491;-0.4068603515625;0.3951416015625;0.19140625;0.801025390625;14.207606261927403;6.27336801056773;8.93057473788278;-0.771484375;0.2060546875;-0.08154296875;-2.25;23.25;48.3125;
1441975777463492;-0.4031982421875;0.412353515625;0.20782470703125;0.7900390625;14.500229788151358;6.28547140391309;8.979314320574197;-0.76806640625;0.3427734375;-0.1494140625;1.1875;39.0;87.25;
1441975777479493;-0.4013671875;0.4334716796875;0.2305908203125;0.77313232421875;14.880964867818683;6.283207806022736;9.04753459039974;-0.77880859375;0.380859375;-0.16455078125;-27.8125;54.875;124.125;
1441975777502494;-0.39520263671875;0.46014404296875;0.2576904296875;0.7520751953125;15.361914154740491;6.323546523806904;9.154206975898932;-0.99169921875;0.24951171875;-0.14599609375;-59.5625;73.1875;165.625;
1441975777523496;-0.38165283203125;0.49249267578125;0.28851318359375;0.72698974609375;15.944469311145493;6.477329756947496;9.356427264166697;-1.33447265625;0.1728515625;-0.01318359375;-54.1875;93.6875;213.75;
1441975777539496;-0.36712646484375;0.52557373046875;0.3233642578125;0.69598388671875;16.57066157183275;6.805994222081968;9.753743485047984;-1.7275390625;0.27880859375;-0.06591796875;-32.5;107.8125;266.4375;
1441975777562498;-0.35296630859375;0.55816650390625;0.36346435546875;0.65704345703125;17.19362560778063;7.7769474078059995;10.829107671279687;-1.96044921875;0.22900390625;-0.07958984375;-51.5;117.8125;300.5625;
1441975777583499;-0.33392333984375;0.58953857421875;0.40728759765625;0.61236572265625;17.37710279281579;11.052727710206852;14.21892929689732;-2.1376953125;0.11328125;0.01806640625;-85.9375;132.375;340.0;
1441975777607500;-0.30462646484375;0.6199951171875;0.45220947265625;0.56414794921875;16.718699534674784;12.907143614330462;16.165580334467457;-2.51708984375;-0.1787109375;0.0703125;-93.875;133.0;383.3125;
1441975777622501;-0.264404296875;0.65338134765625;0.48834228515625;0.514404296875;15.851769012598487;13.450919927539784;16.7314748607259;-2.9287109375;-0.513671875;0.1748046875;-70.1875;115.75;428.5625;
1441975777643502;-0.2264404296875;0.68023681640625;0.5235595703125;0.46014404296875;14.968439793602123;13.65987490216164;16.993066929393834;-2.90185546875;-0.17578125;0.21826171875;1.1875;117.6875;448.5;
1441975777659503;-0.19830322265625;0.6951904296875;0.561279296875;0.40283203125;14.15137926814305;13.708759724984978;17.176204395888693;-2.46875;0.33837890625;0.181640625;-27.125;123.25;439.6875;
1441975777689505;-0.17193603515625;0.69976806640625;0.59942626953125;0.34844970703125;13.393303982810083;13.653265735919044;17.28812589486278;-2.4287109375;0.5458984375;-0.00927734375;-102.625;129.75;401.875;
1441975777703506;-0.1611328125;0.6925048828125;0.64111328125;0.2886962890625;12.73381166246061;13.540199015307158;17.46719834049433;-2.40576171875;0.58642578125;0.205078125;-138.6875;99.3125;373.875;
1441975777719507;-0.160400390625;0.666748046875;0.68853759765625;0.23577880859375;12.236538394215156;13.298377927468124;17.623127002946067;-2.30322265625;0.79150390625;0.17919921875;-229.875;147.125;325.375;
1441975777742508;-0.1624755859375;0.635009765625;0.7303466796875;0.1920166015625;11.876602860376359;13.038335775583503;17.757424227915816;-2.2265625;0.1181640625;-0.1201171875;-331.4375;121.1875;252.8125;
