1441976002781380;0.13385009765625;-0.71832275390625;-0.68267822265625;-0.0096435546875;10.13381141755099;13.698133264293295;0.5263104631858866;-0.32373046875;0.60791015625;-0.1806640625;-73.75;-10.4375;-80.875;
1441976002803381;0.14251708984375;-0.7138671875;-0.6851806640625;-0.02490234375;10.334720812140189;13.676252653920475;0.5011715838844562;-0.35546875;0.615234375;-0.15966796875;-51.1875;-24.75;-88.4375;
1441976002818382;0.14910888671875;-0.7122802734375;-0.684814453125;-0.039794921875;10.512227933345226;13.675237650597287;0.4706601636732297;-0.30859375;0.65283203125;-0.06591796875;-18.3125;-31.125;-88.25;
1441976002841383;0.15374755859375;-0.71124267578125;-0.68389892578125;-0.0533447265625;10.66280954835888;13.676322254253005;0.43740021176527943;-0.2841796875;0.82568359375;-0.02197265625;8.375;-34.0;-82.875;
1441976002863384;0.15728759765625;-0.70953369140625;-0.683837890625;-0.06549072265625;10.794013695848829;13.669474091462249;0.4036852146286672;-0.2626953125;1.0126953125;0.01025390625;15.375;-35.5;-75.9375;
1441976002878385;0.15972900390625;-0.7069091796875;-0.68487548828125;-0.0762939453125;10.906369603628235;13.652694096523287;0.3687129964191534;-0.27392578125;1.0908203125;0.009765625;7.9375;-34.6875;-68.75;
1441976002909387;0.161376953125;-0.702880859375;-0.6875;-0.08563232421875;11.001382735932312;13.622273959982119;0.33340407389674326;-0.25048828125;1.166015625;-4.8828125E-4;-1.5625;-35.6875;-64.625;
1441976002923388;0.16229248046875;-0.69891357421875;-0.6903076171875;-0.0931396484375;11.074748556453589;13.590751182662833;0.3015867683894034;-0.25;1.12841796875;0.02734375;-13.375;-34.125;-56.5;
1441976002938389;0.16265869140625;-0.69512939453125;-0.69317626953125;-0.0994873046875;11.133349425946854;13.559271574443887;0.2716946869360432;-0.263671875;1.1298828125;0.02734375;-16.25;-30.25;-46.5625;
1441976002961390;0.1622314453125;-0.69244384765625;-0.6951904296875;-0.10498046875;11.177172187718151;13.535432216092248;0.24307096092545677;-0.30322265625;1.13623046875;0.02490234375;-17.6875;-27.5625;-37.75;
1441976002983391;0.16070556640625;-0.690673828125;-0.696533203125;-0.1097412109375;11.20516597269674;13.517478075811571;0.21380891046750392;-0.330078125;1.11669921875;-0.00732421875;-12.8125;-26.9375;-28.9375;
1441976002998392;0.15826416015625;-0.690673828125;-0.696533203125;-0.113525390625;11.216304835326724;13.51246888162911;0.1871625343959991;-0.33251953125;1.0771484375;-0.005859375;-7.0625;-27.25;-20.6875;
1441976003021393;0.15521240234375;-0.69244384765625;-0.6949462890625;-0.116455078125;11.21464354876684;13.521826329345883;0.16428812334254927;-0.3232421875;1.029296875;9.765625E-4;5.625;-24.75;-12.0625;
1441976003043395;0.15203857421875;-0.6943359375;-0.693359375;-0.1187744140625;11.207043453621798;13.532035268943805;0.14356376842380078;-0.34521484375;1.05224609375;-0.03125;16.375;-21.8125;-4.4375;
1441976003058395;0.14947509765625;-0.6954345703125;-0.69256591796875;-0.1204833984375;11.19976443804615;13.536480242156397;0.12674885001442857;-0.34716796875;1.06689453125;-0.05078125;15.5;-20.25;-1.8125;
1441976003081397;0.1470947265625;-0.6954345703125;-0.6927490234375;-0.12200927734375;11.1930299018907;13.532359666810768;0.10979593819064938;-0.36181640625;1.04296875;-0.06298828125;7.5;-17.0;0.125;
1441976003103398;0.14556884765625;-0.6947021484375;-0.69354248046875;-0.123291015625;11.191410765453384;13.523466795819267;0.09648066909002016;-0.36962890625;1.02978515625;-0.04541015625;-0.0625;-16.4375;0.625;
1441976003118399;0.14459228515625;-0.694091796875;-0.6942138671875;-0.1243896484375;11.192565632125369;13.516256995007586;0.08652008982035007;-0.396484375;0.953125;-0.03173828125;-5.5;-13.125;1.6875;
1441976003141400;0.14422607421875;-0.69378662109375;-0.6944580078125;-0.1253662109375;11.197637096873;13.512826299133257;0.0803242788736884;-0.41064453125;0.9296875;-0.013671875;-4.0625;-9.5;1.9375;
1441976003163401;0.14434814453125;-0.6937255859375;-0.6942138671875;-0.1265869140625;11.208809941186692;13.51278184803506;0.07581119794966241;-0.43212890625;0.89404296875;-0.01220703125;-1.625;-5.9375;1.75;
1441976003178402;0.14520263671875;-0.69427490234375;-0.6932373046875;-0.12811279296875;11.228263711477734;13.518916694218534;0.07429253786590224;-0.45751953125;0.84765625;0.00341796875;2.0;-4.0625;1.8125;
1441976003201404;0.1470947265625;-0.69500732421875;-0.6917724609375;-0.12982177734375;11.257780027813578;13.52875672481167;0.07710112481042752;-0.48876953125;0.7685546875;0.00439453125;7.375;-1.125;1.625;
1441976003223405;0.15032958984375;-0.6964111328125;-0.68927001953125;-0.1319580078125;11.301629102016928;13.54693953355055;0.08551631972651064;-0.533203125;0.67138671875;0.03076171875;11.1875;3.5625;1.6875;
1441976003241406;0.15533447265625;-0.69805908203125;-0.68597412109375;-0.1346435546875;11.36436600102007;13.571070622211543;0.1005256619228891;-0.580078125;0.59375;0.02783203125;17.1875;8.75;-0.9375;
1441976003261407;0.1624755859375;-0.69989013671875;-0.6817626953125;-0.13800048828125;11.449872737248587;13.602014905323745;0.1236358515699818;-0.6171875;0.4873046875;0.0185546875;20.125;14.5;-5.75;
1441976003292409;0.1722412109375;-0.69873046875;-0.679443359375;-0.14324951171875;11.573554489846682;13.613646058967207;0.146475815873307;-0.65771484375;0.5419921875;-0.03759765625;20.4375;20.125;-17.25;
1441976003298409;0.18475341796875;-0.6951904296875;-0.67816162109375;-0.1507568359375;11.739806208705884;13.612289391000074;0.16917810904319386;-0.67333984375;0.5615234375;4.8828125E-4;3.625;20.125;-37.1875;
1441976003321410;0.2008056640625;-0.68768310546875;-0.6790771484375;-0.16021728515625;11.95418844495587;13.586992740445275;0.1930389468024772;-0.66650390625;0.6591796875;-0.076171875;-14.625;16.25;-63.6875;
1441976003343412;0.21826171875;-0.677734375;-0.68133544921875;-0.17010498046875;12.186568379105719;13.546574549453592;0.2162309241188765;-0.68701171875;0.6455078125;-0.09326171875;-41.0625;15.375;-88.4375;
1441976003358413;0.23846435546875;-0.66558837890625;-0.68365478515625;-0.18109130859375;12.454756320336852;13.498939957885993;0.2431590416735781;-0.740234375;0.59814453125;-0.15673828125;-54.375;16.0;-110.9375;
1441976003381414;0.261474609375;-0.652587890625;-0.6845703125;-0.19293212890625;12.757109150139593;13.458005164349519;0.27915565369676265;-0.76953125;0.54150390625;-0.1591796875;-64.75;20.0625;-128.9375;
1441976003403415;0.28570556640625;-0.6407470703125;-0.68231201171875;-0.20574951171875;13.080628776247417;13.440585990135242;0.3237330970231378;-0.78173828125;0.41357421875;-0.14697265625;-64.25;28.5;-144.4375;
1441976003418416;0.31036376953125;-0.62994384765625;-0.67706298828125;-0.22027587890625;13.424526378649297;13.444890763534431;0.3718947610893292;-0.841796875;0.39453125;-0.11376953125;-47.0625;35.9375;-154.6875;
1441976003441417;0.3350830078125;-0.61724853515625;-0.67138671875;-0.23651123046875;13.78962727014949;13.442648422650764;0.4119486084519489;-0.9130859375;0.49853515625;-0.13720703125;-30.4375;37.25;-166.0;
1441976003463419;0.35992431640625;-0.6019287109375;-0.66607666015625;-0.25408935546875;14.174809897864579;13.424315873056122;0.4404078398900447;-1.00439453125;0.59033203125;-0.12890625;-32.6875;29.5;-178.1875;
1441976003481420;0.38409423828125;-0.58642578125;-0.6588134765625;-0.273193359375;14.57338420019494;13.412244084226943;0.46253075814639283;-1.01611328125;0.5009765625;-0.107421875;-41.5;21.0625;-188.25;
1441976003501421;0.40765380859375;-0.57171630859375;-0.64874267578125;-0.2935791015625;14.982896450337684;13.420112422309417;0.48801847834823614;-0.9990234375;0.44873046875;-0.06201171875;-30.75;17.625;-195.4375;
1441976003523422;0.430419921875;-0.557861328125;-0.63653564453125;-0.3135986328125;15.387704651867935;13.454119574357964;0.5300191285602951;-0.994140625;0.3798828125;-0.06005859375;-14.3125;18.5625;-201.5625;
1441976003539423;0.45184326171875;-0.544189453125;-0.623291015625;-0.33355712890625;15.785667244952405;13.504198586231155;0.5813563240575171;-1.0771484375;0.38623046875;-0.08154296875;-3.75;22.75;-199.75;
1441976003561424;0.47174072265625;-0.5311279296875;-0.60906982421875;-0.352783203125;16.16838302435834;13.584003064146891;0.6562959625698584;-1.1513671875;0.33154296875;-0.02880859375;3.0;22.25;-196.5625;
1441976003583425;0.489013671875;-0.51959228515625;-0.5936279296875;-0.37225341796875;16.531849999535776;13.70524560673381;0.7571845296282949;-1.18310546875;0.31689453125;0.001953125;9.5625;23.0;-190.5;
1441976003606427;0.50335693359375;-0.5096435546875;-0.576904296875;-0.39263916015625;16.87844645050353;13.885862081169387;0.898847194532507;-1.21826171875;0.330078125;0.0439453125;24.75;20.625;-183.4375;
1441976003621428;0.5157470703125;-0.501220703125;-0.55902099609375;-0.41265869140625;17.200665363336714;14.216659338392507;1.179195225149258;-1.234375;0.31494140625;0.015625;42.5;14.4375;-176.875;
1441976003643429;0.52667236328125;-0.494140625;-0.5399169921875;-0.432373046875;17.487963621984925;14.943868071665506;1.845882946064617;-1.2646484375;0.27685546875;-0.03076171875;54.3125;15.375;-168.8125;
1441976003666430;0.53662109375;-0.48748779296875;-0.5205078125;-0.45111083984375;17.677583921201766;16.774608675044693;3.6145005651100437;-1.2822265625;0.31640625;-0.03466796875;64.8125;18.5;-164.4375;
1441976003681431;0.5462646484375;-0.48004150390625;-0.5020751953125;-0.46820068359375;17.62926860391567;1.356477703232024;6.143486968382522;-1.255859375;0.3857421875;-0.02734375;66.75;20.5;-160.8125;
1441976003703432;0.55511474609375;-0.471923828125;-0.48486328125;-0.48382568359375;17.422419919290665;2.609946313272327;7.351616385108824;-1.201171875;0.4208984375;-0.03759765625;57.25;19.0;-156.25;
1441976003725434;0.56207275390625;-0.4647216796875;-0.46820068359375;-0.49896240234375;17.18970005021499;3.156360165403953;7.847631623692344;-1.15283203125;0.36865234375;-0.01513671875;49.6875;15.75;-148.75;
1441976003741434;0.567626953125;-0.45819091796875;-0.45263671875;-0.512939453125;16.966699931612496;3.452322097026902;8.09365825055326;-1.09326171875;0.34814453125;0.0087890625;54.25;12.6875;-138.4375;
1441976003771436;0.5733642578125;-0.451416015625;-0.4395751953125;-0.52374267578125;16.76530359558092;3.6153532678818117;8.224222021549863;-1.02001953125;0.40234375;0.00537109375;53.375;10.3125;-127.625;
1441976003786437;0.5780029296875;-0.44671630859375;-0.433837890625;-0.5274658203125;16.658078344851948;3.6583846101019675;8.26701505348041;-0.94921875;0.4326171875;0.0146484375;35.5;10.5;-114.0625;
1441976003801438;0.5853271484375;-0.440673828125;-0.43194580078125;-0.5260009765625;16.57416786601628;3.631328053382235;8.277422214142522;-0.87548828125;0.44970703125;0.03515625;2.75;13.1875;-98.3125;
1441976003823439;0.59423828125;-0.43389892578125;-0.43280029296875;-0.52093505859375;16.509754750281257;3.562197595746623;8.270848212807383;-0.81103515625;0.421875;0.052734375;-35.8125;17.375;-82.875;
1441976003846440;0.60345458984375;-0.4271240234375;-0.43597412109375;-0.51324462890625;16.46954756301814;3.4674188698468553;8.25386201821138;-0.7685546875;0.34716796875;0.080078125;-62.3125;21.1875;-66.9375;
1441976003861441;0.61151123046875;-0.42169189453125;-0.44049072265625;-0.50421142578125;16.45672897278058;3.355500650083423;8.220288324221325;-0.7568359375;0.271484375;0.10205078125;-78.3125;22.125;-48.9375;
1441976003883443;0.6160888671875;-0.41943359375;-0.4456787109375;-0.49591064453125;16.482116389363174;3.2467073976126257;8.170262179143396;-0.74560546875;0.189453125;0.08837890625;-79.875;21.6875;-28.5;
1441976003906444;0.61651611328125;-0.42095947265625;-0.4512939453125;-0.4888916015625;16.54859537452745;3.1391854653951086;8.095846657749979;-0.7529296875;0.16357421875;0.07861328125;-60.5625;17.9375;-6.625;
1441976003920445;0.61297607421875;-0.42578125;-0.45782470703125;-0.483154296875;16.65660347999767;3.0309801736113413;7.998396544724418;-0.76611328125;0.1728515625;0.04638671875;-34.9375;11.375;14.4375;
1441976003943446;0.60626220703125;-0.432861328125;-0.46527099609375;-0.47821044921875;16.797775421305992;2.9101500373737563;7.872862820201372;-0.779296875;0.20947265625;0.015625;-12.5625;2.3125;33.3125;
1441976003966447;0.59637451171875;-0.442138671875;-0.4730224609375;-0.47454833984375;16.96521719889552;2.7662206319609695;7.705902659953766;-0.798828125;0.21240234375;-0.01806640625;3.75;-7.1875;50.4375;
1441976003980448;0.58343505859375;-0.45355224609375;-0.48077392578125;-0.47198486328125;17.15409069123008;2.559610632178385;7.458278919632115;-0.814453125;0.19384765625;-0.05615234375;21.625;-16.75;65.75;
1441976004003449;0.56768798828125;-0.467041015625;-0.48822021484375;-0.470458984375;17.355177459266137;2.2031724341741237;7.043109233417562;-0.82763671875;0.1923828125;-0.08740234375;39.875;-24.6875;80.0625;
1441976004026451;0.54998779296875;-0.4805908203125;-0.49468994140625;-0.4710693359375;17.545234838720607;1.628129189459839;6.394900805487031;-0.84521484375;0.18359375;-0.11083984375;56.8125;-30.6875;92.75;
1441976004041452;0.52984619140625;-0.49554443359375;-0.50091552734375;-0.47198486328125;17.69764572788475;0.20150346804573682;4.8827454585734245;-0.85546875;0.16748046875;-0.12646484375;70.875;-36.75;103.75;
1441976004063453;0.5079345703125;-0.51141357421875;-0.5068359375;-0.47296142578125;17.68828070356151;15.78827524056918;2.3753824635924774;-0.87255859375;0.18994140625;-0.13427734375;82.75;-40.4375;113.3125;
1441976004085454;0.4849853515625;-0.52740478515625;-0.512451171875;-0.47344970703125;17.509306174321047;14.405982115945802;0.8961819921714475;-0.90576171875;0.21630859375;-0.1396484375;91.0;-42.625;120.3125;
1441976004101455;0.4613037109375;-0.54364013671875;-0.5174560546875;-0.47320556640625;17.26962521693582;13.876527603134768;0.2671924349083241;-0.95263671875;0.21240234375;-0.14208984375;93.625;-42.9375;125.125;
1441976004124456;0.43707275390625;-0.56060791015625;-0.5213623046875;-0.47210693359375;17.008460991203687;13.676631046957201;17.962988389026258;-1.00927734375;0.19091796875;-0.12158203125;95.875;-40.375;129.8125;
1441976004146458;0.4129638671875;-0.57818603515625;-0.52423095703125;-0.469482421875;16.73706410466179;13.625900312731211;17.807331823496494;-1.04345703125;0.18603515625;-0.0849609375;100.625;-34.1875;134.1875;
1441976004161458;0.389892578125;-0.5958251953125;-0.5262451171875;-0.46478271484375;16.463018355376253;13.652118289368222;17.7341159559139;-1.060546875;0.2080078125;-0.05712890625;102.0625;-23.9375;137.5;
1441976004183460;0.36907958984375;-0.61236572265625;-0.52880859375;-0.45745849609375;16.189640824098444;13.705787953051892;17.70641355446955;-1.072265625;0.24267578125;-0.02783203125;97.0625;-11.3125;138.6875;
1441976004206461;0.3505859375;-0.62725830078125;-0.531982421875;-0.447998046875;15.922260357098112;13.764077357961167;17.701985785860487;-1.07763671875;0.31689453125;-0.0078125;80.3125;0.9375;137.625;
1441976004221462;0.3348388671875;-0.64013671875;-0.5362548828125;-0.43670654296875;15.66443852876094;13.815726122447032;17.71277900531135;-1.09326171875;0.31005859375;0.02685546875;62.625;10.1875;135.0625;
1441976004243463;0.32159423828125;-0.65087890625;-0.5416259765625;-0.42388916015625;15.416758209489839;13.856070345133379;17.73310485209559;-1.08349609375;0.28857421875;0.02294921875;42.125;18.3125;130.5625;
1441976004265464;0.31121826171875;-0.65948486328125;-0.54791259765625;-0.40997314453125;15.185141896546936;13.886701158676797;17.76430722183846;-1.05615234375;0.3232421875;0.021484375;22.1875;24.4375;124.75;
1441976004281465;0.3035888671875;-0.66583251953125;-0.5552978515625;-0.39520263671875;14.97013585879212;13.904253242788322;17.80320094247548;-1.025390625;0.3203125;-0.00732421875;3.0625;29.875;116.6875;
1441976004303467;0.3001708984375;-0.66925048828125;-0.5626220703125;-0.3814697265625;14.802843139975522;13.912238982674474;17.85133254810339;-0.994140625;0.3251953125;-0.044921875;-16.4375;34.1875;107.375;
1441976004326468;0.29913330078125;-0.67071533203125;-0.5703125;-0.3681640625;14.661040620303833;13.910182736721865;17.90280376748184;-0.97705078125;0.3173828125;-0.07470703125;-34.125;37.125;96.5;
1441976004340469;0.2999267578125;-0.67071533203125;-0.5777587890625;-0.3555908203125;14.543846555927619;13.903101971567867;17.956771145506035;-0.96240234375;0.30712890625;-0.09521484375;-47.3125;37.625;84.9375;
1441976004363470;0.30206298828125;-0.669677734375;-0.584716796875;-0.34423828125;14.450984789952427;13.89257460237954;0.009897130380268638;-0.93505859375;0.30224609375;-0.119140625;-55.0;36.625;73.125;
1441976004386471;0.30511474609375;-0.6680908203125;-0.59063720703125;-0.33441162109375;14.381927845993063;13.883288795425619;0.06141850219848043;-0.91357421875;0.30029296875;-0.13427734375;-57.625;34.125;61.4375;
1441976004401472;0.30877685546875;-0.66619873046875;-0.5953369140625;-0.32635498046875;14.336074783861049;13.876587806027175;0.1096159884868528;-0.8818359375;0.29736328125;-0.14404296875;-55.1875;31.3125;49.5625;
1441976004423473;0.31298828125;-0.664306640625;-0.5986328125;-0.32012939453125;14.312733680271824;13.875441094348847;0.1555141942595244;-0.8583984375;0.29638671875;-0.14111328125;-49.5;28.25;37.875;
1441976004446475;0.3177490234375;-0.6622314453125;-0.60064697265625;-0.31585693359375;14.31305713361575;13.87814575282587;0.1978651826567513;-0.83349609375;0.30322265625;-0.1533203125;-42.5;25.0;25.875;
1441976004461476;0.32318115234375;-0.65997314453125;-0.60150146484375;-0.31353759765625;14.33737276381226;13.884786489645956;0.23743434290554294;-0.806640625;0.3046875;-0.1396484375;-35.4375;21.75;13.1875;
1441976004483477;0.3294677734375;-0.6572265625;-0.60125732421875;-0.313232421875;14.388364492780054;13.894252042196337;0.27452388661541277;-0.80126953125;0.31591796875;-0.14013671875;-28.9375;18.4375;-0.125;
1441976004505478;0.33642578125;-0.65386962890625;-0.60028076171875;-0.314697265625;14.46230690396271;13.903866408128131;0.3080642246510436;-0.80224609375;0.31982421875;-0.13623046875;-24.25;15.1875;-13.1875;
1441976004523479;0.343994140625;-0.64996337890625;-0.59857177734375;-0.31781005859375;14.557609064996207;13.914388504209157;0.33878933585645976;-0.79833984375;0.31689453125;-0.12353515625;-20.9375;11.875;-25.4375;
1441976004543480;0.35205078125;-0.64556884765625;-0.59619140625;-0.32244873046875;14.672092474229618;13.925878673124982;0.36675275389713696;-0.80126953125;0.31396484375;-0.109375;-17.125;8.8125;-36.5;
1441976004565482;0.3604736328125;-0.6405029296875;-0.59332275390625;-0.32843017578125;14.803856045031292;13.93615302016668;0.39104775770252775;-0.8154296875;0.31884765625;-0.10302734375;-13.875;5.625;-46.625;
1441976004582483;0.369384765625;-0.63482666015625;-0.5899658203125;-0.33551025390625;14.951525961220398;13.94689313372109;0.41427316635085465;-0.83837890625;0.32861328125;-0.0908203125;-11.5;2.5625;-56.0625;
1441976004603484;0.37872314453125;-0.62823486328125;-0.58648681640625;-0.343505859375;15.113656384296734;13.953767861708707;0.4344496793339114;-0.86474609375;0.3388671875;-0.0947265625;-10.875;-0.3125;-64.8125;
1441976004625485;0.38824462890625;-0.6209716796875;-0.5828857421875;-0.35211181640625;15.285287573012834;13.957744871857606;0.4519890348272502;-0.8994140625;0.3359375;-0.080078125;-11.5;-2.875;-72.25;
1441976004642486;0.39794921875;-0.61297607421875;-0.5792236328125;-0.36114501953125;15.46519046873579;13.958154472812462;0.46711533186754156;-0.923828125;0.3388671875;-0.0693359375;-11.9375;-5.1875;-78.25;
1441976004663487;0.4078369140625;-0.604248046875;-0.5758056640625;-0.3702392578125;15.649606471392586;13.953088755212793;0.4798773104840588;-0.95263671875;0.3388671875;-0.060546875;-13.375;-6.875;-82.875;
1441976004685488;0.41766357421875;-0.5948486328125;-0.572509765625;-0.37939453125;15.83728375777315;13.94153464839178;0.487996884404278;-0.98486328125;0.3251953125;-0.04296875;-16.375;-8.125;-85.75;
1441976004702489;0.4271240234375;-0.58538818359375;-0.56927490234375;-0.38836669921875;16.021622547272976;13.9265536247269;0.49240386252299906;-1.00341796875;0.28955078125;-0.01806640625;-18.5;-8.5625;-86.5;
1441976004723491;0.43603515625;-0.57635498046875;-0.56597900390625;-0.39678955078125;16.196638835486162;13.913547365563057;0.4972869719714111;-1.01025390625;0.26171875;9.765625E-4;-18.0;-8.8125;-84.9375;
1441976004746492;0.4444580078125;-0.567626953125;-0.56292724609375;-0.40423583984375;16.35910562135106;13.90136151104095;0.5041818020893196;-1.00341796875;0.2490234375;0.01416015625;-16.75;-7.125;-81.75;
1441976004762493;0.45245361328125;-0.5594482421875;-0.56011962890625;-0.41064453125;16.507582336240027;13.894259171057985;0.517001942791798;-1.001953125;0.24072265625;0.033203125;-17.375;-4.5;-77.5625;
1441976004783494;0.46014404296875;-0.5517578125;-0.5577392578125;-0.415771484375;16.640607442720082;13.894038868714322;0.5393211923442496;-0.998046875;0.2412109375;0.0361328125;-18.125;-1.75;-72.5625;
1441976004805495;0.46685791015625;-0.54522705078125;-0.55535888671875;-0.4200439453125;16.755381438845298;13.904977630463328;0.5690974629868257;-0.9970703125;0.2294921875;0.0400390625;-20.4375;1.25;-66.125;
1441976004822496;0.47247314453125;-0.53997802734375;-0.55322265625;-0.42333984375;16.84861955084814;13.925428433740551;0.6050562131360562;-0.9853515625;0.2314453125;0.0400390625;-16.875;3.3125;-58.9375;
1441976004843498;0.4771728515625;-0.53564453125;-0.55169677734375;-0.42547607421875;16.920672604059018;13.94867845563691;0.6436660676166186;-0.9892578125;0.25830078125;0.0322265625;-13.8125;4.875;-51.3125;
1441976004865499;0.4832763671875;-0.53021240234375;-0.5511474609375;-0.42620849609375;16.992454668156586;13.981425117524818;0.7057999138736375;-0.98974609375;0.30517578125;0.0185546875;-14.0;5.4375;-44.875;
1441976004882500;0.48822021484375;-0.525634765625;-0.55126953125;-0.426025390625;17.04369578785532;14.007095726918374;0.7596635958561003;-1.01513671875;0.22412109375;-0.01123046875;-28.0;6.6875;-40.6875;
1441976004903501;0.49200439453125;-0.52215576171875;-0.55126953125;-0.42596435546875;17.08356688730893;14.031321308072714;0.8048868598138521;-0.97509765625;0.25732421875;-0.0078125;-27.0;5.875;-33.5625;
1441976004925502;0.4945068359375;-0.51983642578125;-0.5511474609375;-0.426025390625;17.111178487134566;14.050445321864803;0.8373076584560011;-0.96630859375;0.25634765625;-0.0068359375;-19.9375;5.0;-28.0;
1441976004942503;0.49560546875;-0.51885986328125;-0.55096435546875;-0.42620849609375;17.12463310231145;14.06121674452556;0.8529654393208169;-0.95849609375;0.24462890625;-0.02001953125;-12.375;3.0625;-21.5;
1441976004963504;0.49542236328125;-0.5189208984375;-0.5506591796875;-0.4267578125;17.128553494498163;14.058918303386193;0.8474968751152625;-0.94482421875;0.2568359375;-0.025390625;-4.625;1.1875;-15.25;
1441976004986506;0.49407958984375;-0.51983642578125;-0.55047607421875;-0.42742919921875;17.12197634380395;14.040387352590892;0.8200249842682763;-0.93505859375;0.259765625;-0.02197265625;3.375;-0.9375;-9.9375;
1441976005002507;0.49188232421875;-0.52130126953125;-0.550537109375;-0.4281005859375;17.1068267631827;14.007122655061568;0.7744983185313388;-0.92529296875;0.2685546875;-0.03662109375;8.875;-3.875;-5.0625;
1441976005023508;0.48919677734375;-0.52294921875;-0.5509033203125;-0.4287109375;17.08633456081097;13.962054132815904;0.7162970362770797;-0.92822265625;0.2763671875;-0.0380859375;11.6875;-6.375;-0.625;
1441976005046509;0.4859619140625;-0.5247802734375;-0.55157470703125;-0.42926025390625;17.059979951911682;13.905704640555005;0.6457743685454238;-0.92724609375;0.267578125;-0.04052734375;12.5625;-8.4375;3.375;
1441976005062510;0.48211669921875;-0.52716064453125;-0.55230712890625;-0.42974853515625;17.0259822068977;13.8498070833404;0.5727241465065025;-0.92822265625;0.25146484375;-0.03125;13.1875;-9.8125;7.75;
1441976005083511;0.47772216796875;-0.530029296875;-0.5531005859375;-0.43017578125;16.98498355720221;13.79599492501717;0.4991261603679781;-0.93603515625;0.24658203125;-0.03125;16.125;-10.8125;12.25;
1441976005106513;0.47296142578125;-0.533203125;-0.553955078125;-0.4302978515625;16.93737240728916;13.74849640921554;0.4309814123607094;-0.93310546875;0.2451171875;-0.02490234375;18.5625;-10.8125;16.4375;
1441976005122513;0.468017578125;-0.5367431640625;-0.55499267578125;-0.4300537109375;16.88293505361224;13.709713439691953;0.37153479861932376;-0.9404296875;0.236328125;-0.02001953125;19.5625;-10.375;20.6875;
1441976005143515;0.462890625;-0.54058837890625;-0.55615234375;-0.4293212890625;16.821602232604373;13.680793907062483;0.32230347786506014;-0.935546875;0.236328125;-0.0263671875;19.5625;-9.8125;24.375;
1441976005166516;0.45782470703125;-0.54449462890625;-0.5574951171875;-0.4281005859375;16.75598942523436;13.659735626642375;0.2828577391470569;-0.9326171875;0.23876953125;-0.02294921875;19.1875;-8.5625;28.0625;
1441976005182517;0.45294189453125;-0.54840087890625;-0.55889892578125;-0.4263916015625;16.68780011964708;13.647972980985223;0.2548103869544668;-0.9365234375;0.23681640625;-0.02783203125;17.25;-7.4375;31.0625;
1441976005203518;0.44830322265625;-0.5523681640625;-0.560302734375;-0.42431640625;16.618238048993884;13.645225044650648;0.2373427029532818;-0.94384765625;0.2294921875;-0.0400390625;15.0625;-6.1875;33.625;
1441976005225519;0.44366455078125;-0.55645751953125;-0.56158447265625;-0.422119140625;16.5477565030869;13.647680212968972;0.22470924759673136;-0.955078125;0.22314453125;-0.0439453125;13.875;-4.75;35.6875;
1441976005242520;0.4390869140625;-0.560791015625;-0.56268310546875;-0.41973876953125;16.475950507631286;13.657991587230457;0.21938135341012524;-0.9609375;0.2216796875;-0.05078125;13.9375;-3.625;37.0625;
1441976005263522;0.43463134765625;-0.56512451171875;-0.5635986328125;-0.4173583984375;16.405722681596707;13.671534815595392;0.21708516590942845;-0.9599609375;0.224609375;-0.0537109375;14.5625;-2.375;38.25;
1441976005286523;0.43023681640625;-0.5694580078125;-0.56439208984375;-0.4149169921875;16.335998459536803;13.68711309882393;0.2167997655563996;-0.96435546875;0.224609375;-0.05419921875;14.9375;-1.1875;38.75;
1441976005302524;0.426025390625;-0.57379150390625;-0.56500244140625;-0.41241455078125;16.26777080687183;13.706270214289434;0.2202426100566585;-0.95703125;0.22314453125;-0.05126953125;15.0;0.0;38.8125;
1441976005323525;0.422119140625;-0.57818603515625;-0.5654296875;-0.4097900390625;16.20100775019228;13.730675600299223;0.22943646645815713;-0.93994140625;0.22412109375;-0.04541015625;15.3125;1.6875;38.5625;
1441976005346526;0.418701171875;-0.58233642578125;-0.56573486328125;-0.40692138671875;16.13723159004274;13.758504064821508;0.24450660811068994;-0.9296875;0.23388671875;-0.048828125;15.0625;3.625;37.4375;
1441976005368528;0.4158935546875;-0.58599853515625;-0.566162109375;-0.40386962890625;16.077783709684095;13.785104044652455;0.2624043374396027;-0.91943359375;0.2490234375;-0.0546875;12.8125;5.625;35.5;
1441976005383528;0.4139404296875;-0.58905029296875;-0.5667724609375;-0.400634765625;16.02448865070469;13.81069406663288;0.2846047274200625;-0.919921875;0.2568359375;-0.052734375;8.9375;7.125;32.9375;
1441976005405530;0.41278076171875;-0.5914306640625;-0.56744384765625;-0.3973388671875;15.978634697401347;13.834943532672698;0.3100788123510655;-0.912109375;0.26806640625;-0.06005859375;4.0625;8.5625;29.5625;
1441976005422531;0.412353515625;-0.59320068359375;-0.568115234375;-0.39422607421875;15.941526463578908;13.857397961553701;0.3371396288022971;-0.90966796875;0.2705078125;-0.0625;-0.375;9.5;25.8125;
1441976005444532;0.41259765625;-0.59442138671875;-0.568603515625;-0.39129638671875;15.913177536671263;13.880313243815277;0.3671565373304355;-0.90478515625;0.27099609375;-0.0634765625;-3.9375;10.1875;21.75;
1441976005466533;0.41339111328125;-0.59527587890625;-0.56890869140625;-0.38885498046875;15.894119082382378;13.90294842130825;0.3976132891193882;-0.90673828125;0.26416015625;-0.06591796875;-5.9375;11.0;17.5625;
1441976005482534;0.4146728515625;-0.595703125;-0.56884765625;-0.3868408203125;15.884538963949728;13.926905099667367;0.42975103409185816;-0.908203125;0.26953125;-0.06396484375;-6.5;11.1875;12.9375;
1441976005513536;0.41644287109375;-0.59576416015625;-0.5684814453125;-0.38543701171875;15.885221774705236;13.951478712111678;0.4623284882042188;-0.91796875;0.275390625;-0.06591796875;-6.625;11.125;7.9375;
1441976005525537;0.41864013671875;-0.5953369140625;-0.56793212890625;-0.384521484375;15.895117677448152;13.974980489396692;0.49454257039792393;-0.9208984375;0.28076171875;-0.07373046875;-6.75;10.4375;2.625;
1441976005542537;0.42120361328125;-0.594482421875;-0.56719970703125;-0.384033203125;15.913102439077502;13.998077920581434;0.5268802481910456;-0.9208984375;0.287109375;-0.072265625;-6.9375;9.625;-2.5625;
1441976005564539;0.42431640625;-0.59307861328125;-0.56634521484375;-0.384033203125;15.9411281629709;14.020632911783826;0.5600853374143745;-0.92529296875;0.29443359375;-0.07763671875;-7.6875;8.875;-7.6875;
1441976005585540;0.42779541015625;-0.59112548828125;-0.56561279296875;-0.3843994140625;15.976435841519471;14.039477215502927;0.5915160318990931;-0.91943359375;0.28857421875;-0.0703125;-8.9375;8.375;-12.375;
1441976005608541;0.431640625;-0.588623046875;-0.56488037109375;-0.38494873046875;16.018091034037422;14.057033891681206;0.6237735866558973;-0.92138671875;0.28564453125;-0.06005859375;-10.875;7.875;-16.5;
1441976005624542;0.4356689453125;-0.5858154296875;-0.56414794921875;-0.3857421875;16.064210617095494;14.073589198914826;0.6557159802126921;-0.9140625;0.283203125;-0.0546875;-12.4375;7.375;-19.75;
1441976005645543;0.43975830078125;-0.58282470703125;-0.56341552734375;-0.38677978515625;16.113464740462067;14.089152911045948;0.6866395694342491;-0.91455078125;0.27587890625;-0.0517578125;-13.75;6.8125;-22.1875;
1441976005662544;0.44390869140625;-0.57965087890625;-0.5626220703125;-0.38787841796875;16.16466433766459;14.105465169332248;0.7186496003861611;-0.91796875;0.27099609375;-0.05078125;-13.75;6.0;-23.875;
1441976005685546;0.44793701171875;-0.5765380859375;-0.561767578125;-0.38922119140625;16.216841549606883;14.121950490368222;0.7493871782009334;-0.92822265625;0.2685546875;-0.0546875;-13.625;5.25;-25.125;
1441976005705547;0.45172119140625;-0.5733642578125;-0.5609130859375;-0.39068603515625;16.26899087386196;14.136204681912979;0.777000889981021;-0.93798828125;0.27099609375;-0.05419921875;-12.875;4.4375;-25.8125;
1441976005722548;0.45526123046875;-0.5703125;-0.56005859375;-0.39227294921875;16.32005183800677;14.149545280757549;0.8022695561040283;-0.9453125;0.26904296875;-0.05126953125;-11.75;3.375;-26.0625;
1441976005744549;0.45855712890625;-0.5673828125;-0.55908203125;-0.39410400390625;16.371377726710726;14.162767594988773;0.8252852653426512;-0.95458984375;0.26953125;-0.05126953125;-10.6875;2.4375;-26.0625;
1441976005765550;0.46142578125;-0.56463623046875;-0.5582275390625;-0.39593505859375;16.419064197105516;14.172178139291129;0.8430752729681538;-0.9638671875;0.26513671875;-0.05078125;-8.875;1.3125;-25.625;
1441976005788552;0.46392822265625;-0.56201171875;-0.557373046875;-0.39788818359375;16.4651540228763;14.178477395066087;0.8559915986639406;-0.9658203125;0.27294921875;-0.04736328125;-7.1875;0.3125;-25.0625;
1441976005804552;0.4661865234375;-0.5595703125;-0.55657958984375;-0.3997802734375;16.508262386893346;14.183535748261574;0.8667844488604438;-0.97412109375;0.26806640625;-0.04052734375;-5.8125;-0.25;-23.875;
1441976005825554;0.4681396484375;-0.5572509765625;-0.55596923828125;-0.401611328125;16.548103627137326;14.183940887712778;0.8723957466124489;-0.974609375;0.263671875;-0.03759765625;-5.0;-0.8125;-22.4375;
1441976005842555;0.46966552734375;-0.55535888671875;-0.5552978515625;-0.40338134765625;16.582970751380497;14.184436026276996;0.8756388886782545;-0.96484375;0.25390625;-0.0234375;-4.1875;-1.0;-20.5625;
1441976005864556;0.47076416015625;-0.553955078125;-0.55462646484375;-0.40484619140625;16.610406886566608;14.186173284322335;0.8783854216044378;-0.9541015625;0.24560546875;-0.0224609375;-2.0;-0.75;-18.0;
1441976005885557;0.47161865234375;-0.552978515625;-0.55413818359375;-0.40594482421875;16.630592403026565;14.188445948572976;0.8813148470185983;-0.9423828125;0.2529296875;-0.0205078125;-0.1875;-0.4375;-15.3125;
1441976005909558;0.472412109375;-0.55206298828125;-0.553955078125;-0.40655517578125;16.645371132699278;14.188941198327543;0.8844200653087594;-0.93798828125;0.26171875;-0.029296875;-0.3125;0.0;-12.875;
1441976005924559;0.4730224609375;-0.55126953125;-0.553955078125;-0.40692138671875;16.656059191956114;14.18685766984758;0.8853096894465217;-0.93408203125;0.2626953125;-0.03271484375;-1.75;0.25;-10.375;
1441976005945561;0.4735107421875;-0.55078125;-0.553955078125;-0.406982421875;16.66189805132721;14.188275388873976;0.8893604079941164;-0.93798828125;0.26318359375;-0.03076171875;-2.625;0.5;-8.25;
1441976005962562;0.47381591796875;-0.5504150390625;-0.55413818359375;-0.40679931640625;16.66364743427905;14.18707517813286;0.8911573385735272;-0.9345703125;0.26025390625;-0.05419921875;-2.5;0.1875;-6.25;
1441976005984563;0.473876953125;-0.55023193359375;-0.554443359375;-0.4066162109375;16.66270475630471;14.18231262325957;0.8885059854527068;-0.9296875;0.26318359375;-0.0556640625;-2.5625;-0.125;-4.4375;
1441976006005564;0.47369384765625;-0.5501708984375;-0.55474853515625;-0.40655517578125;16.660783737624755;14.174562977015869;0.8814600607071906;-0.9326171875;0.26318359375;-0.05712890625;-2.1875;-1.0;-2.75;
1441976006022565;0.47320556640625;-0.55035400390625;-0.55499267578125;-0.406494140625;16.65607896770949;14.166119618597039;0.8719737650268725;-0.93017578125;0.25341796875;-0.0595703125;-0.875;-1.75;-1.1875;
1441976006044566;0.47247314453125;-0.5506591796875;-0.5552978515625;-0.40643310546875;16.64923902676209;14.154658302941117;0.8585958518167951;-0.927734375;0.25;-0.0595703125;0.625;-2.4375;0.3125;
1441976006068568;0.47161865234375;-0.5511474609375;-0.5556640625;-0.4063720703125;16.64043706207377;14.142540842624488;0.8438450860002152;-0.92578125;0.2470703125;-0.0595703125;1.625;-2.75;1.875;
1441976006082568;0.4705810546875;-0.5518798828125;-0.55596923828125;-0.4061279296875;16.628013015991776;14.132909017239934;0.8307180112823408;-0.927734375;0.2421875;-0.0576171875;2.25;-2.875;3.5;
1441976006104570;0.469482421875;-0.55267333984375;-0.556396484375;-0.40576171875;16.613553539906427;14.12222307229429;0.8168878737193803;-0.93505859375;0.24560546875;-0.0625;2.8125;-2.875;5.0;
1441976006125571;0.46844482421875;-0.55340576171875;-0.556884765625;-0.40533447265625;16.599075911974147;14.11143776435778;0.8036617186603974;-0.9404296875;0.248046875;-0.0732421875;2.5;-2.875;6.25;
1441976006142572;0.46728515625;-0.55413818359375;-0.557373046875;-0.4049072265625;16.5839791914657;14.09934995712441;0.7887918711878725;-0.9580078125;0.23974609375;-0.0693359375;1.6875;-2.875;7.4375;
1441976006164573;0.466064453125;-0.55517578125;-0.55767822265625;-0.404541015625;16.567758481804326;14.092190500357239;0.7770765207243109;-0.96630859375;0.2294921875;-0.06640625;2.0625;-3.0;8.5625;
1441976006185574;0.46466064453125;-0.55633544921875;-0.55792236328125;-0.4041748046875;16.550078874611405;14.085118295603566;0.7644011400059878;-0.9619140625;0.22216796875;-0.07177734375;3.625;-2.75;9.75;
1441976006202575;0.463134765625;-0.5577392578125;-0.55804443359375;-0.40380859375;16.530702858776294;14.081020712086488;0.7532882441864995;-0.95751953125;0.21630859375;-0.05810546875;5.1875;-2.0;11.0;
1441976006224576;0.46160888671875;-0.55938720703125;-0.55816650390625;-0.40313720703125;16.50752241432963;14.081546290383404;0.7469767537107598;-0.951171875;0.216796875;-0.05517578125;6.3125;-0.875;12.0625;
1441976006245578;0.46026611328125;-0.56097412109375;-0.55828857421875;-0.40228271484375;16.484245939134432;14.084920132706367;0.7447492391423601;-0.95068359375;0.22607421875;-0.05908203125;6.4375;0.1875;12.75;
1441976006262579;0.45916748046875;-0.5623779296875;-0.55853271484375;-0.40118408203125;16.46103792089381;14.08918595874738;0.7457082880571888;-0.9501953125;0.232421875;-0.052734375;5.375;1.4375;13.0625;
1441976006284580;0.45831298828125;-0.5635986328125;-0.5589599609375;-0.39984130859375;16.43768549030691;14.093392154022771;0.7490757484646875;-0.95166015625;0.23095703125;-0.0595703125;2.9375;2.375;13.0;
1441976006305581;0.45782470703125;-0.5648193359375;-0.559326171875;-0.39825439453125;16.414506499282442;14.103919860025108;0.7603476957911485;-0.94482421875;0.234375;-0.05078125;1.0625;3.5;12.75;
1441976006322582;0.4576416015625;-0.565673828125;-0.5596923828125;-0.39666748046875;16.395054138263184;14.114202582836006;0.7733215130610387;-0.93896484375;0.23583984375;-0.0654296875;-0.75;4.6875;12.25;
1441976006346583;0.4576416015625;-0.56646728515625;-0.56011962890625;-0.39501953125;16.37618542560798;14.125185972893119;0.7880467127828128;-0.9453125;0.232421875;-0.0595703125;-2.25;5.3125;11.1875;
1441976006367585;0.4578857421875;-0.5670166015625;-0.56036376953125;-0.39349365234375;16.36151357544269;14.13818223645155;0.805321138363158;-0.94140625;0.23876953125;-0.06494140625;-3.4375;5.8125;9.9375;
1441976006382586;0.458251953125;-0.56756591796875;-0.560546875;-0.39208984375;16.348531600172628;14.15237042583015;0.82359696076302;-0.93896484375;0.236328125;-0.06494140625;-3.9375;6.0;8.5625;
1441976006404587;0.458740234375;-0.5679931640625;-0.56060791015625;-0.39080810546875;16.338172421291542;14.167564154042912;0.8428794087964498;-0.9287109375;0.23486328125;-0.0712890625;-3.5625;6.0;7.1875;
1441976006427588;0.45941162109375;-0.56817626953125;-0.5606689453125;-0.38970947265625;16.331566760653374;14.181478439992004;0.8615789395911289;-0.92919921875;0.24169921875;-0.06591796875;-3.5625;6.0;5.625;
1441976006442589;0.46026611328125;-0.56805419921875;-0.56072998046875;-0.38873291015625;16.328624883126462;14.194051199951852;0.8799973703861619;-0.92578125;0.24560546875;-0.07275390625;-4.3125;5.5625;3.625;
1441976006464590;0.4613037109375;-0.56768798828125;-0.5606689453125;-0.38818359375;16.331730122048025;14.205949085097952;0.8973647369581556;-0.9296875;0.24462890625;-0.07373046875;-5.25;5.0;1.5625;
1441976006487592;0.46234130859375;-0.5672607421875;-0.5604248046875;-0.38787841796875;16.337634207264916;14.218629565072845;0.9144544207809868;-0.935546875;0.24267578125;-0.06982421875;-4.9375;4.3125;-0.5625;
1441976006503592;0.46356201171875;-0.56658935546875;-0.56011962890625;-0.3878173828125;16.347974162793918;14.23100305135086;0.9315774072613209;-0.94384765625;0.24853515625;-0.07275390625;-4.0625;3.9375;-2.5625;
1441976006524594;0.46484375;-0.56573486328125;-0.55975341796875;-0.38812255859375;16.362763140436023;14.241690223563953;0.9464643463114266;-0.93994140625;0.2470703125;-0.07177734375;-4.125;3.0625;-4.5625;
1441976006547595;0.466064453125;-0.5648193359375;-0.55926513671875;-0.388671875;16.379901565335746;14.25186407275174;0.9597772449422167;-0.9375;0.23828125;-0.06689453125;-3.75;2.5;-6.3125;
1441976006563596;0.4674072265625;-0.56378173828125;-0.5587158203125;-0.389404296875;16.399961358298096;14.262594450097787;0.9736323808786082;-0.935546875;0.23681640625;-0.060546875;-2.625;2.0625;-7.5625;
1441976006584597;0.4688720703125;-0.56256103515625;-0.55810546875;-0.39019775390625;16.422364064291354;14.274109304632658;0.9888061093620836;-0.943359375;0.232421875;-0.06201171875;-2.3125;1.875;-8.875;
1441976006607598;0.4703369140625;-0.5611572265625;-0.55767822265625;-0.39111328125;16.44634538176211;14.28113565107743;1.0001814744935738;-0.9443359375;0.23291015625;-0.06396484375;-3.1875;1.4375;-10.25;
1441976006623599;0.471923828125;-0.55975341796875;-0.5570068359375;-0.39208984375;16.472028156598096;14.29326022365179;1.016130430754527;-0.93408203125;0.2265625;-0.04638671875;-3.75;1.5625;-11.0625;
1441976006644601;0.47357177734375;-0.55853271484375;-0.55615234375;-0.39312744140625;16.49775641237791;14.31062871337714;1.036249944072408;-0.92822265625;0.2197265625;-0.0498046875;-3.0625;1.875;-11.8125;
1441976006667602;0.47515869140625;-0.55731201171875;-0.55523681640625;-0.3941650390625;16.523324248903187;14.328814586952209;1.0568467493825362;-0.93359375;0.2197265625;-0.060546875;-2.0625;1.8125;-12.4375;
1441976006683603;0.47674560546875;-0.55615234375;-0.55426025390625;-0.395263671875;16.54907621043364;14.348830325111239;1.078736707424594;-0.931640625;0.22607421875;-0.0654296875;-1.5;1.875;-13.3125;
1441976006704604;0.478515625;-0.5548095703125;-0.55328369140625;-0.396484375;16.577689526657096;14.369828980744522;1.1022984607361999;-0.93798828125;0.23681640625;-0.07080078125;-1.25;1.6875;-14.4375;
1441976006727605;0.4803466796875;-0.55328369140625;-0.55230712890625;-0.397705078125;16.607676783942118;14.391017329883278;1.1267665160475486;-0.9404296875;0.23681640625;-0.0732421875;-2.0625;1.1875;-15.9375;
1441976006743606;0.48223876953125;-0.5516357421875;-0.5511474609375;-0.399169921875;16.641061417820058;14.414781419725868;1.1531045807067373;-0.943359375;0.24365234375;-0.07763671875;-2.5625;0.625;-17.4375;
1441976006766607;0.48419189453125;-0.55010986328125;-0.5498046875;-0.40081787109375;16.675692095437636;14.443921086249324;1.1835634063044433;-0.93115234375;0.22705078125;-0.06787109375;-1.5;0.9375;-18.9375;
1441976006787609;0.48626708984375;-0.54852294921875;-0.5484619140625;-0.40228271484375;16.70958356310616;14.477001482254256;1.2190316434540733;-0.9130859375;0.22412109375;-0.07177734375;-0.5;1.0;-20.0625;
1441976006808610;0.4884033203125;-0.5472412109375;-0.5469970703125;-0.403564453125;16.740234969268634;14.518736910943101;1.262618616934955;-0.89501953125;0.2177734375;-0.064453125;-1.25;2.3125;-20.5625;
1441976006824611;0.490478515625;-0.5460205078125;-0.54559326171875;-0.40460205078125;16.76783700134584;14.562246156939535;1.3085278245312195;-0.89208984375;0.22509765625;-0.06982421875;-0.75;3.4375;-20.25;
1441976006847612;0.49261474609375;-0.544921875;-0.54412841796875;-0.40545654296875;16.793127955117537;14.611943834986223;1.3608074815548048;-0.88037109375;0.232421875;-0.08056640625;-1.0625;3.6875;-20.25;
1441976006868613;0.49456787109375;-0.544189453125;-0.54248046875;-0.40631103515625;16.815217038247376;14.667217328301613;1.416554393842245;-0.87548828125;0.2236328125;-0.0849609375;-1.5;4.5;-19.3125;
1441976006884614;0.49627685546875;-0.5439453125;-0.54046630859375;-0.40716552734375;16.83330764590666;14.731462954151112;1.478127911644581;-0.875;0.21240234375;-0.083984375;0.875;5.875;-17.625;
1441976006906616;0.4976806640625;-0.54425048828125;-0.538330078125;-0.40777587890625;16.844183315218405;14.799732419248722;1.5416338784977568;-0.86572265625;0.189453125;-0.08642578125;3.875;7.0625;-15.4375;
1441976006928617;0.49920654296875;-0.54449462890625;-0.53656005859375;-0.4080810546875;16.852114660568393;14.86452549921641;1.6041074943802265;-0.857421875;0.203125;-0.10009765625;6.0;7.4375;-13.625;
1441976006943618;0.5008544921875;-0.54486083984375;-0.53472900390625;-0.407958984375;16.855402990459908;14.935931120868856;1.674276802398514;-0.84423828125;0.18994140625;-0.09033203125;3.6875;8.5625;-11.9375;
1441976006966619;0.50262451171875;-0.5452880859375;-0.532958984375;-0.407470703125;16.854677787140346;15.010074360919635;1.748602923978482;-0.84326171875;0.19189453125;-0.1015625;2.375;10.1875;-10.75;
1441976006988620;0.50445556640625;-0.54571533203125;-0.5313720703125;-0.40673828125;16.851082177859084;15.081886764778826;1.8220028320190507;-0.8125;0.1806640625;-0.0986328125;1.5625;11.8125;-9.5;
1441976007003621;0.5062255859375;-0.54638671875;-0.52978515625;-0.40570068359375;16.84223959415287;15.153807957443805;1.8955264125748221;-0.80126953125;0.15625;-0.09033203125;-0.1875;13.25;-7.375;
1441976007026622;0.50775146484375;-0.5474853515625;-0.52813720703125;-0.40447998046875;16.82753998955048;15.223476756232959;1.965224863081298;-0.7822265625;0.14990234375;-0.0908203125;0.1875;14.5;-5.1875;
1441976007049624;0.50933837890625;-0.5484619140625;-0.5267333984375;-0.4029541015625;16.810475515665015;15.287190656457945;2.031090907156968;-0.78515625;0.16552734375;-0.09033203125;1.375;15.6875;-3.8125;
1441976007063624;0.51104736328125;-0.54925537109375;-0.52532958984375;-0.40155029296875;16.795407932524103;15.350563721460295;2.097136259143293;-0.79443359375;0.1640625;-0.09912109375;-0.1875;15.9375;-2.9375;
1441976007086626;0.51263427734375;-0.54998779296875;-0.5238037109375;-0.4005126953125;16.78320126334817;15.412499110112469;2.160155957687916;-0.81103515625;0.140625;-0.09912109375;-1.4375;15.5625;-2.3125;
1441976007108627;0.51361083984375;-0.551513671875;-0.52154541015625;-0.4000244140625;16.76844914051094;15.479582358370507;2.2205928527646144;-0.806640625;0.0966796875;-0.08837890625;0.25;15.6875;-0.5625;
1441976007131628;0.513916015625;-0.55413818359375;-0.51849365234375;-0.40008544921875;16.748750093729516;15.552209971203025;2.2775872008286564;-0.802734375;0.08203125;-0.091796875;7.5625;16.0;1.3125;
1441976007146629;0.513916015625;-0.55712890625;-0.51495361328125;-0.4005126953125;16.728383820385268;15.628345344788931;2.3336961984128517;-0.81201171875;0.095703125;-0.10400390625;16.75;16.6875;2.5;
1441976007168630;0.5133056640625;-0.56085205078125;-0.51055908203125;-0.40167236328125;16.70729086196799;15.710988391698855;2.3878633817370423;-0.82421875;0.0810546875;-0.099609375;21.125;17.6875;3.0;
1441976007184631;0.51190185546875;-0.56512451171875;-0.5057373046875;-0.40350341796875;16.686579249659022;15.788541364930584;2.4298902780940876;-0.8486328125;0.08251953125;-0.11279296875;29.375;17.1875;3.1875;
1441976007207633;0.51007080078125;-0.56982421875;-0.500732421875;-0.405517578125;16.663504832822678;15.861501844854539;2.4637891479655334;-0.82421875;0.08544921875;-0.1005859375;36.4375;16.8125;3.9375;
1441976007228634;0.50836181640625;-0.57427978515625;-0.49578857421875;-0.40740966796875;16.640872101337482;15.933046566243299;2.497848471247571;-0.822265625;0.1162109375;-0.10009765625;40.0625;16.5;3.3125;
1441976007244635;0.50689697265625;-0.57830810546875;-0.4913330078125;-0.4090576171875;16.619549749254105;15.997027273929929;2.528376551504165;-0.8203125;0.12939453125;-0.1220703125;38.8125;15.625;2.0;
1441976007266636;0.505859375;-0.5816650390625;-0.4871826171875;-0.4105224609375;16.60162889613997;16.060168521467475;2.5626346742795243;-0.82958984375;0.130859375;-0.12451171875;34.75;15.0;1.3125;
1441976007288637;0.5050048828125;-0.584716796875;-0.48291015625;-0.412109375;16.586365613493697;16.12758806562282;2.6018634589441887;-0.8212890625;0.103515625;-0.12744140625;29.9375;14.3125;0.9375;
1441976007303638;0.5037841796875;-0.58807373046875;-0.4781494140625;-0.41448974609375;16.574588755227158;16.199814030724827;2.6402542229069628;-0.8251953125;0.06201171875;-0.12744140625;28.8125;14.3125;1.5;
1441976007326640;0.5015869140625;-0.5924072265625;-0.47271728515625;-0.417236328125;16.557724868898873;16.26895885816557;2.6669107167021107;-0.83447265625;0.02734375;-0.11962890625;34.0625;13.9375;2.75;
1441976007349641;0.4991455078125;-0.5968017578125;-0.46759033203125;-0.419677734375;16.538297377575912;16.32691233273078;2.683231319973211;-0.83056640625;0.04833984375;-0.11572265625;42.75;14.5625;4.4375;
1441976007363642;0.4969482421875;-0.600830078125;-0.4627685546875;-0.42181396484375;16.519165628291827;16.3813796724031;2.6995633625531084;-0.82421875;0.06884765625;-0.11328125;42.4375;14.8125;5.3125;
1441976007386643;0.49456787109375;-0.6046142578125;-0.45794677734375;-0.42449951171875;16.506525389797563;16.435320808482746;2.7139562791424168;-0.83349609375;0.0615234375;-0.12890625;38.1875;14.375;5.4375;
1441976007408644;0.490966796875;-0.60906982421875;-0.45233154296875;-0.42828369140625;16.497774800581404;16.489090491921175;2.7172143748919604;-0.849609375;0.0234375;-0.125;39.3125;11.6875;6.5625;
1441976007424645;0.486083984375;-0.61444091796875;-0.4462890625;-0.4324951171875;16.486504443149947;16.532498410129886;2.701238354700523;-0.84912109375;0.013671875;-0.13330078125;49.4375;8.5625;8.4375;
1441976007446646;0.48065185546875;-0.62054443359375;-0.43988037109375;-0.4364013671875;16.46724720972607;16.571539015678102;2.6769172162966672;-0.8408203125;0.05517578125;-0.13623046875;58.4375;6.8125;9.9375;
1441976007468648;0.475341796875;-0.62652587890625;-0.434326171875;-0.439208984375;16.44146164899183;16.59340272765145;2.641675165441853;-0.8427734375;0.11669921875;-0.16943359375;62.75;7.625;10.1875;
1441976007485649;0.47113037109375;-0.63153076171875;-0.43017578125;-0.440673828125;16.413277375684007;16.60301353426742;2.608088792449883;-0.86279296875;0.16357421875;-0.1962890625;56.875;8.0625;10.6875;
1441976007506650;0.46807861328125;-0.635009765625;-0.4276123046875;-0.44140625;16.392109771313955;16.602089415364244;2.5784898146946578;-0.9072265625;0.20556640625;-0.24462890625;43.3125;6.875;9.0625;
1441976007528651;0.46539306640625;-0.6373291015625;-0.42608642578125;-0.4425048828125;16.384325079277964;16.593223218616185;2.547432039781055;-0.958984375;0.1845703125;-0.26513671875;28.125;4.25;8.125;
1441976007545652;0.46246337890625;-0.639404296875;-0.42498779296875;-0.44354248046875;16.378813853758786;16.574900438005628;2.5082872475950686;-0.9912109375;0.13623046875;-0.26318359375;21.0;-1.5;9.375;
1441976007566653;0.45965576171875;-0.6414794921875;-0.42462158203125;-0.44384765625;16.36821142455502;16.544036956748943;2.461201929880776;-0.98681640625;0.1328125;-0.27734375;18.75;-4.4375;10.9375;
1441976007588655;0.4573974609375;-0.64324951171875;-0.4249267578125;-0.44329833984375;16.352985263399223;16.507290932204846;2.4151012960056897;-0.97021484375;0.134765625;-0.29248046875;14.0;-4.875;14.3125;
1441976007605655;0.45556640625;-0.64447021484375;-0.42608642578125;-0.4422607421875;16.33841245779559;16.462131845810358;2.367335694209968;-0.96630859375;0.142578125;-0.328125;6.6875;-5.125;15.375;
1441976007626657;0.4539794921875;-0.64520263671875;-0.42724609375;-0.4417724609375;16.3316479679399;16.42271819989965;2.325933712780983;-0.986328125;0.1474609375;-0.34130859375;-0.1875;-6.625;15.4375;
1441976007649658;0.45166015625;-0.64630126953125;-0.42755126953125;-0.44219970703125;16.328816665080012;16.390396820972;2.2832708285980594;-1.0078125;0.09716796875;-0.3427734375;-1.8125;-8.9375;15.75;
1441976007665659;0.4482421875;-0.64862060546875;-0.4267578125;-0.443115234375;16.319818971220684;16.362846035371557;2.2339795330680334;-1.015625;0.083984375;-0.3291015625;6.4375;-10.0625;16.625;
1441976007688660;0.44476318359375;-0.65106201171875;-0.42572021484375;-0.4439697265625;16.308786714913268;16.338562303788954;2.1868179713372706;-1.0185546875;0.13720703125;-0.33935546875;18.0;-9.4375;16.25;
1441976007708661;0.44140625;-0.65362548828125;-0.4244384765625;-0.44476318359375;16.295793848511167;16.31981133732997;2.1446341293801727;-1.009765625;0.15771484375;-0.349609375;19.8125;-9.0625;15.0625;
1441976007732663;0.43841552734375;-0.65557861328125;-0.423828125;-0.44549560546875;16.287336948469687;16.295389205476823;2.1018143714031625;-1.0205078125;0.17333984375;-0.36328125;20.1875;-8.375;13.625;
1441976007746664;0.4365234375;-0.6566162109375;-0.42352294921875;-0.446044921875;16.28414126445144;16.27898114746673;2.0743095865541528;-1.02783203125;0.19873046875;-0.345703125;16.0625;-9.0;11.1875;
1441976007768665;0.43475341796875;-0.657470703125;-0.423095703125;-0.44696044921875;16.28531536071373;16.266600522641813;2.0503704077553344;-1.0322265625;0.1689453125;-0.341796875;8.875;-8.6875;8.5625;
1441976007785666;0.4327392578125;-0.6590576171875;-0.422119140625;-0.44744873046875;16.27673256635567;16.259218351843714;2.028093674529272;-1.01708984375;0.1298828125;-0.31689453125;8.8125;-8.4375;8.4375;
1441976007806667;0.4310302734375;-0.66070556640625;-0.42120361328125;-0.4476318359375;16.265132626800977;16.254138272011712;2.0099146873563645;-1.00244140625;0.16796875;-0.34912109375;12.75;-6.625;8.6875;
1441976007828668;0.43017578125;-0.6610107421875;-0.42138671875;-0.44781494140625;16.264491612556192;16.241847231279568;1.9942227079782313;-1.015625;0.1962890625;-0.39501953125;10.9375;-7.5625;6.5;
1441976007852670;0.43011474609375;-0.660400390625;-0.421875;-0.4482421875;16.273112796703376;16.234095532985418;1.9883165701085703;-0.99853515625;0.18701171875;-0.37744140625;1.0625;-10.5625;3.375;
1441976007866670;0.4300537109375;-0.66015625;-0.42132568359375;-0.44921875;16.28298134333796;16.243264885005175;1.9936745074182427;-1.01025390625;0.13623046875;-0.3515625;-3.9375;-10.9375;2.0625;
1441976007888672;0.42926025390625;-0.66064453125;-0.4197998046875;-0.45068359375;16.290714855376105;16.259994692051777;1.9979949319092551;-1.009765625;0.08642578125;-0.34716796875;1.1875;-9.5;2.0625;
1441976007905673;0.42755126953125;-0.66241455078125;-0.417236328125;-0.45208740234375;16.287387739281478;16.28228516377184;1.9984819545382841;-0.99365234375;0.0732421875;-0.32861328125;10.0625;-7.6875;3.4375;
1441976007926674;0.42559814453125;-0.66448974609375;-0.41473388671875;-0.45318603515625;16.279169575375473;16.30026853406276;1.99406064374168;-0.9765625;0.10400390625;-0.3330078125;19.625;-4.25;5.125;
1441976007948675;0.42376708984375;-0.6663818359375;-0.412841796875;-0.45391845703125;16.269706105437436;16.309616280748394;1.9847508315962694;-0.97607421875;0.14404296875;-0.32568359375;20.9375;-2.25;5.3125;
1441976007964676;0.42254638671875;-0.6676025390625;-0.41168212890625;-0.4542236328125;16.262164495928513;16.31394778891775;1.9775238799029344;-1.01171875;0.16162109375;-0.32421875;17.0625;-1.875;5.5;
1441976007986677;0.4217529296875;-0.66839599609375;-0.4102783203125;-0.45501708984375;16.26186593810225;16.32767360111258;1.9801422257387395;-1.02490234375;0.15869140625;-0.30810546875;10.5;-0.875;5.375;
1441976008008679;0.4202880859375;-0.669921875;-0.4075927734375;-0.45660400390625;16.261851133396434;16.35468967111385;1.985896362338734;-1.04345703125;0.09375;-0.294921875;9.375;-1.0625;5.125;
1441976008031680;0.41766357421875;-0.6727294921875;-0.4041748046875;-0.45794677734375;16.249489601840256;16.379091376785176;1.980265242001346;-1.03759765625;0.06982421875;-0.29736328125;19.625;-0.75;5.5625;
1441976008046681;0.41461181640625;-0.67572021484375;-0.40130615234375;-0.45880126953125;16.23207079016334;16.38936967732963;1.9616390452639547;-1.02001953125;0.14013671875;-0.32080078125;28.5625;0.875;6.8125;
1441976008068682;0.41192626953125;-0.67816162109375;-0.39971923828125;-0.458984375;16.21409251685561;16.383509147673152;1.9352691726391067;-1.01513671875;0.20458984375;-0.32470703125;27.6875;1.1875;7.1875;
1441976008084683;0.410400390625;-0.67901611328125;-0.39898681640625;-0.4598388671875;16.21453724724286;16.37897282131169;1.9191235749824531;-1.03466796875;0.25390625;-0.3251953125;20.125;0.375;6.5;
1441976008106684;0.40814208984375;-0.6800537109375;-0.39666748046875;-0.4622802734375;16.225978929587537;16.392514037671084;1.9091018459008058;-1.072265625;0.16015625;-0.2998046875;10.4375;-3.5;5.75;
1441976008128685;0.40435791015625;-0.6824951171875;-0.3927001953125;-0.46539306640625;16.23140395048536;16.414936817358146;1.8924287725163387;-1.10205078125;0.08544921875;-0.2783203125;21.25;-5.1875;6.0625;
1441976008159687;0.39984130859375;-0.68560791015625;-0.38836669921875;-0.46826171875;16.22941324008891;16.434255265384454;1.8679524186184489;-1.083984375;0.12353515625;-0.27685546875;37.3125;-3.875;6.875;
1441976008166688;0.39520263671875;-0.68896484375;-0.38421630859375;-0.47076416015625;16.222683719648355;16.448926453073142;1.8393123876598918;-1.0673828125;0.16845703125;-0.27197265625;43.0;-1.75;7.375;
1441976008188689;0.39068603515625;-0.69195556640625;-0.38055419921875;-0.47314453125;16.21804610531136;16.45742446727472;1.8076888007861676;-1.05078125;0.19580078125;-0.27294921875;42.5;-0.625;7.8125;
1441976008211690;0.38653564453125;-0.6939697265625;-0.37713623046875;-0.47625732421875;16.22725377304033;16.467214394849332;1.7799982190323658;-1.0556640625;0.2080078125;-0.26171875;39.5625;-1.125;7.0625;
1441976008226691;0.38201904296875;-0.69561767578125;-0.37298583984375;-0.4808349609375;16.25145729618157;16.48587040170679;1.7549588373067986;-1.06982421875;0.1650390625;-0.24853515625;36.375;-5.0;5.375;
1441976008248692;0.37646484375;-0.69775390625;-0.36767578125;-0.486083984375;16.276950005161886;16.51124592713638;1.7265238388973576;-1.08837890625;0.11669921875;-0.240234375;42.0;-10.6875;4.4375;
1441976008271694;0.36993408203125;-0.7003173828125;-0.3616943359375;-0.49188232421875;16.303630717662113;16.536361218871875;1.6900195947553764;-1.0859375;0.12158203125;-0.2548828125;52.125;-12.9375;3.8125;
1441976008286694;0.3626708984375;-0.7034912109375;-0.35491943359375;-0.4976806640625;16.325280976166887;16.565123117632474;1.6505686468395129;-1.08740234375;0.1484375;-0.2802734375;59.9375;-16.0625;3.625;
1441976008308696;0.35540771484375;-0.7059326171875;-0.34832763671875;-0.50408935546875;16.35795201577045;16.591356953755497;1.609537710674975;-1.083984375;0.18408203125;-0.31787109375;66.625;-17.125;3.0;
1441976008331697;0.3486328125;-0.7069091796875;-0.34136962890625;-0.51214599609375;16.415798030010777;16.631261640964933;1.5823090158113806;-1.07763671875;0.19482421875;-0.3115234375;66.0;-22.25;-0.8125;
1441976008346698;0.341552734375;-0.70721435546875;-0.333984375;-0.521240234375;16.48748055376659;16.67618297260954;1.5568579997086516;-1.14599609375;0.12451171875;-0.296875;65.5;-29.625;-5.0;
1441976008368699;0.3336181640625;-0.7078857421875;-0.326416015625;-0.53021240234375;16.5553891018655;16.712952062888725;1.5191744417493673;-1.14794921875;0.1181640625;-0.28662109375;69.125;-35.6875;-8.875;
1441976008384700;0.32269287109375;-0.7100830078125;-0.31689453125;-0.53973388671875;16.615580014266904;16.74243078983424;1.4525172007759197;-1.14501953125;0.1416015625;-0.2958984375;73.1875;-36.75;-7.5625;
1441976008407701;0.31121826171875;-0.71099853515625;-0.3092041015625;-0.54962158203125;16.68947414941223;16.725533625823736;1.3459740350584444;-1.15625;0.15966796875;-0.30712890625;94.25;-37.625;-0.875;
1441976008428703;0.30145263671875;-0.71026611328125;-0.30419921875;-0.5587158203125;16.769478045340016;16.672390358758424;1.223782502690855;-1.20263671875;0.27783203125;-0.2744140625;88.9375;-45.3125;-4.1875;
1441976008444703;0.29595947265625;-0.708251953125;-0.30133056640625;-0.56573486328125;16.84245826247298;16.636142550423543;1.1480268927516322;-1.25;0.32373046875;-0.228515625;69.25;-46.5;-7.5;
1441976008467705;0.2890625;-0.71044921875;-0.29388427734375;-0.5704345703125;16.862978758177487;16.677837553009308;1.1249271156246192;-1.29150390625;0.04052734375;-0.1220703125;37.375;-31.625;2.875;
1441976008488706;0.27569580078125;-0.72021484375;-0.2838134765625;-0.56988525390625;16.777834492848086;16.67314827326347;1.017759365375028;-1.302734375;-0.1494140625;0.03466796875;62.4375;7.1875;18.25;
1441976008511707;0.25714111328125;-0.740234375;-0.2821044921875;-0.5535888671875;16.46971425301691;16.487820869516664;0.7503831029313976;-1.42138671875;0.07080078125;0.4248046875;101.3125;40.0625;39.9375;
1441976008527708;0.25836181640625;-0.7353515625;-0.27508544921875;-0.56292724609375;16.592818346452624;16.6061484635435;0.8398660091422951;-0.92626953125;1.00146484375;-0.43115234375;85.5625;91.6875;69.0;
1441976008548709;0.2489013671875;-0.73944091796875;-0.2808837890625;-0.55902099609375;16.511201310982944;16.387592853840392;0.6071868313338386;-1.35498046875;0.052734375;-0.22607421875;31.0;-37.8125;-42.375;
1441976008571711;0.228759765625;-0.757080078125;-0.26446533203125;-0.55194091796875;16.306711763748638;16.47402037877415;0.5386075785620807;-1.20556640625;0.3603515625;-0.0986328125;10.9375;17.9375;57.875;
1441976008587712;0.21856689453125;-0.7720947265625;-0.2720947265625;-0.53118896484375;15.990182774319207;16.34211620204252;0.40515672980676953;-0.9990234375;0.48193359375;-0.59814453125;152.8125;72.3125;63.5;
1441976008608713;0.21942138671875;-0.7791748046875;-0.28094482421875;-0.51568603515625;15.794096845470778;16.28647019536184;0.3992465264755066;-0.943359375;1.05859375;-0.60498046875;7.4375;91.25;61.5;
1441976008638715;0.216796875;-0.78680419921875;-0.28228759765625;-0.50433349609375;15.633810353632265;16.29064008502387;0.404022489349638;-0.95947265625;0.16455078125;-0.4375;-52.75;72.625;59.6875;
1441976008647715;0.2110595703125;-0.7958984375;-0.28302001953125;-0.491943359375;15.44811559250752;16.284567691568164;0.3834952287115991;-0.96240234375;0.06298828125;-0.44677734375;-5.625;61.125;54.9375;
1441976008668716;0.2086181640625;-0.80218505859375;-0.2884521484375;-0.4793701171875;15.28004000872155;16.245480574806162;0.36543323911763254;-0.93310546875;0.427734375;-0.55126953125;13.875;59.9375;47.8125;
1441976008691718;0.2098388671875;-0.80560302734375;-0.297119140625;-0.4677734375;15.143413078905098;16.190275480262855;0.3611298651440838;-0.92236328125;0.45849609375;-0.54638671875;-21.1875;54.6875;42.6875;
1441976008707719;0.2135009765625;-0.8062744140625;-0.30609130859375;-0.458984375;15.055397542565778;16.137283928825756;0.3698877258880878;-0.9208984375;0.40478515625;-0.5048828125;-50.5;48.0;34.875;
1441976008728720;0.220703125;-0.80487060546875;-0.3121337890625;-0.4539794921875;15.028741010731181;16.12268700432565;0.41684853426062307;-0.9111328125;0.26416015625;-0.4423828125;-62.5;35.8125;25.625;
1441976008751721;0.22613525390625;-0.803955078125;-0.31561279296875;-0.45062255859375;15.013144867263549;16.12168597164137;0.4572371181140255;-0.9833984375;0.0908203125;-0.41650390625;-61.8125;26.6875;5.25;
1441976008768722;0.22967529296875;-0.80242919921875;-0.320556640625;-0.44805908203125;15.00181089896442;16.09329216212589;0.4683072138688047;-1.03857421875;0.130859375;-0.46142578125;-42.25;19.0;2.9375;
1441976008788723;0.23333740234375;-0.80078125;-0.3260498046875;-0.44512939453125;14.987537918835663;16.060503691705595;0.47840963914323487;-1.02392578125;0.3017578125;-0.43603515625;-39.125;9.75;2.8125;
1441976008812725;0.23919677734375;-0.79766845703125;-0.3326416015625;-0.44268798828125;14.991379883317876;16.025053696840835;0.5001536058536988;-0.8994140625;0.38720703125;-0.48291015625;-41.625;3.9375;-3.1875;
1441976008827725;0.24761962890625;-0.7935791015625;-0.3375244140625;-0.44171142578125;15.024106627117074;16.01603683742456;0.5506787701319285;-0.8447265625;0.390625;-0.44091796875;-53.5625;1.5;-14.6875;
1441976008848727;0.25634765625;-0.78912353515625;-0.34234619140625;-0.44091796875;15.06173279581355;16.008675408694245;0.6040170471005714;-0.8466796875;0.271484375;-0.44677734375;-55.625;-1.0625;-27.5625;
1441976008871728;0.26641845703125;-0.7833251953125;-0.3499755859375;-0.43927001953125;15.10031696356905;15.979681980001036;0.6552623949049797;-0.83984375;0.328125;-0.455078125;-55.0;-3.25;-33.6875;
1441976008887729;0.27838134765625;-0.7757568359375;-0.3609619140625;-0.43646240234375;15.141047057424354;15.925647109837422;0.7064331962331226;-0.7890625;0.3671875;-0.42626953125;-73.875;-4.5;-36.8125;
1441976008908730;0.2928466796875;-0.76580810546875;-0.3736572265625;-0.433837890625;15.203961746482712;15.863145294413709;0.7687294559780543;-0.71435546875;0.36572265625;-0.38720703125;-98.1875;-5.125;-38.5625;
1441976008931731;0.3089599609375;-0.75433349609375;-0.38677978515625;-0.4312744140625;15.282111926893231;15.802553248583294;0.8430842791029145;-0.70849609375;0.3017578125;-0.33544921875;-117.4375;-4.5625;-43.8125;
1441976008947732;0.32427978515625;-0.74200439453125;-0.3995361328125;-0.4298095703125;15.37510042705903;15.737197074357345;0.9075115846067892;-0.740234375;0.2021484375;-0.31005859375;-127.1875;-5.5;-50.625;
1441976008976734;0.33856201171875;-0.72869873046875;-0.412109375;-0.4295654296875;15.483793908210533;15.661974801382529;0.9567033877514249;-0.77392578125;0.16650390625;-0.2734375;-123.625;-12.875;-51.875;
1441976008991735;0.35235595703125;-0.71417236328125;-0.4249267578125;-0.43048095703125;15.610070862631458;15.5736135145865;0.9914801877461561;-0.75146484375;0.14453125;-0.27001953125;-120.25;-22.8125;-52.375;
1441976009007736;0.36541748046875;-0.6986083984375;-0.43768310546875;-0.432373046875;15.750362862234041;15.471778336467803;1.0096029833841804;-0.75390625;0.17822265625;-0.263671875;-120.5;-32.3125;-55.1875;
1441976009028737;0.379150390625;-0.6806640625;-0.451171875;-0.43524169921875;15.916104716069146;15.349650640389262;1.0148674699276743;-0.77978515625;0.26171875;-0.31640625;-119.1875;-42.3125;-58.25;
1441976009051738;0.39111328125;-0.66314697265625;-0.46185302734375;-0.44049072265625;16.098338235593182;15.233761175862583;1.0036902067447695;-0.873046875;0.10009765625;-0.31884765625;-128.5;-51.5;-63.8125;
1441976009067739;0.400390625;-0.64874267578125;-0.46624755859375;-0.4488525390625;16.288351061588205;15.173542095417652;1.0029302894160685;-0.9775390625;-0.03857421875;-0.29736328125;-106.8125;-58.0625;-66.375;
1441976009088740;0.40655517578125;-0.635986328125;-0.47003173828125;-0.45758056640625;16.461066508011047;15.08496788829022;0.9564821641228393;-0.97998046875;-0.01220703125;-0.30615234375;-65.375;-62.625;-60.8125;
1441976009111742;0.41107177734375;-0.6240234375;-0.47454833984375;-0.46527099609375;16.611279355662486;14.954716211662095;0.8659024788035173;-0.970703125;0.06298828125;-0.28173828125;-48.0;-66.75;-54.625;
1441976009127743;0.41558837890625;-0.611572265625;-0.48040771484375;-0.47174072265625;16.74870711394149;14.776800234233427;0.7361773597894079;-0.92822265625;0.12939453125;-0.27734375;-45.8125;-69.375;-48.5;
1441976009148744;0.42047119140625;-0.59893798828125;-0.4864501953125;-0.4774169921875;16.877815098884344;14.569176970919557;0.580878143718337;-0.865234375;0.11767578125;-0.23681640625;-54.25;-68.375;-43.5625;
1441976009171745;0.42474365234375;-0.5867919921875;-0.49151611328125;-0.48345947265625;17.00187853728908;14.328123982591322;0.3848612052242847;-0.84521484375;0.068359375;-0.205078125;-58.0;-64.75;-40.5;
1441976009187746;0.4266357421875;-0.57696533203125;-0.49462890625;-0.49041748046875;17.10731647488742;14.052433222154178;0.13220103544504822;-0.84326171875;-0.0126953125;-0.16552734375;-50.625;-62.6875;-36.1875;
1441976009208747;0.42529296875;-0.5704345703125;-0.49603271484375;-0.4976806640625;17.17705547186374;13.751203375243135;17.829215023843695;-0.82861328125;-0.03466796875;-0.13818359375;-28.0625;-60.625;-30.0625;
1441976009231748;0.4222412109375;-0.56634521484375;-0.4967041015625;-0.50433349609375;17.214234830127698;13.457407885823006;17.521300972515597;-0.79638671875;0.013671875;-0.115234375;-3.0625;-56.9375;-21.1875;
1441976009247749;0.41851806640625;-0.5635986328125;-0.4969482421875;-0.5101318359375;17.230288482114307;13.19158507804156;17.236687533134443;-0.75927734375;0.07080078125;-0.08740234375;10.3125;-49.75;-14.625;
1441976009268751;0.4146728515625;-0.5616455078125;-0.49658203125;-0.515869140625;17.239171845136536;12.948908777016815;16.971031202650554;-0.7490234375;0.09423828125;-0.05615234375;15.5;-42.75;-10.0625;
1441976009291752;0.40985107421875;-0.5611572265625;-0.49505615234375;-0.52166748046875;17.238525602195963;12.749047838394263;16.73756903553714;-0.75390625;0.06103515625;-0.01708984375;20.3125;-36.8125;-7.375;
1441976009307753;0.4033203125;-0.56317138671875;-0.49224853515625;-0.5272216796875;17.222218494452935;12.630705538100756;16.570422781691175;-0.77001953125;0.05712890625;0.02392578125;31.4375;-30.4375;-3.6875;
1441976009328754;0.3953857421875;-0.5675048828125;-0.48846435546875;-0.53204345703125;17.192271799007624;12.603132517981377;16.482469520207356;-0.78369140625;0.0810546875;0.03955078125;47.5;-23.125;2.9375;
1441976009351755;0.38690185546875;-0.57342529296875;-0.4847412109375;-0.53533935546875;17.148522486495636;12.654860462572106;16.472087185099898;-0.80126953125;0.123046875;0.0576171875;59.8125;-14.9375;9.75;
1441976009367756;0.37945556640625;-0.579345703125;-0.48199462890625;-0.53680419921875;17.09959431308027;12.743574386296698;16.50968871468758;-0.80224609375;0.18505859375;0.05908203125;61.8125;-6.125;15.3125;
1441976009390758;0.37396240234375;-0.584228515625;-0.48016357421875;-0.5369873046875;17.05714670251616;12.834059622792324;16.564022153026297;-0.8056640625;0.24267578125;0.0634765625;51.5625;1.125;16.75;
1441976009411759;0.369873046875;-0.588623046875;-0.4791259765625;-0.53594970703125;17.016059207021772;12.934435468401025;16.63954261132825;-0.814453125;0.2314453125;0.0791015625;37.0;6.625;15.875;
1441976009427760;0.36627197265625;-0.59320068359375;-0.47882080078125;-0.53363037109375;16.966809564110246;13.0511327883758;16.73802324146746;-0.810546875;0.22607421875;0.08984375;26.5;12.1875;16.6875;
1441976009450761;0.3631591796875;-0.59808349609375;-0.47882080078125;-0.53033447265625;16.91229813154062;13.181545387316257;16.854426957223126;-0.79638671875;0.2509765625;0.0927734375;20.3125;17.6875;19.75;
1441976009471762;0.36041259765625;-0.603271484375;-0.47882080078125;-0.52630615234375;16.853832850137074;13.320645847933902;16.981740907645765;-0.77197265625;0.25244140625;0.0869140625;16.625;22.1875;22.5625;
1441976009486763;0.3583984375;-0.6083984375;-0.47943115234375;-0.52117919921875;16.788973567292587;13.460621647250303;17.1171259624312;-0.759765625;0.2607421875;0.07763671875;15.1875;26.75;23.75;
1441976009510764;0.357666015625;-0.61248779296875;-0.48089599609375;-0.51556396484375;16.72710722973781;13.577998219749114;17.24060589002576;-0.76513671875;0.32177734375;0.05615234375;8.125;29.9375;22.625;
1441976009531766;0.3572998046875;-0.616455078125;-0.48223876953125;-0.509765625;16.665805214688465;13.689624606940772;17.359884706698526;-0.798828125;0.29736328125;0.0517578125;-2.5;30.8125;22.75;
1441976009547767;0.3558349609375;-0.62109375;-0.48358154296875;-0.5037841796875;16.591130048222762;13.791493195765938;17.464629825720195;-0.8408203125;0.24267578125;0.0400390625;-3.75;31.8125;26.5;
1441976009571768;0.35382080078125;-0.626708984375;-0.4844970703125;-0.4974365234375;16.506456395975228;13.898864941117756;17.570193755326926;-0.8447265625;0.26806640625;0.0439453125;1.125;32.5;31.125;
1441976009591769;0.3516845703125;-0.632568359375;-0.485595703125;-0.49029541015625;16.411790728306418;14.00117820106149;17.672238919111145;-0.83935546875;0.29638671875;0.02685546875;6.3125;35.25;33.5625;
1441976009607770;0.350341796875;-0.63775634765625;-0.487548828125;-0.4825439453125;16.315346154168154;14.086503178979962;17.765843778563628;-0.8525390625;0.35498046875;0.0078125;5.25;37.5;34.6875;
1441976009630771;0.34893798828125;-0.6431884765625;-0.48931884765625;-0.47454833984375;16.21491070093626;14.16783209808663;17.854671682390308;-0.8681640625;0.32177734375;0.01611328125;-2.75;39.625;37.8125;
1441976009651773;0.3466796875;-0.64935302734375;-0.49102783203125;-0.4659423828125;16.100152531519726;14.244298821500436;17.935350088848725;-0.8798828125;0.2841796875;0.02978515625;-1.6875;42.875;42.6875;
1441976009667773;0.34442138671875;-0.65533447265625;-0.49346923828125;-0.45654296875;15.97628100769619;14.30687662289892;0.006978101743830187;-0.91455078125;0.3369140625;0.0068359375;2.0625;44.9375;47.1875;
1441976009690775;0.342041015625;-0.66131591796875;-0.4964599609375;-0.4464111328125;15.843119228782156;14.358844566075708;0.07125756127328267;-0.93115234375;0.3603515625;-4.8828125E-4;-2.625;45.875;51.1875;
1441976009711776;0.3394775390625;-0.66717529296875;-0.49993896484375;-0.43560791015625;15.701887562023584;14.40014224791866;0.12790872391294947;-0.9287109375;0.37939453125;-0.00537109375;-5.625;47.75;55.25;
1441976009727777;0.33660888671875;-0.673095703125;-0.50335693359375;-0.42474365234375;15.557852495407964;14.4350989697204;0.17708864541142885;-0.951171875;0.39697265625;-0.0244140625;-8.375;48.4375;59.75;
1441976009750778;0.3331298828125;-0.6793212890625;-0.50634765625;-0.413818359375;15.409406017334515;14.467826226753296;0.220075407601216;-0.96142578125;0.36767578125;-0.02587890625;-7.5;48.875;65.0;
1441976009771779;0.32891845703125;-0.68560791015625;-0.50927734375;-0.403076171875;15.258008892560357;14.492696175068232;0.2520228094141296;-0.96240234375;0.35107421875;-0.0419921875;-3.875;48.4375;69.75;
1441976009787780;0.3232421875;-0.6923828125;-0.51116943359375;-0.39349365234375;15.108642281942974;14.515040040966934;0.2689876912259369;-0.96142578125;0.30078125;-0.01513671875;-0.75;48.75;77.25;
1441976009810782;0.3165283203125;-0.698974609375;-0.51251220703125;-0.3856201171875;14.970239825173262;14.529152854726759;0.26850350649421906;-0.93115234375;0.26123046875;-0.00341796875;10.125;43.8125;80.8125;
1441976009831783;0.307861328125;-0.70721435546875;-0.51251220703125;-0.37744140625;14.814398232690973;14.5537599454464;0.26394417303905837;-0.92919921875;0.25390625;-0.001953125;17.75;35.5625;80.5;
1441976009847784;0.2977294921875;-0.71685791015625;-0.51116943359375;-0.36907958984375;14.646003505151775;14.588983501372535;0.25717208239793804;-0.861328125;0.34912109375;-0.06591796875;30.875;33.0625;82.5;
1441976009870785;0.288818359375;-0.7255859375;-0.510009765625;-0.360595703125;14.487134038045575;14.622540793193;0.2557888088972952;-0.79052734375;0.49560546875;-0.18896484375;41.0;27.5;79.375;
1441976009891786;0.28118896484375;-0.7332763671875;-0.50946044921875;-0.35174560546875;14.335352606755817;14.651356176736195;0.25941749257127883;-0.7744140625;0.58837890625;-0.32568359375;31.75;22.5;68.625;
1441976009907787;0.27484130859375;-0.7408447265625;-0.50799560546875;-0.343017578125;14.194281223500541;14.689371881739227;0.2733020971091895;-0.78515625;0.62353515625;-0.341796875;22.8125;24.75;64.375;
1441976009930788;0.26837158203125;-0.74920654296875;-0.504150390625;-0.33544921875;14.064388191510192;14.743195254012447;0.2891478402458143;-0.72607421875;0.5595703125;-0.3564453125;22.6875;28.875;59.1875;
1441976009951790;0.26129150390625;-0.7576904296875;-0.4990234375;-0.3297119140625;13.94943970760394;14.799375251710583;0.29551123652928546;-0.6572265625;0.50537109375;-0.3583984375;36.4375;28.4375;54.0;
1441976009967791;0.25225830078125;-0.766357421875;-0.49407958984375;-0.3240966796875;13.82408547760831;14.847099836453294;0.28598497788520943;-0.6689453125;0.5009765625;-0.345703125;47.3125;23.25;50.8125;
1441976009990792;0.2432861328125;-0.774169921875;-0.49072265625;-0.31744384765625;13.690359960373513;14.881785700445658;0.27350212872003876;-0.6748046875;0.57861328125;-0.34130859375;52.875;18.5;56.6875;
1441976010011793;0.23486328125;-0.780517578125;-0.48956298828125;-0.3099365234375;13.553761537079952;14.898914437243667;0.2586603459885149;-0.69384765625;0.60107421875;-0.349609375;42.25;20.75;61.9375;
1441976010027794;0.2296142578125;-0.78387451171875;-0.49029541015625;-0.30419921875;13.458682831468373;14.899394649967098;0.24840360559395352;-0.6708984375;0.61962890625;-0.33154296875;28.0625;21.6875;63.375;
1441976010050795;0.224609375;-0.78643798828125;-0.4903564453125;-0.3011474609375;13.393915200898599;14.898713045809803;0.2307576960392039;-0.68212890625;0.5068359375;-0.2646484375;7.6875;18.8125;50.375;
1441976010071797;0.21875;-0.789794921875;-0.48956298828125;-0.29803466796875;13.322548691041323;14.904460629743317;0.21137615934357368;-0.7783203125;0.478515625;-0.21923828125;13.0625;11.5625;46.0;
1441976010087797;0.21368408203125;-0.79205322265625;-0.48956298828125;-0.2955322265625;13.263802304947106;14.902758264759356;0.1914823336329811;-0.7177734375;0.55908203125;-0.2822265625;20.0;8.125;43.4375;
1441976010110799;0.2105712890625;-0.7928466796875;-0.4906005859375;-0.29400634765625;13.228093689643975;14.893210047484718;0.17597627963416762;-0.75830078125;0.61669921875;-0.30029296875;12.875;5.125;37.9375;
1441976010131800;0.20892333984375;-0.7926025390625;-0.4921875;-0.29327392578125;13.210364588142951;14.87926661926671;0.16415224887843102;-0.7333984375;0.6279296875;-0.31103515625;2.1875;1.3125;25.1875;
1441976010146801;0.20794677734375;-0.79241943359375;-0.49310302734375;-0.29278564453125;13.199507306583198;14.871127272527074;0.1574005616803329;-0.73828125;0.59228515625;-0.29931640625;-5.75;0.125;18.0625;
1441976010169802;0.20733642578125;-0.7923583984375;-0.4937744140625;-0.2923583984375;13.191202453086445;14.86579400764441;0.15347009896555203;-0.70556640625;0.572265625;-0.31689453125;-4.5625;0.0625;12.9375;
1441976010191803;0.206787109375;-0.79248046875;-0.4940185546875;-0.29193115234375;13.183362903687339;14.863932912984135;0.15120678729163747;-0.66943359375;0.56005859375;-0.31982421875;-4.1875;0.25;9.875;
1441976010207804;0.20599365234375;-0.7930908203125;-0.4940185546875;-0.2908935546875;13.167258431282956;14.865550778349354;0.15089531162448871;-0.6435546875;0.54248046875;-0.31689453125;-1.9375;1.0;8.6875;
1441976010229806;0.2049560546875;-0.7938232421875;-0.494140625;-0.28936767578125;13.144653253828942;14.866882564882275;0.15072201992534892;-0.6005859375;0.572265625;-0.3310546875;0.0625;2.4375;8.5625;
1441976010250807;0.2037353515625;-0.794921875;-0.493896484375;-0.28765869140625;13.118720062208746;14.871575891268991;0.15141236112134018;-0.578125;0.59814453125;-0.32861328125;0.5;3.625;9.125;
1441976010267808;0.2025146484375;-0.7962646484375;-0.49346923828125;-0.28546142578125;13.087740331785293;14.878839554350423;0.15456744226108718;-0.578125;0.61474609375;-0.345703125;3.1875;4.5625;10.0625;
1441976010289809;0.2015380859375;-0.7974853515625;-0.49359130859375;-0.28265380859375;13.051880233063617;14.88355669892481;0.1599092802694281;-0.57373046875;0.6474609375;-0.3623046875;3.8125;6.6875;10.0;
1441976010312810;0.2005615234375;-0.79840087890625;-0.49395751953125;-0.2801513671875;13.019481851188072;14.885279455533544;0.16317536790578624;-0.57470703125;0.66552734375;-0.373046875;0.0625;8.9375;10.5625;
1441976010327811;0.19927978515625;-0.7998046875;-0.49365234375;-0.27752685546875;12.98374362215222;14.892207729185968;0.1670918428392856;-0.5810546875;0.6435546875;-0.36279296875;-1.5;8.0;11.375;
1441976010349812;0.19775390625;-0.80120849609375;-0.4935302734375;-0.27471923828125;12.94464079443061;14.89761965140179;0.16969643617747635;-0.56884765625;0.6630859375;-0.37841796875;2.9375;8.0;11.8125;
1441976010372814;0.1961669921875;-0.8026123046875;-0.493408203125;-0.27203369140625;12.906333819184061;14.902710049525387;0.17144404213445866;-0.5625;0.68505859375;-0.39013671875;2.6875;7.6875;12.625;
1441976010388815;0.1943359375;-0.80419921875;-0.4930419921875;-0.26922607421875;12.865334292161197;14.90945176757718;0.17283650620306046;-0.5654296875;0.67041015625;-0.3974609375;1.875;7.3125;13.875;
1441976010409816;0.19232177734375;-0.805908203125;-0.49261474609375;-0.266357421875;12.822446396795277;14.916598254033278;0.1735407394194665;-0.57421875;0.66796875;-0.40087890625;3.9375;7.8125;15.9375;
1441976010432817;0.19024658203125;-0.8077392578125;-0.49212646484375;-0.2633056640625;12.77719813383181;14.92453572179749;0.17469621753438938;-0.58203125;0.67578125;-0.4033203125;4.625;8.375;17.4375;
1441976010453818;0.1881103515625;-0.80963134765625;-0.4913330078125;-0.2603759765625;12.733043376142387;14.934174614328155;0.1756862587092687;-0.5732421875;0.65771484375;-0.4013671875;5.125;9.4375;18.9375;
1441976010469819;0.18572998046875;-0.81158447265625;-0.490478515625;-0.257568359375;12.68859927183542;14.94369386059552;0.1749117707389546;-0.583984375;0.65234375;-0.3984375;6.6875;10.0;19.875;
1441976010492821;0.18328857421875;-0.813720703125;-0.48944091796875;-0.254638671875;12.642361443776357;14.954848646250882;0.1746477565245691;-0.5693359375;0.6552734375;-0.38916015625;8.8125;9.0;20.25;
1441976010513822;0.180908203125;-0.81585693359375;-0.4884033203125;-0.2513427734375;12.59299600276514;14.966399624844987;0.17585408102326497;-0.5703125;0.66064453125;-0.3896484375;10.25;10.3125;20.875;
1441976010537823;0.17877197265625;-0.81787109375;-0.48760986328125;-0.24786376953125;12.543234365229715;14.976683233613592;0.178371728590396;-0.546875;0.66064453125;-0.39013671875;9.8125;12.0625;20.75;
1441976010552824;0.1768798828125;-0.81976318359375;-0.48699951171875;-0.2442626953125;12.493738998720362;14.98598928758792;0.18212362928562037;-0.54736328125;0.66552734375;-0.40087890625;7.875;13.3125;20.875;
1441976010573825;0.17498779296875;-0.82147216796875;-0.4864501953125;-0.24078369140625;12.445875485935485;14.994146702291175;0.18508720326032807;-0.544921875;0.6650390625;-0.39501953125;6.25;14.25;20.5;
1441976010590826;0.17327880859375;-0.82305908203125;-0.486083984375;-0.23736572265625;12.399689110639649;15.001068957466652;0.18836741019827005;-0.53857421875;0.66943359375;-0.39404296875;5.9375;13.9375;19.875;
1441976010612827;0.17181396484375;-0.8245849609375;-0.4857177734375;-0.23394775390625;12.354989513065176;15.008171618513138;0.19291421749978702;-0.53125;0.66650390625;-0.3955078125;4.6875;13.875;19.3125;
1441976010633829;0.170654296875;-0.825927734375;-0.4854736328125;-0.2305908203125;12.31289075165315;15.014413660975482;0.19855881071647194;-0.53125;0.67333984375;-0.40234375;3.8125;14.3125;18.1875;
1441976010649830;0.16973876953125;-0.826904296875;-0.485595703125;-0.2274169921875;12.27447190856275;15.017618850428017;0.2040032370781762;-0.5380859375;0.67431640625;-0.416015625;2.0625;14.625;17.125;
1441976010673831;0.16900634765625;-0.82781982421875;-0.4857177734375;-0.224365234375;12.238377419248167;15.020806035692345;0.21000767563511744;-0.5361328125;0.66650390625;-0.4140625;-1.0;14.0625;16.3125;
1441976010693832;0.16845703125;-0.82861328125;-0.48577880859375;-0.22174072265625;12.207794720674187;15.023910029333061;0.21567127397795582;-0.533203125;0.6611328125;-0.40966796875;-1.25;13.9375;15.1875;
1441976010709833;0.1678466796875;-0.82940673828125;-0.48565673828125;-0.21929931640625;12.178854769751222;15.027771530826902;0.22069005833790153;-0.5283203125;0.6484375;-0.40771484375;-1.125;12.625;13.875;
1441976010732834;0.1671142578125;-0.83026123046875;-0.4854736328125;-0.21697998046875;12.150317128862628;15.031836076383767;0.2247439367401024;-0.5224609375;0.64404296875;-0.40087890625;0.0;11.9375;13.375;
1441976010753836;0.16650390625;-0.83111572265625;-0.48529052734375;-0.2147216796875;12.123010824742245;15.036030737568781;0.2292595075866029;-0.5126953125;0.65087890625;-0.400390625;1.125;11.25;12.8125;
1441976010769836;0.166015625;-0.83184814453125;-0.485107421875;-0.2125244140625;12.097288106738617;15.039973006686886;0.23415610927323505;-0.51025390625;0.6552734375;-0.412109375;0.75;11.0;12.25;
1441976010792838;0.165771484375;-0.83245849609375;-0.48504638671875;-0.21063232421875;12.076020977941187;15.043026596241054;0.23916300047453357;-0.5087890625;0.6630859375;-0.4130859375;0.4375;10.6875;11.1875;
1441976010813839;0.16571044921875;-0.83294677734375;-0.48492431640625;-0.20904541015625;12.0590888313997;15.046129236816174;0.24425352842134876;-0.51123046875;0.65673828125;-0.4150390625;-0.5625;10.1875;9.875;
1441976010829840;0.16571044921875;-0.8333740234375;-0.4847412109375;-0.207763671875;12.045664875827859;15.049275987364402;0.24878765902962255;-0.509765625;0.650390625;-0.41162109375;-0.8125;9.0;8.25;
1441976010852841;0.16583251953125;-0.8338623046875;-0.48431396484375;-0.20654296875;12.033554608234663;15.054128250130253;0.2542435633069606;-0.50341796875;0.646484375;-0.40234375;0.125;8.3125;6.5625;
1441976010873842;0.166015625;-0.83441162109375;-0.48388671875;-0.20538330078125;12.022169683374353;15.05921313752112;0.2598723814215808;-0.49658203125;0.6474609375;-0.404296875;1.375;8.375;5.75;
1441976010889843;0.16632080078125;-0.83465576171875;-0.48370361328125;-0.2044677734375;12.014404178735711;15.062032416534919;0.26483897869401846;-0.48486328125;0.66552734375;-0.42529296875;1.1875;7.1875;3.9375;
1441976010912845;0.1668701171875;-0.8348388671875;-0.48345947265625;-0.20391845703125;12.01171114277069;15.065186656811118;0.27011077605726164;-0.4755859375;0.6767578125;-0.42822265625;-0.8125;5.6875;1.875;
1441976010933846;0.16729736328125;-0.83514404296875;-0.4827880859375;-0.2037353515625;12.01199395673678;15.070696027968957;0.2743498441016396;-0.4716796875;0.6591796875;-0.42822265625;-0.75;4.1875;0.0;
1441976010949847;0.16766357421875;-0.83544921875;-0.482177734375;-0.20379638671875;12.014252389067021;15.07562352228242;0.2774018085295177;-0.470703125;0.662109375;-0.43359375;1.8125;2.625;-1.1875;
1441976010972848;0.16796875;-0.83551025390625;-0.48199462890625;-0.20379638671875;12.015866715455054;15.077342723842545;0.27945353432460057;-0.47265625;0.68359375;-0.43798828125;2.375;1.3125;-1.75;
1441976010993849;0.1680908203125;-0.83563232421875;-0.48175048828125;-0.20355224609375;12.014027483834383;15.07942653791229;0.2813560981994282;-0.46044921875;0.7021484375;-0.43310546875;0.5625;0.25;-2.6875;
1441976011009850;0.16790771484375;-0.83599853515625;-0.48150634765625;-0.20294189453125;12.006321803755943;15.081952864471116;0.2827937356525816;-0.4462890625;0.7236328125;-0.4423828125;1.1875;0.375;-2.625;
1441976011032852;0.167236328125;-0.8365478515625;-0.48126220703125;-0.20172119140625;11.989588760020283;15.084566363693101;0.2834392239969049;-0.427734375;0.74267578125;-0.45166015625;2.125;1.0625;-1.375;
1441976011053853;0.1663818359375;-0.8367919921875;-0.4818115234375;-0.20013427734375;11.968435450174184;15.081706318769424;0.28269933911584005;-0.4033203125;0.78271484375;-0.46142578125;3.4375;1.375;0.375;
1441976011069854;0.16546630859375;-0.8369140625;-0.4825439453125;-0.19854736328125;11.947128514633377;15.07736384015248;0.28127062619915416;-0.4091796875;0.80322265625;-0.4638671875;-0.875;1.875;2.4375;
1441976011092855;0.1644287109375;-0.83734130859375;-0.48291015625;-0.19677734375;11.922883838049172;15.075907026494878;0.28048638021958217;-0.40966796875;0.77294921875;-0.4599609375;-2.8125;2.0;4.4375;
1441976011113856;0.1632080078125;-0.83782958984375;-0.48309326171875;-0.1951904296875;11.899454181650913;15.075274756495448;0.2784596739552152;-0.4140625;0.7548828125;-0.453125;-0.6875;3.1875;6.3125;
1441976011129857;0.161865234375;-0.83807373046875;-0.483642578125;-0.19378662109375;11.877489821852489;15.071593473240966;0.2745073418390878;-0.40380859375;0.73388671875;-0.43017578125;1.125;2.875;7.125;
1441976011151858;0.16070556640625;-0.83807373046875;-0.48431396484375;-0.1932373046875;11.865358637811404;15.066352353186968;0.2686886331478936;-0.37646484375;0.70947265625;-0.4033203125;-0.0625;1.25;6.6875;
1441976011173860;0.159912109375;-0.83770751953125;-0.4849853515625;-0.19384765625;11.867435778444332;15.059961062727096;0.26120020088206125;-0.35791015625;0.68359375;-0.3876953125;-1.125;-2.8125;3.8125;
1441976011189860;0.15972900390625;-0.8370361328125;-0.48516845703125;-0.19635009765625;11.892434124960712;15.055238023349668;0.2519115469461507;-0.369140625;0.63818359375;-0.3662109375;-1.625;-6.75;0.1875;
1441976011211862;0.16021728515625;-0.8360595703125;-0.48480224609375;-0.20086669921875;11.941934909156013;15.052460378293594;0.24082633906408324;-0.38818359375;0.576171875;-0.3505859375;-0.5;-12.9375;-5.4375;
1441976011233863;0.16131591796875;-0.8348388671875;-0.48388671875;-0.207275390625;12.014274745723794;15.051688832564015;0.22797185206475043;-0.4169921875;0.51953125;-0.32421875;2.125;-19.0625;-12.5;
1441976011249864;0.162841796875;-0.83343505859375;-0.482177734375;-0.2156982421875;12.109773917639385;15.053991667172337;0.21236077636076142;-0.4296875;0.44775390625;-0.29052734375;4.3125;-25.3125;-18.75;
1441976011272865;0.1646728515625;-0.8319091796875;-0.47930908203125;-0.2261962890625;12.228688050434117;15.061251797639805;0.19379604184241747;-0.43994140625;0.375;-0.2490234375;9.25;-31.5;-25.0625;
1441976011295867;0.1666259765625;-0.8299560546875;-0.47601318359375;-0.23846435546875;12.367195972669382;15.06806626286498;0.17069523091821828;-0.46240234375;0.34130859375;-0.22314453125;16.0625;-38.5625;-31.875;
1441976011309867;0.16925048828125;-0.8271484375;-0.47265625;-0.252685546875;12.53077939325141;15.071481659176348;0.1444160688500484;-0.49267578125;0.32861328125;-0.21435546875;18.625;-45.8125;-37.5625;
1441976011331869;0.17230224609375;-0.82391357421875;-0.4683837890625;-0.26873779296875;12.716878398453892;15.077143972855241;0.11570541589907599;-0.51953125;0.26708984375;-0.18359375;17.375;-53.1875;-44.125;
1441976011355870;0.17584228515625;-0.8203125;-0.4630126953125;-0.2860107421875;12.920231970614172;15.086937323772739;0.08739936224963779;-0.5322265625;0.20556640625;-0.13525390625;22.0;-58.8125;-50.875;
1441976011369871;0.1796875;-0.81646728515625;-0.45684814453125;-0.30413818359375;13.135636865528229;15.0994811588382;0.059261353283739986;-0.56396484375;0.15673828125;-0.09521484375;27.1875;-60.5;-55.8125;
1441976011391872;0.18389892578125;-0.8118896484375;-0.4500732421875;-0.3232421875;13.36606516533043;15.11193721322727;0.03027704959213914;-0.6005859375;0.154296875;-0.0625;32.3125;-61.3125;-60.5;
1441976011415873;0.18890380859375;-0.8062744140625;-0.44287109375;-0.34368896484375;13.618019085751314;15.122432209795694;8.142462931343169E-4;-0.63037109375;0.1572265625;-0.046875;34.0625;-65.0;-66.875;
1441976011436875;0.19482421875;-0.799560546875;-0.4349365234375;-0.36566162109375;13.894768146862376;15.132548631814497;17.97151159284562;-0.69775390625;0.1630859375;-0.04345703125;33.75;-69.4375;-74.875;
1441976011452876;0.20123291015625;-0.7919921875;-0.42559814453125;-0.38873291015625;14.190982175602167;15.147304959937768;17.94362802092141;-0.80322265625;0.13623046875;-0.04443359375;33.375;-73.8125;-82.25;
1441976011475877;0.20806884765625;-0.78338623046875;-0.41571044921875;-0.41259765625;14.502555369850832;15.160317848141;17.9147995182043;-0.91796875;0.10595703125;-0.0693359375;36.0;-77.5;-87.4375;
1441976011496878;0.2139892578125;-0.77459716796875;-0.4071044921875;-0.43426513671875;14.78758465648762;15.161734151349883;17.881070155237182;-1.03759765625;0.1181640625;-0.08984375;35.75;-81.75;-92.8125;
1441976011512879;0.22137451171875;-0.763427734375;-0.3988037109375;-0.4573974609375;15.103018996445698;15.148265573153822;17.8413188833568;-1.1513671875;0.11962890625;-0.07080078125;29.625;-89.25;-102.0;
1441976011535880;0.22991943359375;-0.75030517578125;-0.3900146484375;-0.4818115234375;15.446045935305722;15.124225593762539;17.795130879044457;-1.193359375;0.09375;-0.05029296875;20.5625;-98.3125;-114.375;
1441976011556881;0.23828125;-0.73583984375;-0.37939453125;-0.5078125;15.813967490073871;15.091854488300193;17.73304232449688;-1.2412109375;0.0146484375;-0.0390625;16.75;-106.1875;-125.1875;
1441976011571882;0.24609375;-0.72003173828125;-0.3670654296875;-0.53509521484375;16.20206521437593;15.038683945425245;17.64234417884192;-1.322265625;-0.02880859375;-0.04150390625;24.5;-115.3125;-134.8125;
1441976011595884;0.25439453125;-0.70245361328125;-0.35382080078125;-0.562744140625;16.60714118257398;14.944350997953448;17.511838274806376;-1.423828125;-0.07080078125;-0.04296875;31.3125;-124.25;-142.1875;
1441976011616885;0.2655029296875;-0.68182373046875;-0.3408203125;-0.59033203125;17.03865711417479;14.752764217466492;17.30106177372933;-1.52294921875;0.0107421875;-0.056640625;31.1875;-129.625;-152.625;
1441976011631886;0.277099609375;-0.65887451171875;-0.32666015625;-0.618408203125;17.48139114401939;14.19660264812179;16.726569621440404;-1.58251953125;-0.0234375;-0.05078125;14.375;-135.375;-168.0625;
1441976011655887;0.2867431640625;-0.634765625;-0.3101806640625;-0.64703369140625;17.78563506760343;10.869986466844628;13.367088866208796;-1.654296875;-0.142578125;-0.01806640625;14.0;-142.875;-178.0;
1441976011676888;0.29547119140625;-0.60906982421875;-0.29229736328125;-0.675537109375;17.46062845678042;7.63399248756788;10.092626501006423;-1.71533203125;-0.09765625;-0.04931640625;28.1875;-151.25;-184.625;
1441976011692889;0.30450439453125;-0.5811767578125;-0.27435302734375;-0.70306396484375;16.98128556029833;7.09213312300199;9.5184279689147;-1.7568359375;-0.015625;-0.107421875;33.6875;-158.625;-192.3125;
1441976011716891;0.31292724609375;-0.55181884765625;-0.25555419921875;-0.7296142578125;16.48181831104322;6.909603680898256;9.301951994970699;-1.7998046875;-0.0029296875;-0.13623046875;27.6875;-165.4375;-198.0;
1441976011736892;0.31982421875;-0.5220947265625;-0.235107421875;-0.75494384765625;15.9819359298438;6.826004877705968;9.174719833801714;-1.82666015625;-0.0390625;-0.17822265625;29.5625;-170.0;-201.625;
1441976011751893;0.32452392578125;-0.49224853515625;-0.2130126953125;-0.7791748046875;15.48568658061112;6.7922007353468015;9.083983955094139;-1.8349609375;-0.05029296875;-0.2099609375;38.625;-169.0;-204.875;
1441976011775894;0.32672119140625;-0.46258544921875;-0.1903076171875;-0.80194091796875;15.00242555300755;6.793134147666918;9.016959595913958;-1.73291015625;-0.029296875;-0.20263671875;50.875;-167.125;-205.625;
1441976011796895;0.32843017578125;-0.4327392578125;-0.16827392578125;-0.82257080078125;14.532511568837977;6.803880802623031;8.962664187072432;-1.58740234375;0.0537109375;-0.19580078125;61.0625;-164.6875;-201.25;
1441976011811896;0.3304443359375;-0.4031982421875;-0.1474609375;-0.840576171875;14.08263024997468;6.813931452355648;8.91579822207818;-1.416015625;0.126953125;-0.16650390625;56.5625;-161.375;-195.9375;
1441976011842898;0.33306884765625;-0.37554931640625;-0.12890625;-0.85528564453125;13.673558391576673;6.818693612860751;8.875979321552553;-1.29150390625;0.12646484375;-0.14404296875;47.8125;-154.9375;-187.5625;
1441976011856899;0.33551025390625;-0.351806640625;-0.1119384765625;-0.86669921875;13.322865763889272;6.8182608720142355;8.834639816169675;-1.17236328125;0.13232421875;-0.140625;34.6875;-141.5625;-171.875;
1441976011871900;0.33740234375;-0.332763671875;-0.0968017578125;-0.87530517578125;13.037562800496708;6.815736211322531;8.792681401065053;-1.02734375;0.166015625;-0.1396484375;28.4375;-117.625;-152.9375;
1441976011895901;0.337646484375;-0.31787109375;-0.08349609375;-0.882080078125;12.810525006402633;6.8205624550424595;8.75449853581492;-0.8701171875;0.1845703125;-0.17724609375;25.25;-91.9375;-131.5;
1441976011916902;0.334228515625;-0.31231689453125;-0.07550048828125;-0.88604736328125;12.715011317148289;6.842536968863625;8.730128166583404;-0.759765625;0.255859375;-0.23974609375;28.4375;-71.625;-109.3125;
1441976011940903;0.33184814453125;-0.30859375;-0.07037353515625;-0.888671875;12.652389492622937;6.85831908225678;8.715297771749274;-0.611328125;0.4716796875;-0.30810546875;29.4375;-58.5;-89.9375;
1441976011955904;0.33056640625;-0.310302734375;-0.06988525390625;-0.88861083984375;12.670072507066536;6.863293143990785;8.710287539026202;-0.43994140625;0.521484375;-0.3427734375;16.375;-46.3125;-67.75;
1441976011976906;0.3311767578125;-0.32098388671875;-0.07427978515625;-0.88421630859375;12.808268010764401;6.844380444932179;8.70379053902128;-0.38330078125;0.5595703125;-0.3828125;-0.625;-21.75;-34.0625;
1441976011992906;0.33197021484375;-0.34197998046875;-0.084228515625;-0.8751220703125;13.08752191145963;6.809898341580689;8.697755685130089;-0.4267578125;0.548828125;-0.4482421875;-19.875;18.4375;4.625;
1441976012015908;0.3316650390625;-0.36993408203125;-0.0987548828125;-0.86224365234375;13.470081222701477;6.7713082286820905;8.696822937643375;-0.640625;0.5654296875;-0.53955078125;-32.8125;56.1875;44.625;
1441976012036909;0.335205078125;-0.39031982421875;-0.11273193359375;-0.85009765625;13.765758011786017;6.716172363188823;8.70172843939225;-0.728515625;0.73779296875;-0.6494140625;-41.5625;80.625;73.0;
1441976012051910;0.33734130859375;-0.41595458984375;-0.13037109375;-0.83441162109375;14.145044124657133;6.658701050905035;8.709583992333046;-0.93896484375;0.92919921875;-0.833984375;-58.3125;101.875;107.0;
1441976012082912;0.3331298828125;-0.45013427734375;-0.1497802734375;-0.81488037109375;14.644475945943451;6.620918280079542;8.710317561382206;-1.201171875;0.8359375;-0.88671875;-63.875;127.4375;140.6875;
1441976012096912;0.32379150390625;-0.494140625;-0.17413330078125;-0.787841796875;15.304282811408111;6.588608708949925;8.711236705489515;-1.34521484375;0.83154296875;-0.9296875;-38.3125;169.375;183.6875;
1441976012111913;0.31304931640625;-0.54449462890625;-0.2047119140625;-0.75079345703125;16.103331385840736;6.525298708642673;8.704089615372746;-1.71630859375;0.88330078125;-0.9609375;-33.125;221.125;245.25;
1441976012141915;0.2984619140625;-0.5987548828125;-0.23992919921875;-0.70355224609375;17.026265254662626;6.417718842098377;8.663804147226863;-2.2099609375;0.9150390625;-0.91455078125;-56.625;265.375;299.5625;
1441976012156916;0.27392578125;-0.65625;-0.273193359375;-0.6478271484375;17.93149345140889;17.110474779025424;1.386499293785611;-2.62255859375;0.68994140625;-0.76513671875;-68.625;301.3125;350.75;
1441976012171917;0.241943359375;-0.71405029296875;-0.30230712890625;-0.58331298828125;16.83119174274395;15.62290409693833;17.898733773663757;-2.9453125;0.54736328125;-0.72802734375;-31.5625;333.75;394.6875;
1441976012194918;0.21405029296875;-0.76434326171875;-0.33319091796875;-0.5089111328125;15.70086018814839;15.586822541650236;17.912612453717543;-3.1884765625;0.76220703125;-0.85986328125;-1.6875;362.875;422.25;
1441976012217919;0.20123291015625;-0.79742431640625;-0.38140869140625;-0.4222412109375;14.577127295909857;15.440699901200322;17.994108739560417;-3.3427734375;1.3720703125;-1.10107421875;-49.375;383.25;417.875;
1441976012238920;0.190673828125;-0.809326171875;-0.44158935546875;-0.337158203125;13.557037859758514;15.156872485587352;0.04445810026594857;-3.51171875;1.41650390625;-1.134765625;-218.125;394.5;404.9375;
1441976012254921;0.16619873046875;-0.81787109375;-0.484130859375;-0.26300048828125;12.623321597569499;14.957692372059528;0.06110459576284993;-3.732421875;1.10986328125;-0.9697265625;-323.5;327.0625;395.625;
1441976012277923;0.13873291015625;-0.83001708984375;-0.50384521484375;-0.195068359375;11.761834169546985;14.900914225566954;0.10908176598334926;-3.41796875;0.68212890625;-0.8740234375;-209.9375;252.8125;394.1875;
1441976012291924;0.11614990234375;-0.83355712890625;-0.52203369140625;-0.138671875;11.06360152998971;14.821465503499528;0.14960636884115586;-3.0244140625;0.39208984375;-1.20849609375;-82.4375;242.375;359.25;
1441976012314925;0.10003662109375;-0.82464599609375;-0.54852294921875;-0.095703125;10.55193891385466;14.661296663359064;0.17848847901563214;-2.8173828125;0.80712890625;-1.00439453125;-96.25;192.75;293.875;
1441976012337926;0.08648681640625;-0.81182861328125;-0.574462890625;-0.0589599609375;10.125009414220592;14.492554984553493;0.21249321788465142;-2.6962890625;0.47509765625;-0.5986328125;-169.3125;132.4375;221.1875;
1441976012358927;0.07489013671875;-0.80255126953125;-0.59112548828125;-0.02984619140625;9.784205752308441;14.379483257170662;0.24587393096333476;-2.2939453125;-0.18896484375;-0.3447265625;-176.4375;109.125;186.4375;
1441976012374928;0.0645751953125;-0.795654296875;-0.602294921875;-0.0076904296875;9.516473508957016;14.299653809619706;0.2693180351599483;-1.9228515625;-0.322265625;-0.2451171875;-118.6875;85.8125;150.8125;
1441976012397930;0.06524658203125;-0.7911376953125;-0.60821533203125;-0.00213623046875;9.474613012811062;14.256762097569693;0.28977174529037003;-1.51123046875;-0.4462890625;-0.1796875;-82.6875;61.0;121.625;
1441976012418931;0.06671142578125;-0.78582763671875;-0.6148681640625;0.00286865234375;9.444633514099065;14.20799632288483;0.31201084047213634;-1.13720703125;-0.33984375;-0.1572265625;-60.5625;45.25;91.125;
1441976012434932;0.069091796875;-0.7772216796875;-0.62542724609375;0.00811767578125;9.423227499640534;14.130170595100507;0.33844861562273665;-0.8017578125;-0.15966796875;-0.12255859375;-61.1875;38.5;62.875;
1441976012457933;0.07318115234375;-0.76593017578125;-0.638671875;0.01312255859375;9.420756075810278;14.031345971578453;0.37117822959496805;-0.48388671875;-0.05908203125;0.02294921875;-79.25;35.875;36.8125;
1441976012478934;0.07867431640625;-0.752197265625;-0.654052734375;0.0166015625;9.446988111585622;13.915015435089382;0.4038216112088978;-0.220703125;-0.06005859375;0.09619140625;-95.375;35.8125;9.8125;
1441976012494935;0.08673095703125;-0.739013671875;-0.66796875;0.01605224609375;9.528626873278636;13.80905208003983;0.43209720587805817;-0.0244140625;-0.0869140625;0.19189453125;-115.75;30.25;-18.0625;
1441976012517936;0.09619140625;-0.72491455078125;-0.6820068359375;0.01220703125;9.65173554986706;13.700472206377519;0.45199255265025917;-0.01708984375;0.16748046875;0.12841796875;-106.125;22.875;-44.0625;
1441976012538938;0.10626220703125;-0.71063232421875;-0.695556640625;0.00518798828125;9.807290200288534;13.59393932240336;0.45979089914363647;-0.0986328125;0.37646484375;0.091796875;-108.5;14.5;-62.25;
1441976012554939;0.1171875;-0.69793701171875;-0.70654296875;-0.00604248046875;10.00213513946324;13.504681916276752;0.4528837806902975;-0.2412109375;0.50341796875;0.0400390625;-106.4375;4.0625;-74.9375;
1441976012577940;0.12615966796875;-0.689208984375;-0.71331787109375;-0.018798828125;10.188076805749414;13.446573950627709;0.43217568686864233;-0.337890625;0.47705078125;0.01806640625;-86.9375;-7.875;-80.125;
1441976012598941;0.1324462890625;-0.68487548828125;-0.71588134765625;-0.0325927734375;10.354692839476241;13.420580085320314;0.3983119953679982;-0.400390625;0.57421875;0.05029296875;-51.6875;-19.375;-74.375;
1441976012614942;0.136962890625;-0.6837158203125;-0.71533203125;-0.04632568359375;10.502712983755668;13.418068132970285;0.35986526999487967;-0.37744140625;0.7060546875;0.0908203125;-13.75;-30.1875;-69.8125;
1441976012637943;0.14031982421875;-0.68475341796875;-0.71270751953125;-0.05938720703125;10.633956891084582;13.431626652763873;0.32163640144653055;-0.3662109375;0.82568359375;0.1162109375;13.0625;-34.25;-65.125;
1441976012658945;0.14300537109375;-0.68603515625;-0.7098388671875;-0.0712890625;10.750690125308228;13.446353555452294;0.2858514119728803;-0.349609375;0.935546875;0.10595703125;29.75;-33.3125;-61.625;
1441976012674945;0.14501953125;-0.685791015625;-0.7086181640625;-0.08160400390625;10.850633129342919;13.447260736827275;0.2518003714387924;-0.3330078125;1.021484375;0.0908203125;29.75;-31.6875;-58.25;
1441976012697947;0.14715576171875;-0.6832275390625;-0.7095947265625;-0.090087890625;10.938482870429146;13.429585402382394;0.22259861172590945;-0.2880859375;1.12109375;0.06982421875;14.875;-30.1875;-56.375;
1441976012718948;0.1495361328125;-0.678955078125;-0.71221923828125;-0.097412109375;11.019718434440795;13.398021074975526;0.19640892895314174;-0.2822265625;1.16796875;0.0615234375;-6.0;-25.875;-53.375;
1441976012765951;0.15142822265625;-0.6749267578125;-0.71478271484375;-0.10357666015625;11.087035368790344;13.36756042254382;0.17281192372425472;-0.2998046875;1.10107421875;0.0771484375;-20.3125;-22.375;-48.0625;
1441976012766951;0.1527099609375;-0.67169189453125;-0.71685791015625;-0.1085205078125;11.138738853635871;13.342506957892827;0.15252968399728065;-0.3193359375;1.09228515625;0.064453125;-21.0;-19.875;-41.1875;
1441976012786952;0.15289306640625;-0.66961669921875;-0.718017578125;-0.1129150390625;11.176227856683948;13.325509540857759;0.13147267349378491;-0.34375;1.0712890625;0.060546875;-17.75;-17.4375;-31.8125;
1441976012795952;0.15216064453125;-0.66986083984375;-0.71728515625;-0.1170654296875;11.203015129756208;13.325802359529316;0.11101092799656981;-0.36083984375;1.05908203125;0.08203125;-8.125;-17.6875;-24.0625;
