1441975386664140;-0.91949462890625;-0.3468017578125;-0.1715087890625;-0.0701904296875;7.453223761765434;17.25439050105672;11.16829921125986;1.1376953125;1.19873046875;0.0966796875;27.9375;-68.4375;-119.1875;
1441975386685141;-0.913818359375;-0.35406494140625;-0.180419921875;-0.0841064453125;7.4325619951381645;17.1501145797365;11.23574952451687;1.013671875;0.521484375;0.08642578125;-62.75;-47.875;-88.0;
1441975386709142;-0.90789794921875;-0.36273193359375;-0.18865966796875;-0.0931396484375;7.40400811754575;17.072242305871185;11.308998937086724;0.88037109375;0.15234375;-0.005859375;-77.125;-28.25;-72.8125;
1441975386724143;-0.90057373046875;-0.3756103515625;-0.197021484375;-0.0960693359375;7.358160633348525;17.02248386016603;11.406376466387803;0.84765625;0.13671875;-0.0419921875;-50.75;-17.9375;-77.9375;
1441975386745144;-0.892333984375;-0.39154052734375;-0.20220947265625;-0.0982666015625;7.350718330783849;16.98174295970524;11.51821743274206;0.8330078125;0.220703125;-0.11279296875;-12.1875;1.9375;-94.875;
1441975386768146;-0.88262939453125;-0.4078369140625;-0.2117919921875;-0.09912109375;7.296213770189462;16.93370449439407;11.641572248883582;0.84375;0.24169921875;-0.2060546875;-6.6875;28.0625;-103.375;
1441975386782146;-0.871337890625;-0.42437744140625;-0.2261962890625;-0.097900390625;7.187627608615873;16.878688400144057;11.777896957330615;0.8662109375;0.353515625;-0.2998046875;-9.25;55.4375;-104.0625;
1441975386805148;-0.8585205078125;-0.44036865234375;-0.2449951171875;-0.09539794921875;7.032948901890429;16.811520858257722;11.924459001897418;0.91162109375;0.43994140625;-0.373046875;-9.75;86.6875;-104.0625;
1441975386828149;-0.8446044921875;-0.45538330078125;-0.266845703125;-0.09051513671875;6.839091334622132;16.739908613802005;12.077494785790302;0.91748046875;0.44189453125;-0.3759765625;-16.0;114.125;-100.625;
1441975386842150;-0.82977294921875;-0.46893310546875;-0.2911376953125;-0.08319091796875;6.610307152608941;16.664075852796543;12.234926515070796;0.91455078125;0.408203125;-0.3515625;-14.3125;136.5625;-93.75;
1441975386865151;-0.814208984375;-0.48004150390625;-0.318115234375;-0.07464599609375;6.349388646782745;16.575339597029306;12.394502262684737;0.92724609375;0.4287109375;-0.38330078125;-11.8125;156.0;-84.1875;
1441975386887152;-0.798095703125;-0.48773193359375;-0.34796142578125;-0.064453125;6.049453351783726;16.472871383609146;12.554223010387812;0.96533203125;0.46337890625;-0.41064453125;-17.6875;172.4375;-71.375;
1441975386903153;-0.7813720703125;-0.49200439453125;-0.380126953125;-0.05419921875;5.726975233750979;16.347713094074848;12.717585857007716;1.06103515625;0.5146484375;-0.49609375;-24.75;190.1875;-52.75;
1441975386925155;-0.76458740234375;-0.492919921875;-0.4129638671875;-0.0445556640625;5.401897381755227;16.20190297199978;12.882579506141825;1.09912109375;0.4638671875;-0.48046875;-39.25;201.9375;-38.25;
1441975386948156;-0.74847412109375;-0.48956298828125;-0.4459228515625;-0.03741455078125;5.089036437727663;16.029789577331528;13.043666136020232;1.0693359375;0.34765625;-0.36279296875;-51.875;202.75;-25.625;
1441975386962157;-0.73333740234375;-0.48040771484375;-0.4801025390625;-0.0318603515625;4.766357849442801;15.829592819751756;13.199087519061084;1.0556640625;0.28662109375;-0.21923828125;-73.0625;193.3125;-11.375;
1441975386985158;-0.71942138671875;-0.4630126953125;-0.5169677734375;-0.0296630859375;4.424960224769677;15.58272167137514;13.348814929026819;1.28857421875;0.4130859375;-0.29150390625;-97.75;190.1875;12.0625;
1441975387008159;-0.70794677734375;-0.43328857421875;-0.5567626953125;-0.0341796875;4.065588057257732;15.271803213108694;13.47962870627489;1.546875;0.5068359375;-0.572265625;-144.0625;190.4375;39.8125;
1441975387022160;-0.69891357421875;-0.39373779296875;-0.59552001953125;-0.04364013671875;3.7058362877521844;14.921728614556354;13.591706365587267;1.41015625;0.40234375;-0.5673828125;-217.3125;179.125;78.125;
1441975387045161;-0.69189453125;-0.34515380859375;-0.63165283203125;-0.05743408203125;3.3455318376234446;14.538741022577387;13.68770344209171;1.23046875;0.27001953125;-0.3701171875;-265.0625;153.75;108.375;
1441975387068163;-0.685546875;-0.287841796875;-0.66473388671875;-0.07373046875;2.967472559792735;14.115235516101459;13.785790471210296;1.26904296875;0.2421875;-0.3203125;-307.1875;125.4375;132.9375;
1441975387082164;-0.679931640625;-0.225341796875;-0.6920166015625;-0.0902099609375;2.5803512628333594;13.67160218553378;13.890925643171336;1.24658203125;0.30712890625;-0.373046875;-343.0625;106.1875;160.875;
1441975387105165;-0.67608642578125;-0.1649169921875;-0.71075439453125;-0.10321044921875;2.204120857016427;13.25901897931951;13.995746675892324;1.095703125;0.11328125;-0.380859375;-354.3125;80.1875;178.8125;
1441975387127166;-0.67474365234375;-0.111328125;-0.72137451171875;-0.10986328125;1.839450784730642;12.907776160055285;14.098235461015408;1.03125;-0.03564453125;-0.294921875;-318.875;45.0625;181.3125;
1441975387142167;-0.67633056640625;-0.067138671875;-0.7255859375;-0.10821533203125;1.4798800887629362;12.631605778912634;14.200563533876243;1.01123046875;-0.06787109375;-0.2421875;-256.6875;13.5;179.0625;
1441975387166168;-0.68017578125;-0.02923583984375;-0.7254638671875;-0.101318359375;1.1214585038161813;12.396659332377844;14.309779685416856;1.0146484375;-0.01806640625;-0.24267578125;-179.375;-12.125;176.5;
1441975387187170;-0.68536376953125;0.003662109375;-0.72271728515625;-0.0897216796875;0.760698544563591;12.137140552379538;14.483430068014549;1.0654296875;0.0439453125;-0.27392578125;-129.5;-31.4375;174.625;
1441975387219171;-0.6915283203125;0.033935546875;-0.71759033203125;-0.075927734375;0.4005307738283467;11.685826244342714;14.868363594030113;1.07763671875;0.10791015625;-0.2646484375;-88.9375;-44.0;175.25;
1441975387225172;-0.69805908203125;0.0640869140625;-0.7105712890625;-0.0615234375;0.10348716732670774;8.166293975416208;0.3241360326279452;1.08349609375;0.1689453125;-0.2802734375;-68.9375;-55.875;175.1875;
1441975387247173;-0.704345703125;0.0948486328125;-0.701904296875;-0.04827880859375;0.3779160211794198;4.059375611445857;4.35947194915112;1.05712890625;0.1904296875;-0.2890625;-65.6875;-65.25;177.875;
1441975387265174;-0.71075439453125;0.12506103515625;-0.69134521484375;-0.03631591796875;0.7365594776182509;3.554880101334546;4.788553788844393;1.00927734375;0.15283203125;-0.23583984375;-73.3125;-72.1875;175.25;
1441975387288175;-0.71710205078125;0.1539306640625;-0.6793212890625;-0.0255126953125;1.0862433384409027;3.314176832784562;4.953573156639617;0.98779296875;0.1181640625;-0.20849609375;-76.9375;-80.125;167.625;
1441975387307176;-0.72344970703125;0.180419921875;-0.666259765625;-0.01531982421875;1.4193462837951145;3.143840254277768;5.054426111432582;1.01318359375;0.0859375;-0.1865234375;-77.125;-86.0;157.875;
1441975387322177;-0.72998046875;0.20361328125;-0.6524658203125;-0.00531005859375;1.7317395387771874;3.002807615223453;5.13780829279062;1.01611328125;0.08251953125;-0.16943359375;-71.3125;-90.4375;146.3125;
1441975387345179;-0.73681640625;0.2227783203125;-0.63836669921875;0.00445556640625;2.016959560153679;2.8777128805639434;5.220193449014278;0.98046875;0.06591796875;-0.1162109375;-59.875;-95.3125;131.75;
1441975387367180;-0.7440185546875;0.2376708984375;-0.62432861328125;0.01409912109375;2.2736957272655;2.7647204375937706;5.307333563604454;0.9248046875;0.03076171875;-0.07421875;-46.6875;-98.125;113.4375;
1441975387382181;-0.75177001953125;0.2484130859375;-0.6104736328125;0.02288818359375;2.4982419168025927;2.6544384978075675;5.405533140011864;0.88916015625;0.009765625;-0.05810546875;-31.625;-100.0625;94.3125;
1441975387413183;-0.7601318359375;0.25531005859375;-0.59674072265625;0.03094482421875;2.6954608713874384;2.5446793637920426;5.516403904721355;0.88330078125;0.02392578125;-0.068359375;-20.1875;-100.5;73.5;
1441975387427183;-0.76959228515625;0.2593994140625;-0.58233642578125;0.0364990234375;2.8672044554572165;2.4155172561142915;5.648236742044397;0.875;0.0556640625;-0.07666015625;-9.375;-102.4375;53.9375;
1441975387442184;-0.78009033203125;0.26171875;-0.567138671875;0.03814697265625;3.014572069880484;2.2598474627958214;5.79791962439329;0.837890625;0.07470703125;-0.10400390625;-11.4375;-105.4375;31.875;
1441975387481186;-0.791015625;0.26129150390625;-0.552001953125;0.03692626953125;3.1356541603529533;2.0902234303156835;5.961348784851655;0.81591796875;0.083984375;-0.083984375;-24.375;-107.75;9.5;
1441975387496187;-0.80242919921875;0.2576904296875;-0.5372314453125;0.03399658203125;3.2370919685721575;1.912182521608421;6.139849778686103;0.833984375;0.06201171875;-0.083984375;-28.5625;-105.9375;-12.9375;
1441975387502188;-0.81414794921875;0.2510986328125;-0.522705078125;0.0301513671875;3.3283827498668255;1.729783626650141;6.331748723432728;0.83984375;0.017578125;-0.1044921875;-26.0625;-103.9375;-34.4375;
1441975387526189;-0.82586669921875;0.2418212890625;-0.5087890625;0.02569580078125;3.411569871943482;1.5477963413461029;6.532377579291109;0.86572265625;0.00732421875;-0.09814453125;-20.4375;-103.6875;-52.0;
1441975387547190;-0.836181640625;0.22869873046875;-0.498291015625;0.01788330078125;3.4406679845717694;1.3571799561001017;6.745099853721762;0.8837890625;0.03125;-0.115234375;-14.4375;-100.9375;-66.125;
1441975387570191;-0.84588623046875;0.21417236328125;-0.48846435546875;0.00885009765625;3.466185671155532;1.1607705697858404;6.964455654055228;0.9111328125;0.05908203125;-0.14501953125;-10.8125;-94.8125;-77.75;
1441975387593193;-0.85467529296875;0.19891357421875;-0.4796142578125;-6.103515625E-4;3.491349922062074;0.9680835298057847;7.18144177495732;0.93310546875;0.10107421875;-0.20361328125;-9.25;-87.0;-86.3125;
1441975387607194;-0.86248779296875;0.18341064453125;-0.4716796875;-0.01031494140625;3.5181845360082167;0.7813793703152585;7.3924408291827834;0.94677734375;0.1181640625;-0.248046875;-7.5625;-78.5;-91.375;
1441975387631195;-0.86883544921875;0.1676025390625;-0.4654541015625;-0.02032470703125;3.5353508671801763;0.6020247472589452;7.596269564998958;0.97216796875;0.111328125;-0.29931640625;-6.625;-70.0;-94.25;
1441975387645196;-0.8748779296875;0.15203857421875;-0.45904541015625;-0.0284423828125;3.5726027734371533;0.4423968250415434;7.787065594704166;1.00732421875;0.1142578125;-0.32470703125;-6.25;-58.25;-96.875;
1441975387667197;-0.8800048828125;0.13525390625;-0.4539794921875;-0.035888671875;3.6036179306382254;0.2909023460811842;7.978019108352261;1.01806640625;0.08544921875;-0.34326171875;-3.125;-43.8125;-103.0625;
1441975387690198;-0.8836669921875;0.1182861328125;-0.45098876953125;-0.0426025390625;3.6188964370763506;0.15240360569246508;8.16022998677041;0.9755859375;0.06201171875;-0.35009765625;4.1875;-34.4375;-107.1875;
1441975387705199;-0.88519287109375;0.101806640625;-0.45111083984375;-0.05108642578125;3.6000853543845426;0.0068691935042617495;8.34041995902889;0.9501953125;0.06689453125;-0.3271484375;9.3125;-21.3125;-105.0625;
1441975387727200;-0.88592529296875;0.08709716796875;-0.4515380859375;-0.060791015625;3.584327736926503;17.85778926639169;8.511233710919573;0.90087890625;0.11572265625;-0.3671875;4.4375;-10.0;-99.5625;
1441975387750202;-0.8856201171875;0.0758056640625;-0.4527587890625;-0.07061767578125;3.5647986211648277;17.722157408191773;8.653489781529036;0.85693359375;0.15869140625;-0.39990234375;-5.25;-2.125;-92.875;
1441975387774203;-0.88421630859375;0.0677490234375;-0.45526123046875;-0.080322265625;3.53269434845658;17.60064844739576;8.768541904188233;0.81787109375;0.0771484375;-0.40673828125;-18.6875;5.625;-80.6875;
1441975387787204;-0.88177490234375;0.06134033203125;-0.4593505859375;-0.08837890625;3.483051497254202;17.49838242098498;8.864622149225287;0.80224609375;0.01513671875;-0.388671875;-29.625;13.625;-68.0;
1441975387810205;-0.8785400390625;0.0557861328125;-0.4649658203125;-0.09429931640625;3.415943456992663;17.41528071363468;8.94730065076529;0.796875;-4.8828125E-4;-0.38623046875;-26.4375;24.0;-56.375;
1441975387825206;-0.87469482421875;0.05157470703125;-0.47149658203125;-0.09991455078125;3.3373589773317054;17.337140018707245;9.02080173969213;0.80224609375;-0.009765625;-0.388671875;-18.75;33.3125;-46.75;
1441975387847207;-0.8702392578125;0.04998779296875;-0.478759765625;-0.10546875;3.2468248271380378;17.268000476228366;9.07463159153617;0.8212890625;0.05029296875;-0.39208984375;-18.625;39.3125;-35.625;
1441975387870209;-0.8648681640625;0.05157470703125;-0.48675537109375;-0.11151123046875;3.1412004530276;17.205634882988125;9.10636423053429;0.84228515625;0.07763671875;-0.41357421875;-25.1875;44.5625;-20.75;
1441975387886210;-0.85845947265625;0.05615234375;-0.49603271484375;-0.11798095703125;3.0136240812684405;17.149650317599363;9.117774326555834;0.88330078125;0.0830078125;-0.4296875;-36.8125;50.0625;-6.1875;
1441975387907211;-0.85107421875;0.0631103515625;-0.50634765625;-0.12408447265625;2.86628425972618;17.10588104107323;9.108935831217511;0.9326171875;0.07275390625;-0.43310546875;-48.125;57.5;7.125;
1441975387939213;-0.84295654296875;0.07208251953125;-0.51727294921875;-0.1295166015625;2.7045669909241368;17.078417095078134;9.078541259461602;0.95751953125;0.068359375;-0.4541015625;-54.25;66.0625;20.625;
1441975387945213;-0.83416748046875;0.0826416015625;-0.52850341796875;-0.134521484375;2.5326425484718254;17.0656118281947;9.028904040380386;0.9765625;0.0625;-0.46044921875;-56.9375;71.5625;32.8125;
1441975387967214;-0.82501220703125;0.094970703125;-0.53955078125;-0.13897705078125;2.356844515693878;17.075392232213282;8.9517574419319;0.98486328125;0.07861328125;-0.46484375;-59.8125;75.9375;43.75;
1441975387992216;-0.81549072265625;0.10894775390625;-0.5501708984375;-0.14312744140625;2.1806757498324782;17.110066337599903;8.84413323932997;0.98193359375;0.0888671875;-0.4658203125;-62.375;76.875;55.25;
1441975388005216;-0.80548095703125;0.12396240234375;-0.560546875;-0.147216796875;2.0037316351971017;17.167416359900596;8.70976508667192;0.9814453125;0.0712890625;-0.458984375;-66.8125;76.3125;63.5625;
1441975388027218;-0.79541015625;0.13922119140625;-0.5704345703125;-0.1502685546875;1.8329119785788164;17.26110309926066;8.542226613384154;0.9775390625;0.03955078125;-0.427734375;-70.25;75.8125;67.75;
1441975388051219;-0.78558349609375;0.154296875;-0.5797119140625;-0.15191650390625;1.6741284635597775;17.40105692933151;8.334812167066483;0.9658203125;-0.00927734375;-0.40380859375;-67.1875;73.625;70.3125;
1441975388065220;-0.7762451171875;0.16827392578125;-0.58837890625;-0.15179443359375;1.5325820070352671;17.590658305855367;8.089346930351786;0.96728515625;-0.04736328125;-0.3759765625;-60.625;68.5625;71.6875;
1441975388087221;-0.76751708984375;0.1810302734375;-0.59637451171875;-0.1502685546875;1.41247040054597;17.826830278759704;7.807858017146406;0.9736328125;-0.06396484375;-0.34814453125;-48.625;63.4375;72.0625;
1441975388110222;-0.7596435546875;0.192138671875;-0.603515625;-0.147705078125;1.318206252470611;0.0943699783897153;7.505748760277095;0.9814453125;-0.0654296875;-0.32763671875;-37.75;58.0;71.8125;
1441975388125223;-0.75286865234375;0.20147705078125;-0.60992431640625;-0.1439208984375;1.251027505718172;0.38549949348213075;7.192294657770259;0.99072265625;-0.06396484375;-0.31103515625;-26.875;51.375;68.25;
1441975388147224;-0.7470703125;0.20904541015625;-0.61541748046875;-0.13983154296875;1.2073712458244454;0.6684881394099838;6.895262175192743;0.9833984375;-0.07568359375;-0.29345703125;-15.375;44.5;63.25;
1441975388170226;-0.74273681640625;0.21441650390625;-0.6197509765625;-0.1356201171875;1.185570776102508;0.9119610810420614;6.647213566984033;0.9599609375;-0.0908203125;-0.25244140625;-7.625;36.625;55.1875;
1441975388185227;-0.739990234375;0.21826171875;-0.6224365234375;-0.1318359375;1.1843350946740778;1.0956069193520641;6.463265086477649;0.92138671875;-0.07177734375;-0.24169921875;0.875;28.375;45.625;
1441975388207228;-0.7384033203125;0.2218017578125;-0.623779296875;-0.12841796875;1.2001709418720092;1.237550584135454;6.320592267209204;0.89453125;-0.03076171875;-0.2490234375;4.625;18.5625;38.0;
1441975388230229;-0.73773193359375;0.225341796875;-0.6239013671875;-0.1258544921875;1.2272526314362973;1.3345301248035712;6.219201704699448;0.90771484375;-0.0087890625;-0.2509765625;3.5625;9.625;35.0625;
1441975388245230;-0.73809814453125;0.22869873046875;-0.62255859375;-0.12420654296875;1.264781273959938;1.379281518217817;6.166711062398084;0.93310546875;-0.00830078125;-0.25634765625;-0.6875;2.1875;30.9375;
1441975388267231;-0.73944091796875;0.2320556640625;-0.619873046875;-0.12322998046875;1.3128822953459887;1.382968393014235;6.1522530316543325;0.9228515625;-9.765625E-4;-0.25732421875;-4.625;-6.375;25.125;
1441975388290233;-0.74163818359375;0.23541259765625;-0.61602783203125;-0.123046875;1.3688127829027443;1.3512194460831368;6.169772168513271;0.91943359375;-0.0166015625;-0.2529296875;-8.75;-15.6875;19.625;
1441975388313234;-0.7445068359375;0.23858642578125;-0.6112060546875;-0.12359619140625;1.430130787210624;1.291242972766839;6.213014721145494;0.9423828125;-0.0234375;-0.2568359375;-13.0;-23.125;14.8125;
1441975388337235;-0.747802734375;0.24151611328125;-0.6058349609375;-0.124267578125;1.4961721962650618;1.2215597683255837;6.266293276515753;0.98583984375;-0.009765625;-0.2744140625;-16.3125;-28.9375;11.0625;
1441975388359237;-0.751953125;0.24420166015625;-0.599365234375;-0.12554931640625;1.5710710624567545;1.1282896058906084;6.341425956403684;1.0400390625;-0.03271484375;-0.3037109375;-16.375;-32.0625;7.6875;
1441975388365237;-0.7564697265625;0.2462158203125;-0.592529296875;-0.12713623046875;1.6473973972676588;1.0261515970371886;6.426840280280115;1.06884765625;-0.0654296875;-0.33203125;-19.6875;-38.375;0.0;
1441975388387238;-0.7613525390625;0.2479248046875;-0.58489990234375;-0.12957763671875;1.7280985082743945;0.9092911969107267;6.52430685619362;1.04833984375;-0.08544921875;-0.322265625;-19.4375;-42.3125;-6.3125;
1441975388410240;-0.766357421875;0.25;-0.57684326171875;-0.13226318359375;1.8153598944103748;0.7982488366944808;6.6131621458033045;1.037109375;-0.0576171875;-0.3349609375;-22.4375;-45.5;-10.5;
1441975388425240;-0.77105712890625;0.252197265625;-0.56878662109375;-0.1356201171875;1.9003482402048057;0.6906808266404317;6.695012046090574;1.06494140625;-0.07275390625;-0.40771484375;-25.6875;-44.875;-11.4375;
1441975388449242;-0.7757568359375;0.2532958984375;-0.56097412109375;-0.1392822265625;1.9801455375217647;0.5797043395979016;6.783622256061442;1.1015625;-0.09765625;-0.4501953125;-29.5625;-42.1875;-15.0;
1441975388470243;-0.78070068359375;0.2535400390625;-0.552978515625;-0.143310546875;2.0609949125140314;0.46292406498714683;6.879981993359916;1.06982421875;-0.11376953125;-0.466796875;-28.0;-39.625;-22.4375;
1441975388485244;-0.78570556640625;0.2532958984375;-0.54498291015625;-0.14666748046875;2.14583628683713;0.35809373822939927;6.968992648743619;0.96435546875;-0.115234375;-0.4462890625;-27.1875;-39.8125;-29.125;
1441975388507245;-0.7906494140625;0.2528076171875;-0.537353515625;-0.149169921875;2.231606144153023;0.27057694332742516;7.045352032826852;0.86083984375;-0.13037109375;-0.4111328125;-23.625;-41.6875;-31.25;
1441975388530246;-0.79534912109375;0.25177001953125;-0.5303955078125;-0.15093994140625;2.3126701941870413;0.19689715521379894;7.113427503071672;0.79638671875;-0.1318359375;-0.3935546875;-19.4375;-41.3125;-30.25;
1441975388545247;-0.79974365234375;0.2498779296875;-0.52447509765625;-0.15167236328125;2.3852137741557886;0.13826671345420957;7.174816032950856;0.74658203125;-0.1015625;-0.38037109375;-12.625;-38.5625;-28.0625;
1441975388567249;-0.8035888671875;0.247802734375;-0.51947021484375;-0.1519775390625;2.44802989404132;0.09124462514714307;7.2274648718737895;0.72412109375;-0.052734375;-0.37841796875;-3.4375;-34.125;-24.5625;
1441975388591250;-0.8067626953125;0.24591064453125;-0.51531982421875;-0.1522216796875;2.5002488180336737;0.05308329188315359;7.2710001971990295;0.724609375;0.009765625;-0.39404296875;1.6875;-27.9375;-19.125;
1441975388605251;-0.80926513671875;0.24481201171875;-0.51171875;-0.15283203125;2.544323964683572;0.021247507449618824;7.303462092428778;0.736328125;0.05078125;-0.4208984375;3.125;-21.875;-13.9375;
1441975388627252;-0.81085205078125;0.2447509765625;-0.50872802734375;-0.1544189453125;2.576762828716448;17.990784450215223;7.326171091248813;0.75390625;0.0732421875;-0.44873046875;-0.4375;-16.5625;-8.875;
1441975388650253;-0.8116455078125;0.24554443359375;-0.50640869140625;-0.15667724609375;2.5981051486540006;17.963111115535998;7.339862680267011;0.79345703125;0.080078125;-0.46240234375;-7.25;-11.0625;-4.75;
1441975388666254;-0.8116455078125;0.246826171875;-0.5048828125;-0.15960693359375;2.6064910430838633;17.935765407280638;7.348606184284481;0.8369140625;0.04931640625;-0.484375;-14.3125;-5.8125;-3.4375;
1441975388687255;-0.81085205078125;0.248046875;-0.50469970703125;-0.16217041015625;2.598628671508712;17.917516774087204;7.35062324811712;0.853515625;0.0068359375;-0.4990234375;-19.5625;1.0;-3.75;
1441975388718257;-0.80987548828125;0.24847412109375;-0.50579833984375;-0.16314697265625;2.580707758702498;17.91509358959001;7.347627460738468;0.87060546875;-0.0341796875;-0.47216796875;-17.9375;6.75;-3.6875;
1441975388733258;-0.808837890625;0.24755859375;-0.5079345703125;-0.16278076171875;2.554195192407165;17.921327048600837;7.347838430599399;0.890625;-0.07666015625;-0.46044921875;-8.125;11.0625;-4.1875;
1441975388749259;-0.80816650390625;0.24517822265625;-0.5107421875;-0.1611328125;2.5246456122783405;17.93284029396971;7.354930654215972;0.9033203125;-0.09814453125;-0.4404296875;3.125;13.6875;-6.8125;
1441975388770260;-0.80792236328125;0.24163818359375;-0.513427734375;-0.1591796875;2.4976586835650867;17.93838078481005;7.374156139089174;0.89990234375;-0.099609375;-0.4248046875;14.6875;14.9375;-9.75;
1441975388785261;-0.8079833984375;0.237548828125;-0.5157470703125;-0.157470703125;2.47434799549273;17.935405834798708;7.403010862357721;0.890625;-0.072265625;-0.40087890625;20.6875;12.8125;-12.875;
1441975388807262;-0.8082275390625;0.2337646484375;-0.5174560546875;-0.15631103515625;2.4569254035660024;17.925972189399335;7.434402557061145;0.90087890625;-0.03564453125;-0.3935546875;21.75;10.3125;-14.875;
1441975388830264;-0.80865478515625;0.2301025390625;-0.5186767578125;-0.15570068359375;2.4440770203333644;17.90916565185733;7.47012677096149;0.92431640625;-0.04638671875;-0.38330078125;17.3125;6.75;-16.5625;
1441975388845264;-0.8094482421875;0.22625732421875;-0.51934814453125;-0.15478515625;2.439207618590964;17.891985935904643;7.507949328221679;0.93408203125;-0.060546875;-0.37158203125;13.625;3.1875;-19.25;
1441975388867266;-0.810791015625;0.22216796875;-0.519287109375;-0.15386962890625;2.444380082052295;17.869988539344916;7.551353922759158;0.916015625;-0.07666015625;-0.36328125;14.625;-0.4375;-21.5;
1441975388898267;-0.8125;0.21795654296875;-0.51849365234375;-0.1533203125;2.4579802635475083;17.840636550782374;7.6007342830809765;0.90087890625;-0.07177734375;-0.37353515625;14.9375;-4.0;-23.75;
1441975388914268;-0.814453125;0.21356201171875;-0.517333984375;-0.1533203125;2.475605956098295;17.802981068167966;7.656830840971399;0.8857421875;-0.0595703125;-0.3876953125;13.125;-6.75;-26.1875;
1441975388929269;-0.81640625;0.20843505859375;-0.51641845703125;-0.1529541015625;2.491502244623131;17.765369930804443;7.7175580874300795;0.85693359375;-0.068359375;-0.37890625;10.625;-8.3125;-29.875;
1441975388950270;-0.819091796875;0.2032470703125;-0.5147705078125;-0.1513671875;2.5215934610135715;17.739331087683194;7.771868648550532;0.81884765625;-0.09228515625;-0.35791015625;13.9375;-7.5;-33.875;
1441975388966271;-0.82159423828125;0.1973876953125;-0.51336669921875;-0.150146484375;2.5475312849982075;17.706084202403012;7.834708012144717;0.76904296875;-0.09814453125;-0.3857421875;19.1875;-11.25;-32.375;
1441975388989273;-0.82373046875;0.19061279296875;-0.51263427734375;-0.1497802734375;2.563597693625852;17.659364098741598;7.911610347998158;0.77197265625;-0.06005859375;-0.39501953125;20.4375;-8.5625;-34.375;
1441975389010274;-0.82525634765625;0.1824951171875;-0.51361083984375;-0.1480712890625;2.561765744954043;17.62171420198487;7.991390098435397;0.7783203125;-0.00634765625;-0.3837890625;21.0625;-3.5;-37.3125;
1441975389034275;-0.8258056640625;0.1746826171875;-0.5159912109375;-0.14617919921875;2.541663507880727;17.59039983092528;8.064749382503365;0.83837890625;0.03125;-0.3818359375;33.625;4.125;-35.5;
1441975389047276;-0.82562255859375;0.16680908203125;-0.5194091796875;-0.1444091796875;2.5076499469103255;17.557788780456587;8.13940799257459;0.921875;0.0673828125;-0.41650390625;35.25;13.125;-29.5625;
1441975389070277;-0.82470703125;0.1591796875;-0.52386474609375;-0.14215087890625;2.4602915612014082;17.532209475120847;8.208239445510635;0.95361328125;0.12939453125;-0.4365234375;36.6875;21.3125;-25.0625;
1441975389086278;-0.82293701171875;0.15228271484375;-0.529296875;-0.13970947265625;2.3988779353230636;17.513342385214855;8.268159985878768;0.94140625;0.14990234375;-0.4228515625;39.3125;27.6875;-19.625;
1441975389107279;-0.8201904296875;0.14642333984375;-0.53582763671875;-0.13726806640625;2.321058357392026;17.50138345561821;8.316979093551602;0.95556640625;0.17041015625;-0.3994140625;38.5;33.0625;-12.875;
1441975389138281;-0.8162841796875;0.14166259765625;-0.543701171875;-0.13427734375;2.2234007502868107;17.5041201453383;8.348923242071061;0.97216796875;0.1962890625;-0.380859375;36.5625;39.5625;-4.75;
1441975389146282;-0.8114013671875;0.1380615234375;-0.55279541015625;-0.130615234375;2.108103931555293;17.5253792890844;8.360447633358707;1.0546875;0.234375;-0.37158203125;36.5625;46.75;6.625;
1441975389167283;-0.8057861328125;0.13568115234375;-0.5625;-0.12652587890625;1.9824658853760069;17.565347387872208;8.349835260122157;1.18359375;0.28271484375;-0.388671875;37.625;53.4375;19.1875;
1441975389191284;-0.79998779296875;0.13482666015625;-0.57183837890625;-0.1221923828125;1.859560813251295;17.62789956496133;8.310935280430288;1.28662109375;0.31689453125;-0.3955078125;36.25;57.0;30.0625;
1441975389214286;-0.79449462890625;0.13519287109375;-0.58026123046875;-0.11798095703125;1.748161163033476;17.70793789415005;8.248599447849163;1.27294921875;0.2919921875;-0.34765625;31.5625;53.9375;37.125;
1441975389243287;-0.78936767578125;0.1363525390625;-0.58770751953125;-0.114013671875;1.6496321441069908;17.800837917460992;8.168722130598569;1.1552734375;0.2001953125;-0.24365234375;24.5625;44.8125;36.625;
1441975389250288;-0.78436279296875;0.13787841796875;-0.5947265625;-0.1104736328125;1.5572356456001597;17.900719115045955;8.07841684316703;1.0263671875;0.09326171875;-0.1630859375;18.25;37.8125;32.4375;
1441975389266289;-0.77978515625;0.13873291015625;-0.6009521484375;-0.10772705078125;1.4746975192068899;17.985772798154812;8.002163277073278;0.96240234375;-0.00390625;-0.1337890625;12.875;35.4375;26.125;
1441975389290290;-0.776123046875;0.13818359375;-0.6063232421875;-0.1051025390625;1.4051533363371231;0.05218194414533284;7.949733271853509;0.9296875;-0.05615234375;-0.1484375;10.5;34.1875;16.875;
1441975389310291;-0.77362060546875;0.136474609375;-0.61029052734375;-0.10235595703125;1.3551311385830522;0.10038024176684912;7.920473642445498;0.919921875;-0.06396484375;-0.16650390625;14.375;30.625;8.875;
1441975389332292;-0.7723388671875;0.13409423828125;-0.61279296875;-0.100341796875;1.3242862934760884;0.11693046945372038;7.922432058578879;0.9580078125;-0.0380859375;-0.1982421875;19.1875;23.0;4.125;
1441975389347293;-0.77215576171875;0.13128662109375;-0.61376953125;-0.09967041015625;1.3114890034686972;0.09138030688033047;7.962510226190325;1.02734375;0.01220703125;-0.21728515625;19.125;13.8125;0.5;
1441975389370294;-0.77294921875;0.128662109375;-0.61309814453125;-0.10064697265625;1.3178780160527739;0.027329555146524107;8.03327225183522;1.078125;0.06396484375;-0.22314453125;14.4375;3.9375;-4.3125;
1441975389386295;-0.77471923828125;0.1265869140625;-0.61090087890625;-0.1031494140625;1.3439543397674831;17.93640173126677;8.122196090495821;1.08447265625;0.09619140625;-0.21875;6.375;-5.9375;-9.3125;
1441975389415297;-0.777099609375;0.12554931640625;-0.60736083984375;-0.10748291015625;1.3864565053268731;17.826051530368176;8.218502478225544;1.04736328125;0.1005859375;-0.21142578125;-3.125;-15.625;-14.125;
1441975389430298;-0.7799072265625;0.1259765625;-0.60272216796875;-0.1126708984375;1.4434926192078397;17.725077824921303;8.295622771234447;0.99560546875;0.11328125;-0.20361328125;-14.875;-23.125;-16.8125;
1441975389454299;-0.78302001953125;0.12744140625;-0.5972900390625;-0.1180419921875;1.5112057555910876;17.640636608849853;8.350921566321743;0.955078125;0.09619140625;-0.22412109375;-25.0;-28.625;-16.1875;
1441975389467300;-0.786376953125;0.12908935546875;-0.591552734375;-0.12286376953125;1.5844146381824205;17.573412366789867;8.39038662935878;0.92822265625;0.07177734375;-0.25244140625;-30.3125;-31.75;-14.8125;
1441975389490301;-0.789794921875;0.130615234375;-0.5858154296875;-0.126708984375;1.6588464560042229;17.52508451090177;8.415375302970158;0.9169921875;0.0791015625;-0.28955078125;-28.5;-32.5;-12.6875;
1441975389512303;-0.79315185546875;0.132080078125;-0.580322265625;-0.129638671875;1.7311167470259514;17.493435574690757;8.427713444989635;0.90869140625;0.09326171875;-0.32568359375;-23.5625;-31.875;-9.8125;
1441975389530304;-0.79620361328125;0.13360595703125;-0.57525634765625;-0.13177490234375;1.7976602936756607;17.476164525087846;8.428682921863587;0.8994140625;0.10546875;-0.359375;-19.0;-29.375;-5.875;
1441975389561305;-0.79888916015625;0.1353759765625;-0.57080078125;-0.1331787109375;1.8562655854273775;17.4729347461899;8.417741161500246;0.8828125;0.125;-0.38427734375;-15.1875;-25.75;-1.3125;
1441975389566306;-0.801025390625;0.13726806640625;-0.56719970703125;-0.1337890625;1.9035114062007794;17.482336352329117;8.397094418818368;0.85205078125;0.125;-0.39453125;-12.625;-21.8125;2.9375;
1441975389590307;-0.8026123046875;0.13922119140625;-0.564697265625;-0.13299560546875;1.937532852905273;17.51195883919743;8.362065658756652;0.82470703125;0.119140625;-0.38232421875;-9.125;-17.9375;6.8125;
1441975389619309;-0.80328369140625;0.14111328125;-0.56390380859375;-0.130126953125;1.951017277325923;17.570318938897906;8.307544630794812;0.84912109375;0.125;-0.38330078125;-2.0;-12.9375;13.375;
1441975389626309;-0.80291748046875;0.14251708984375;-0.56500244140625;-0.1258544921875;1.9417371963300651;17.64531837048949;8.244696297662568;0.9658203125;0.14794921875;-0.421875;8.8125;-3.625;23.0625;
1441975389656311;-0.80194091796875;0.143310546875;-0.567138671875;-0.1214599609375;1.9197100441423178;17.71855605949817;8.186895458044061;1.1123046875;0.16455078125;-0.466796875;18.3125;6.75;29.125;
1441975389671312;-0.80084228515625;0.1439208984375;-0.56939697265625;-0.11737060546875;1.8962601305802265;17.78739740864627;8.1329883630086;1.10107421875;0.146484375;-0.4287109375;20.875;11.6875;27.625;
1441975389688313;-0.7996826171875;0.14471435546875;-0.57159423828125;-0.1138916015625;1.8731777554628444;17.85081019510055;8.081205022898894;0.9580078125;0.06787109375;-0.35009765625;19.0;11.6875;21.375;
1441975389723315;-0.79840087890625;0.145751953125;-0.57373046875;-0.11077880859375;1.8503077758827664;17.912912383375303;8.028123036077686;0.86376953125;-0.00537109375;-0.30419921875;14.0;11.1875;16.0;
1441975389730315;-0.7974853515625;0.14654541015625;-0.57550048828125;-0.10693359375;1.8348671389874978;17.98287423993242;7.9711159038954715;0.81689453125;-0.0478515625;-0.2783203125;10.375;11.125;13.5625;
1441975389755316;-0.79736328125;0.14617919921875;-0.57666015625;-0.10211181640625;1.8312985507864994;0.05243150419249718;7.923266650926254;0.8076171875;-0.0849609375;-0.2685546875;14.0625;7.1875;12.5;
1441975389783318;-0.798095703125;0.1444091796875;-0.57684326171875;-0.09747314453125;1.8405187160147138;0.09997710436308611;7.9022721925622506;0.8515625;-0.08837890625;-0.2373046875;22.25;-0.9375;9.625;
1441975389790318;-0.79998779296875;0.14208984375;-0.5753173828125;-0.09466552734375;1.8687437055115312;0.10758290561187678;7.915658064058637;0.8974609375;-0.05810546875;-0.201171875;26.3125;-11.0625;3.4375;
1441975389814320;-0.8028564453125;0.140625;-0.57159423828125;-0.09490966796875;1.9190229232291283;0.07289026425618159;7.95469792121071;0.94091796875;-0.0087890625;-0.20263671875;20.4375;-21.9375;-3.5;
1441975389844322;-0.80645751953125;0.14044189453125;-0.56610107421875;-0.09765625;1.988041610552536;0.012613264431598124;8.003268511832202;0.96826171875;0.00439453125;-0.22265625;2.4375;-32.875;-11.0625;
1441975389850322;-0.81048583984375;0.1416015625;-0.55926513671875;-0.1019287109375;2.0719928247906174;17.944634416022417;8.047228790290191;0.97119140625;-0.02587890625;-0.2724609375;-15.375;-40.25;-17.25;
1441975389868323;-0.81451416015625;0.143798828125;-0.5518798828125;-0.1068115234375;2.161787197252712;17.881162454808162;8.07952670423928;0.974609375;-0.06103515625;-0.32763671875;-28.25;-44.4375;-20.125;
1441975389921326;-0.81842041015625;0.14617919921875;-0.54443359375;-0.11175537109375;2.251906632138611;17.822203550545414;8.106089121614906;1.00390625;-0.09375;-0.39697265625;-36.0;-44.6875;-20.375;
1441975389927326;-0.82244873046875;0.147705078125;-0.5369873046875;-0.1162109375;2.3432664331939117;17.765464197251333;8.135882489735113;1.02001953125;-0.11474609375;-0.45654296875;-38.1875;-42.3125;-21.375;
1441975389929326;-0.82684326171875;0.14776611328125;-0.5294189453125;-0.11968994140625;2.438930714068792;17.711848576719408;8.172587569970233;0.99365234375;-0.11181640625;-0.48876953125;-33.5625;-41.0625;-24.5625;
1441975389963328;-0.83123779296875;0.14654541015625;-0.52239990234375;-0.1217041015625;2.5308918138065346;17.669481504561727;8.209614185209418;0.9189453125;-0.11865234375;-0.494140625;-24.9375;-40.9375;-29.75;
1441975389994330;-0.8348388671875;0.1441650390625;-0.5172119140625;-0.12164306640625;2.602399115204595;17.64667964755491;8.241091324867831;0.87646484375;-0.130859375;-0.4912109375;-14.375;-39.25;-31.625;
1441975389997330;-0.837890625;0.14105224609375;-0.51373291015625;-0.119140625;2.6562218300539966;17.64853435399867;8.261828601955912;0.853515625;-0.13330078125;-0.44921875;0.0;-31.8125;-29.375;
1441975390009331;-0.840576171875;0.138671875;-0.5108642578125;-0.115234375;2.7032705677849376;17.671271464055405;8.26466959531072;0.818359375;-0.12158203125;-0.4453125;15.0;-23.0;-23.3125;
1441975390030332;-0.84320068359375;0.13653564453125;-0.50799560546875;-0.11151123046875;2.7498204183766974;17.69335733148331;8.266413153855218;0.82763671875;-0.078125;-0.5185546875;20.8125;-16.75;-12.0625;
1441975390052333;-0.84515380859375;0.13531494140625;-0.50555419921875;-0.10906982421875;2.7872249983706747;17.708177638794456;8.266259756872405;0.8544921875;-0.00537109375;-0.564453125;21.625;-15.4375;-6.75;
1441975390076335;-0.84619140625;0.1358642578125;-0.50390625;-0.1082763671875;2.810365830564509;17.717894916058295;8.257091940687214;0.88671875;0.015625;-0.55615234375;13.4375;-13.0625;-3.875;
1441975390090336;-0.8463134765625;0.13800048828125;-0.5030517578125;-0.108154296875;2.820206488796468;17.731546643461225;8.234616532730692;0.9189453125;0.009765625;-0.5390625;0.0;-9.0;0.75;
1441975390112337;-0.845703125;0.1412353515625;-0.50323486328125;-0.1080322265625;2.816132629126351;17.753409128768496;8.199643472207876;0.91650390625;-0.0234375;-0.52099609375;-8.5;-4.0625;5.625;
1441975390129338;-0.8443603515625;0.14501953125;-0.5045166015625;-0.10748291015625;2.7980809813826495;17.785008482823844;8.154716633833036;0.888671875;-0.0673828125;-0.49267578125;-12.625;1.6875;10.0625;
1441975390150339;-0.84259033203125;0.14886474609375;-0.50677490234375;-0.10577392578125;2.770095704948396;17.831272598624086;8.100066178412943;0.84716796875;-0.07861328125;-0.45703125;-11.875;7.75;15.0;
1441975390175340;-0.84063720703125;0.15264892578125;-0.5093994140625;-0.10308837890625;2.7397545272180857;17.88915800275655;8.038198229944006;0.82568359375;-0.08642578125;-0.43603515625;-5.75;12.375;19.375;
1441975390189341;-0.83843994140625;0.15643310546875;-0.51251220703125;-0.09979248046875;2.7054822578778746;17.95596169832085;7.970105510435547;0.82470703125;-0.078125;-0.45263671875;-0.0625;15.375;23.375;
1441975390210342;-0.83612060546875;0.16009521484375;-0.51568603515625;-0.09686279296875;2.6705545647787283;0.02001420673373317;7.9037196904293685;0.8388671875;-0.0654296875;-0.4638671875;3.75;18.4375;27.125;
1441975390232344;-0.8336181640625;0.16351318359375;-0.51910400390625;-0.0946044921875;2.631890514356893;0.07775197765403019;7.841953274003384;0.84912109375;-0.029296875;-0.4638671875;3.8125;19.75;28.4375;
1441975390255345;-0.83050537109375;0.167236328125;-0.5230712890625;-0.093505859375;2.5834898445387906;0.12914114975283705;7.780514340215169;0.865234375;-0.01220703125;-0.462890625;2.6875;21.8125;27.1875;
1441975390273346;-0.826904296875;0.17132568359375;-0.52752685546875;-0.09271240234375;2.5285131112250325;0.18409863095332285;7.712790147805847;0.90625;0.00341796875;-0.43408203125;-3.0625;25.0;27.625;
1441975390302348;-0.8233642578125;0.17608642578125;-0.53155517578125;-0.09234619140625;2.4791962640916454;0.24028465352976935;7.639099509157198;0.9404296875;-0.00146484375;-0.43603515625;-5.4375;28.375;29.375;
1441975390309348;-0.82000732421875;0.1807861328125;-0.53521728515625;-0.092529296875;2.4340026459930053;0.29080401129534383;7.56897573669939;0.955078125;-0.0302734375;-0.462890625;-10.375;28.375;29.5625;
1441975390333350;-0.816650390625;0.185546875;-0.53851318359375;-0.09326171875;2.391801101231555;0.3365002166052602;7.50093005671649;0.94677734375;-0.05810546875;-0.451171875;-13.75;26.9375;26.0;
1441975390360351;-0.81341552734375;0.19012451171875;-0.5416259765625;-0.094482421875;2.3510140551831578;0.37625580584625345;7.437571013652217;0.91015625;-0.09912109375;-0.41162109375;-17.75;24.4375;22.125;
1441975390369352;-0.810546875;0.19403076171875;-0.54425048828125;-0.0958251953125;2.3155076206143343;0.4083433913659153;7.3840319668055745;0.8798828125;-0.09912109375;-0.39892578125;-19.6875;24.5;19.4375;
1441975390393353;-0.80828857421875;0.196533203125;-0.5465087890625;-0.0970458984375;2.284224398392995;0.4291083456866816;7.348219130319158;0.85400390625;-0.1171875;-0.39111328125;-18.6875;22.4375;14.375;
1441975390412354;-0.80682373046875;0.19818115234375;-0.5479736328125;-0.0977783203125;2.264296878747615;0.44387221806488536;7.323843435410495;0.8232421875;-0.1201171875;-0.38330078125;-13.9375;20.25;7.4375;
1441975390436355;-0.8056640625;0.19940185546875;-0.54901123046875;-0.0992431640625;2.2465988965333947;0.4442957666142374;7.3124756980879635;0.81103515625;-0.09326171875;-0.4111328125;-8.625;16.125;4.875;
1441975390453356;-0.80462646484375;0.2005615234375;-0.5496826171875;-0.10162353515625;2.2297782274545974;0.43159155346029143;7.31057997281777;0.83203125;-0.05859375;-0.3955078125;-9.9375;13.0;2.6875;
1441975390472357;-0.8040771484375;0.201416015625;-0.54962158203125;-0.104248046875;2.2208396672970627;0.40881025789562936;7.31879381885902;0.8466796875;-0.0400390625;-0.3828125;-14.0625;10.8125;0.1875;
1441975390489358;-0.80364990234375;0.2015380859375;-0.549560546875;-0.107421875;2.209176092243266;0.37319113662138714;7.340698153604258;0.875;-0.01318359375;-0.427734375;-13.875;8.9375;-1.5;
1441975390510360;-0.80328369140625;0.2012939453125;-0.54974365234375;-0.11016845703125;2.1963288199463467;0.34028052447734675;7.363372794926759;0.931640625;9.765625E-4;-0.42626953125;-13.75;7.875;-5.5;
1441975390526361;-0.802734375;0.20086669921875;-0.55010986328125;-0.11285400390625;2.1806940812200137;0.3076018864936291;7.386802288010898;0.98486328125;-0.01513671875;-0.4482421875;-11.0625;8.75;-7.0;
1441975390556362;-0.8026123046875;0.20037841796875;-0.5498046875;-0.115966796875;2.172547735321042;0.26492928008168126;7.418529984564496;1.0078125;-9.765625E-4;-0.44287109375;-9.75;9.6875;-7.125;
1441975390570363;-0.80267333984375;0.20086669921875;-0.54888916015625;-0.1192626953125;2.172920897101536;0.22498497301150808;7.442471638430396;0.994140625;0.0341796875;-0.4609375;-11.0;7.1875;-7.25;
1441975390586364;-0.80224609375;0.20166015625;-0.5482177734375;-0.12384033203125;2.165481037699924;0.1740318195570963;7.4708233921058556;0.97607421875;-0.009765625;-0.4609375;-17.3125;3.75;-7.6875;
1441975390616366;-0.80120849609375;0.201416015625;-0.548828125;-0.127685546875;2.142926819866473;0.12926425550561518;7.5007433190432415;0.97216796875;-0.0322265625;-0.3994140625;-24.625;3.875;-11.125;
1441975390630367;-0.80072021484375;0.19927978515625;-0.5498046875;-0.13018798828125;2.120781722859808;0.08427696232735367;7.54474081214912;0.96337890625;-0.06884765625;-0.3447265625;-18.5625;8.375;-15.0625;
1441975390655368;-0.80108642578125;0.19525146484375;-0.55047607421875;-0.13134765625;2.1073485026094163;0.036015420580775344;7.605499542556618;0.93994140625;-0.0703125;-0.35400390625;-5.5625;9.75;-20.375;
1441975390685370;-0.80194091796875;0.1904296875;-0.55078125;-0.131591796875;2.10192149677067;17.989717285818756;7.671254291626308;0.919921875;-0.02587890625;-0.375;8.125;7.5625;-23.375;
1441975390698370;-0.8031005859375;0.1846923828125;-0.5509033203125;-0.13232421875;2.098730300095936;17.927658973650438;7.754595968485877;0.9052734375;-0.00634765625;-0.3662109375;14.8125;3.875;-24.3125;
1441975390712371;-0.8046875;0.1781005859375;-0.55047607421875;-0.13348388671875;2.1030189152653596;17.85029922517051;7.8548385308149395;0.88916015625;0.03857421875;-0.33349609375;16.4375;1.375;-27.6875;
1441975390729372;-0.806884765625;0.1715087890625;-0.5496826171875;-0.13214111328125;2.120323681998753;17.804264153488617;7.9340417744939336;0.85986328125;0.03466796875;-0.29443359375;16.75;-2.9375;-34.625;
1441975390753374;-0.80902099609375;0.1663818359375;-0.54827880859375;-0.13153076171875;2.1439134418171824;17.761679668899948;8.000370538369655;0.8193359375;-0.00244140625;-0.2958984375;27.0625;-8.5;-30.875;
1441975390772375;-0.8106689453125;0.16192626953125;-0.546875;-0.13262939453125;2.163379799127342;17.70475913002551;8.071030959444188;0.89208984375;0.041015625;-0.32275390625;19.5;-11.625;-24.1875;
1441975390789376;-0.81219482421875;0.1572265625;-0.54571533203125;-0.13360595703125;2.1808094518500396;17.64883263605196;8.142289646987566;0.95947265625;0.130859375;-0.326171875;11.4375;-10.5625;-20.6875;
1441975390811377;-0.81365966796875;0.15289306640625;-0.54449462890625;-0.1348876953125;2.199258133708144;17.59317480799681;8.210473868810237;1.00927734375;0.15234375;-0.31640625;13.125;-11.5;-20.5625;
1441975390832378;-0.8153076171875;0.1492919921875;-0.54266357421875;-0.1363525390625;2.2255442946241155;17.541918793664525;8.270201803853244;1.06298828125;0.16064453125;-0.27001953125;10.9375;-15.875;-19.625;
1441975390849379;-0.8167724609375;0.146728515625;-0.5406494140625;-0.13836669921875;2.252786828397742;17.493664736026215;8.320209306571114;1.08984375;0.1708984375;-0.2578125;7.25;-21.5;-17.9375;
1441975390872380;-0.818359375;0.1451416015625;-0.53802490234375;-0.14080810546875;2.286841608122764;17.449049291624707;8.36048677555377;1.0732421875;0.13916015625;-0.22705078125;0.625;-24.1875;-16.875;
1441975390892382;-0.81976318359375;0.14447021484375;-0.53509521484375;-0.1444091796875;2.322413032953844;17.39880313274399;8.397574664076853;1.0263671875;0.1025390625;-0.22998046875;-6.0625;-26.4375;-17.125;
1441975390909382;-0.8211669921875;0.1446533203125;-0.5316162109375;-0.14910888671875;2.3630717587779246;17.343331161342384;8.431490137410877;1.02001953125;0.10693359375;-0.23681640625;-14.4375;-27.25;-17.0;
1441975390931384;-0.82244873046875;0.1451416015625;-0.52789306640625;-0.1544189453125;2.40554684435493;17.28440193918224;8.4648014508023;1.00439453125;0.08154296875;-0.2421875;-24.0;-28.625;-18.5;
1441975390952385;-0.82366943359375;0.145263671875;-0.52447509765625;-0.1595458984375;2.44553279394591;17.22634531287722;8.49964279723243;0.978515625;0.052734375;-0.24560546875;-28.75;-29.0;-21.8125;
1441975390969386;-0.82501220703125;0.14471435546875;-0.5211181640625;-0.1639404296875;2.4867681110806283;17.17329107096065;8.535294457912862;0.95166015625;0.03125;-0.23095703125;-27.3125;-27.9375;-24.125;
1441975390991387;-0.8265380859375;0.14337158203125;-0.51800537109375;-0.16748046875;2.5279433706296977;17.125708582138138;8.572512501579126;0.93310546875;0.04052734375;-0.24755859375;-21.6875;-26.1875;-25.3125;
1441975391012388;-0.82806396484375;0.1416015625;-0.51513671875;-0.17034912109375;2.567548103865885;17.083816642788392;8.608700152475468;0.92578125;0.0751953125;-0.2626953125;-14.1875;-24.8125;-24.625;
1441975391029389;-0.8294677734375;0.139892578125;-0.51251220703125;-0.1727294921875;2.6042302877405703;17.048584634914842;8.64006452006565;0.92578125;0.10986328125;-0.2587890625;-8.5;-24.6875;-22.875;
1441975391059391;-0.8306884765625;0.13873291015625;-0.51019287109375;-0.1746826171875;2.6362744829114093;17.022195113647662;8.66220155611379;0.9345703125;0.1474609375;-0.2587890625;-5.25;-24.0;-18.875;
1441975391074392;-0.83148193359375;0.13824462890625;-0.50836181640625;-0.17657470703125;2.660270413919856;17.000607011482163;8.677115959132953;0.9404296875;0.17041015625;-0.27392578125;-4.4375;-22.0625;-13.625;
1441975391089393;-0.831787109375;0.1390380859375;-0.50689697265625;-0.1787109375;2.6762412833429834;16.984270269249418;8.680471395589533;0.939453125;0.193359375;-0.2919921875;-5.6875;-18.5625;-8.1875;
1441975391111394;-0.83148193359375;0.1416015625;-0.5057373046875;-0.1812744140625;2.6833604321309696;16.974081678788274;8.668474386312859;0.9453125;0.21630859375;-0.3125;-10.375;-15.625;-0.8125;
1441975391132395;-0.8306884765625;0.1456298828125;-0.5048828125;-0.18408203125;2.682654088613207;16.97008400821791;8.64318500353262;0.94873046875;0.203125;-0.33447265625;-18.4375;-12.5625;5.8125;
1441975391149396;-0.82940673828125;0.15057373046875;-0.5045166015625;-0.1868896484375;2.673035858303778;16.971243865587756;8.609043223837952;0.92236328125;0.158203125;-0.341796875;-25.75;-9.625;10.5;
1441975391171397;-0.82769775390625;0.15606689453125;-0.50482177734375;-0.1890869140625;2.653457708017243;16.981947838956096;8.565872709087701;0.8916015625;0.12548828125;-0.3388671875;-29.5625;-6.0625;14.125;
1441975391192399;-0.82550048828125;0.16192626953125;-0.5062255859375;-0.19012451171875;2.6197594354062392;17.007248472286868;8.511973068542662;0.8779296875;0.10693359375;-0.34912109375;-28.5;-1.6875;18.75;
1441975391209400;-0.82275390625;0.16790771484375;-0.5087890625;-0.1900634765625;2.5717326440957344;17.045794295389864;8.449448006351407;0.91796875;0.1201171875;-0.375;-23.375;4.4375;26.0625;
1441975391231401;-0.8194580078125;0.174072265625;-0.51226806640625;-0.18939208984375;2.51215547199087;17.093959619554827;8.379462021317385;1.00390625;0.15576171875;-0.421875;-17.5625;11.375;33.75;
1441975391252402;-0.8157958984375;0.1805419921875;-0.5159912109375;-0.18914794921875;2.4486925116135074;17.14208376709109;8.306507364116893;1.072265625;0.177734375;-0.4609375;-14.25;17.5625;39.25;
1441975391269403;-0.81170654296875;0.18798828125;-0.51947021484375;-0.18975830078125;2.3850969992741833;17.1905340532908;8.225236586457878;1.0791015625;0.18505859375;-0.4677734375;-16.9375;20.75;41.5625;
1441975391291404;-0.80743408203125;0.196533203125;-0.52227783203125;-0.1915283203125;2.3268530652340105;17.23681114154;8.136259523904439;1.02587890625;0.140625;-0.427734375;-25.3125;20.3125;41.75;
1441975391312406;-0.8031005859375;0.2059326171875;-0.524658203125;-0.193603515625;2.27312128186144;17.289412903396215;8.035879530708838;0.951171875;0.09521484375;-0.3818359375;-35.375;17.625;41.3125;
1441975391329407;-0.79876708984375;0.21563720703125;-0.52667236328125;-0.19549560546875;2.2245764143430873;17.35001969834118;7.92666426870284;0.89892578125;0.017578125;-0.3427734375;-41.625;14.5625;40.125;
1441975391353408;-0.7947998046875;0.224609375;-0.5284423828125;-0.19659423828125;2.1832820383118827;17.41736673578602;7.816944550294521;0.87451171875;-0.0390625;-0.30810546875;-43.1875;11.0;38.5625;
1441975391372409;-0.79156494140625;0.2322998046875;-0.52984619140625;-0.1968994140625;2.1525678131256742;17.485457831018245;7.715143359512068;0.87451171875;-0.0517578125;-0.28369140625;-37.1875;7.125;36.625;
1441975391389410;-0.7890625;0.2386474609375;-0.53082275390625;-0.19683837890625;2.131904706186237;17.546825064856638;7.627184610933718;0.8984375;-0.02490234375;-0.2744140625;-28.3125;3.125;34.0625;
1441975391411411;-0.787109375;0.24420166015625;-0.53106689453125;-0.1971435546875;2.1214422004732776;17.59514313665713;7.55372488186465;0.92724609375;0.0244140625;-0.2822265625;-21.0;-0.0625;31.3125;
1441975391432412;-0.785400390625;0.249755859375;-0.53057861328125;-0.1982421875;2.1185502763107107;17.631427833219977;7.488563383696916;0.94580078125;0.076171875;-0.322265625;-19.5625;-1.5;28.75;
1441975391449413;-0.78387451171875;0.255615234375;-0.52935791015625;-0.20025634765625;2.12251640083966;17.6563633891931;7.429258555034826;0.9580078125;0.09228515625;-0.36328125;-23.5625;-2.4375;26.375;
1441975391471415;-0.7822265625;0.26165771484375;-0.52789306640625;-0.20263671875;2.1277126876703036;17.677551470276057;7.371062347583662;0.96826171875;0.091796875;-0.392578125;-28.9375;-3.0625;24.25;
1441975391492416;-0.78045654296875;0.267822265625;-0.52642822265625;-0.20513916015625;2.1323232466229523;17.69830063087;7.312181022223674;0.96337890625;0.08154296875;-0.40380859375;-32.5;-3.0;23.1875;
1441975391509417;-0.7786865234375;0.27386474609375;-0.525146484375;-0.207275390625;2.1363206160052255;17.72303331435462;7.2514609829896575;0.94580078125;0.0703125;-0.40625;-33.375;-2.3125;23.0625;
1441975391539419;-0.77679443359375;0.279541015625;-0.5242919921875;-0.208984375;2.136606012521962;17.751601641864784;7.190408328295835;0.92529296875;0.0595703125;-0.408203125;-31.3125;-0.8125;23.375;
1441975391552419;-0.77484130859375;0.2847900390625;-0.5238037109375;-0.21026611328125;2.13410278915016;17.78334515646479;7.129921380763593;0.9072265625;0.0556640625;-0.40625;-27.6875;1.0625;23.5625;
1441975391569420;-0.77288818359375;0.2896728515625;-0.523681640625;-0.2110595703125;2.1295490635976693;17.819582691714906;7.068772164900278;0.89990234375;0.05078125;-0.39892578125;-24.0;2.5;23.5625;
1441975391591421;-0.77081298828125;0.29449462890625;-0.52386474609375;-0.2115478515625;2.122895817848894;17.86089117830414;7.004236586138427;0.89599609375;0.04248046875;-0.39013671875;-20.375;3.75;23.8125;
1441975391612423;-0.768798828125;0.29913330078125;-0.52410888671875;-0.2119140625;2.116755768050269;17.902555842654323;6.940705126118974;0.904296875;0.03515625;-0.390625;-18.375;4.4375;24.5625;
1441975391628424;-0.766845703125;0.30389404296875;-0.52392578125;-0.21246337890625;2.1150919793671825;17.94110758493319;6.8785646222134895;0.91015625;0.037109375;-0.3857421875;-17.0;4.3125;24.9375;
1441975391650425;-0.76495361328125;0.3092041015625;-0.52337646484375;-0.213134765625;2.118496933234861;17.98084853107203;6.812197696328412;0.9033203125;0.04052734375;-0.388671875;-18.6875;2.6875;24.75;
1441975391674426;-0.76312255859375;0.31463623046875;-0.52239990234375;-0.2139892578125;2.1262961103100255;0.016839849636174353;6.747842556310506;0.90478515625;0.00537109375;-0.39013671875;-22.0;0.5625;23.875;
1441975391688427;-0.76141357421875;0.320068359375;-0.5213623046875;-0.2147216796875;2.136388792641535;0.05315097062380628;6.683720544346516;0.888671875;-0.02783203125;-0.3720703125;-24.875;-2.375;21.75;
1441975391718429;-0.759765625;0.32476806640625;-0.52069091796875;-0.21514892578125;2.143454454148299;0.08844657756969497;6.625233915763158;0.88720703125;-0.056640625;-0.37158203125;-24.75;-3.125;20.125;
1441975391733430;-0.75799560546875;0.32855224609375;-0.520751953125;-0.2154541015625;2.1419489301602805;0.12210064238243777;6.573306279802123;0.90380859375;-0.0556640625;-0.36865234375;-20.375;-2.125;18.375;
1441975391748430;-0.75628662109375;0.33233642578125;-0.52099609375;-0.215087890625;2.142457775300446;0.16442307738357942;6.515651784629638;0.9189453125;-0.03466796875;-0.38134765625;-15.25;2.875;17.625;
1441975391770432;-0.75445556640625;0.33587646484375;-0.52105712890625;-0.21563720703125;2.1397960619520267;0.1936536159645804;6.4680490161182105;0.9248046875;-0.04541015625;-0.40673828125;-11.6875;3.75;19.375;
1441975391793433;-0.75341796875;0.3388671875;-0.52081298828125;-0.21551513671875;2.145729777866767;0.22124036546347414;6.4275083035004466;0.95654296875;-0.04931640625;-0.408203125;-15.875;4.4375;15.6875;
1441975391809434;-0.75323486328125;0.34027099609375;-0.5203857421875;-0.2147216796875;2.1561689430216093;0.23936752769835085;6.406068761666072;0.94287109375;-0.07861328125;-0.4384765625;-11.1875;2.625;11.6875;
1441975391831435;-0.75347900390625;0.34161376953125;-0.5194091796875;-0.214111328125;2.1726924550370152;0.2496297153685164;6.391829730926057;0.927734375;-0.07763671875;-0.44580078125;-3.0625;0.6875;5.3125;
1441975391854437;-0.7532958984375;0.34375;-0.5179443359375;-0.21490478515625;2.187275161092368;0.24877379233901678;6.378886212524343;0.91455078125;-0.06787109375;-0.482421875;-3.625;-0.0625;3.5625;
1441975391869437;-0.7529296875;0.34588623046875;-0.51678466796875;-0.2154541015625;2.1993710042220638;0.25316900368964684;6.3618102822364335;0.9208984375;-0.05029296875;-0.4912109375;-12.875;0.9375;4.0;
1441975391890439;-0.75244140625;0.347900390625;-0.51611328125;-0.215576171875;2.208259200827281;0.26475055186948904;6.340228405061635;0.916015625;-0.08447265625;-0.498046875;-12.625;3.1875;3.5625;
1441975391913440;-0.75213623046875;0.3492431640625;-0.51580810546875;-0.21533203125;2.2146253047345494;0.2767701502317837;6.323041270102193;0.89892578125;-0.1103515625;-0.48974609375;-10.1875;4.625;3.625;
1441975391929441;-0.7520751953125;0.34967041015625;-0.515625;-0.2152099609375;2.2177795730448864;0.2803893878718307;6.317861116853532;0.86376953125;-0.09228515625;-0.4765625;-5.375;5.5;2.6875;
1441975391950442;-0.75225830078125;0.34954833984375;-0.515625;-0.21466064453125;2.2208906394067167;0.2847634298718252;6.3163267157587155;0.822265625;-0.06494140625;-0.4423828125;-1.6875;5.625;0.125;
1441975391973443;-0.75250244140625;0.34893798828125;-0.515869140625;-0.2142333984375;2.2201314366655995;0.28545646129639346;6.320367080341678;0.78759765625;-0.06494140625;-0.4287109375;2.5625;5.625;-1.3125;
1441975391997445;-0.75286865234375;0.34771728515625;-0.51641845703125;-0.21368408203125;2.2160418541113818;0.28436739149024526;6.329668266333733;0.7890625;-0.04638671875;-0.42431640625;4.1875;6.875;-2.75;
1441975392010445;-0.75341796875;0.345947265625;-0.51708984375;-0.2130126953125;2.2106964675542504;0.28053286870377264;6.3447575144246455;0.7919921875;-0.03466796875;-0.42236328125;7.625;8.375;-3.6875;
1441975392034447;-0.7540283203125;0.34429931640625;-0.51739501953125;-0.21270751953125;2.207519548944072;0.2710177137204724;6.363173795508177;0.80078125;-0.02587890625;-0.4296875;10.6875;8.9375;-5.375;
1441975392056448;-0.7545166015625;0.34307861328125;-0.51727294921875;-0.21337890625;2.2043259811066176;0.25169573597704775;6.3851789721993795;0.83837890625;-0.00634765625;-0.44091796875;8.6875;7.5625;-5.6875;
1441975392070449;-0.75482177734375;0.3427734375;-0.51617431640625;-0.21533203125;2.2057113017992815;0.21981021592740282;6.409520103220016;0.8828125;0.01806640625;-0.4501953125;2.4375;6.8125;-4.875;
1441975392100451;-0.75506591796875;0.3433837890625;-0.51422119140625;-0.21826171875;2.2127865599570704;0.17918112911227868;6.433932856574031;0.919921875;0.02734375;-0.42822265625;-7.9375;2.4375;-5.5625;
1441975392117452;-0.7554931640625;0.3443603515625;-0.51129150390625;-0.22198486328125;2.22722277934197;0.1264226149245089;6.464764485559032;0.923828125;4.8828125E-4;-0.3984375;-17.3125;-2.75;-7.4375;
1441975392133452;-0.75579833984375;0.34515380859375;-0.5089111328125;-0.2252197265625;2.2381608808176;0.08174003163253091;6.490761789805159;0.9453125;-0.0234375;-0.35205078125;-24.375;-10.4375;-11.5625;
1441975392153454;-0.7562255859375;0.344970703125;-0.5072021484375;-0.22802734375;2.243372076247325;0.037978176795145535;6.522466360341329;0.9755859375;-0.07373046875;-0.30419921875;-22.3125;-12.25;-13.875;
1441975392175455;-0.7572021484375;0.343017578125;-0.50640869140625;-0.229248046875;2.2457866400744444;0.0017993507299134983;6.561712694414972;1.01123046875;-0.08740234375;-0.27880859375;-16.8125;-11.75;-17.25;
1441975392190456;-0.7591552734375;0.339111328125;-0.50628662109375;-0.22894287109375;2.24932695700514;17.96831620280958;6.61416266740492;1.00830078125;-0.091796875;-0.298828125;-2.3125;-8.9375;-20.9375;
1441975392213457;-0.7618408203125;0.333740234375;-0.50616455078125;-0.2281494140625;2.2559267723680803;17.927022489938413;6.683026565715084;1.0;-0.04833984375;-0.34326171875;13.5625;-6.4375;-23.6875;
1441975392243459;-0.76470947265625;0.32806396484375;-0.50579833984375;-0.22784423828125;2.2641338957172334;17.876440699587047;6.760390502965014;1.00048828125;0.0283203125;-0.3974609375;22.75;-4.0;-25.125;
1441975392250459;-0.76715087890625;0.32281494140625;-0.50518798828125;-0.22833251953125;2.271236789932996;17.820588558823673;6.837298112529223;0.98486328125;0.0927734375;-0.44384765625;22.8125;-1.0;-25.0;
1441975392273461;-0.76904296875;0.31866455078125;-0.5045166015625;-0.2293701171875;2.277061095594612;17.768487909536933;6.903207664735016;0.951171875;0.1279296875;-0.4541015625;17.625;1.75;-23.125;
1441975392297462;-0.77020263671875;0.31536865234375;-0.504150390625;-0.23065185546875;2.2773515200144168;17.72344896734324;6.957188791351736;0.91796875;0.1064453125;-0.447265625;10.75;3.0625;-20.6875;
1441975392310463;-0.77105712890625;0.31231689453125;-0.50445556640625;-0.23138427734375;2.272344250454565;17.690006802041662;7.001327689647257;0.88623046875;0.07958984375;-0.3984375;5.6875;3.125;-17.9375;
1441975392333464;-0.77166748046875;0.30902099609375;-0.505615234375;-0.23126220703125;2.260495676452906;17.66819585197764;7.038996039505317;0.880859375;0.0625;-0.35498046875;7.9375;3.5625;-15.1875;
1441975392355465;-0.77215576171875;0.305419921875;-0.50732421875;-0.23052978515625;2.2443294803631666;17.65310893594138;7.074103241369559;0.89111328125;0.06298828125;-0.32763671875;13.75;4.9375;-12.5;
1441975392370466;-0.7728271484375;0.3013916015625;-0.5093994140625;-0.22918701171875;2.2271135026591296;17.6424296111804;7.109618919407078;0.904296875;0.0712890625;-0.30810546875;18.25;5.4375;-10.8125;
1441975392393467;-0.773681640625;0.29705810546875;-0.5113525390625;-0.2275390625;2.212618384082224;17.631777588590346;7.147517514646133;0.916015625;0.07275390625;-0.2998046875;23.0;5.25;-10.5625;
1441975392418469;-0.7747802734375;0.29266357421875;-0.51287841796875;-0.22607421875;2.2031178753368157;17.616157496681804;7.189621237483077;0.92724609375;0.0830078125;-0.30810546875;25.4375;4.8125;-11.25;
1441975392439470;-0.77587890625;0.28839111328125;-0.51416015625;-0.22491455078125;2.1954412586156686;17.596776898653292;7.233465539754107;0.94140625;0.08251953125;-0.32421875;24.6875;3.375;-12.875;
1441975392460471;-0.77703857421875;0.2840576171875;-0.51519775390625;-0.22406005859375;2.1898262425164536;17.57203364270397;7.281451392251816;0.94091796875;0.07373046875;-0.322265625;21.8125;2.3125;-14.4375;
1441975392475472;-0.7781982421875;0.27960205078125;-0.51611328125;-0.223388671875;2.185101834719891;17.543437366900818;7.332868210916699;0.95361328125;0.072265625;-0.32861328125;20.3125;1.9375;-16.125;
1441975392492473;-0.77947998046875;0.275146484375;-0.51678466796875;-0.2230224609375;2.183151275995867;17.510027036162356;7.3877405689692;0.95751953125;0.0732421875;-0.32080078125;19.75;1.4375;-18.0625;
1441975392520475;-0.78070068359375;0.2708740234375;-0.517333984375;-0.22265625;2.182579881925533;17.47787309772772;7.440379081790498;0.96240234375;0.0830078125;-0.3203125;18.3125;0.5;-18.8125;
1441975392535475;-0.78192138671875;0.26666259765625;-0.517822265625;-0.2222900390625;2.183061957854317;17.446079106301088;7.492333111534066;0.96826171875;0.07275390625;-0.32470703125;16.75;-0.25;-18.9375;
1441975392550476;-0.78314208984375;0.26220703125;-0.51837158203125;-0.221923828125;2.1832424480292443;17.412345160467638;7.547259359690171;0.98681640625;0.0615234375;-0.3251953125;16.375;-0.4375;-20.0625;
1441975392573478;-0.78460693359375;0.25762939453125;-0.5186767578125;-0.22149658203125;2.187784577967221;17.37763246607806;7.603874136722553;0.99658203125;0.07275390625;-0.3251953125;17.3125;-0.5;-20.6875;
1441975392595479;-0.7860107421875;0.25347900390625;-0.51861572265625;-0.2215576171875;2.195324526549996;17.340014001798032;7.659243701887589;0.99560546875;0.0859375;-0.333984375;18.1875;-1.5625;-20.8125;
1441975392610480;-0.78729248046875;0.2501220703125;-0.51806640625;-0.2220458984375;2.206847825423087;17.30338676137154;7.708031200324786;0.9873046875;0.10009765625;-0.32275390625;14.1875;-3.375;-20.5;
1441975392633481;-0.78839111328125;0.2474365234375;-0.51739501953125;-0.22271728515625;2.2186976927906024;17.270512733265914;7.749324616243847;0.9609375;0.09814453125;-0.31640625;9.0625;-5.1875;-19.125;
1441975392655482;-0.7894287109375;0.2449951171875;-0.5167236328125;-0.22308349609375;2.2308855127035323;17.243896098881958;7.784516270467558;0.94677734375;0.0751953125;-0.30810546875;5.125;-6.5;-17.9375;
1441975392670483;-0.79058837890625;0.242431640625;-0.51641845703125;-0.22283935546875;2.241320053190594;17.224630602929793;7.815887634991018;0.931640625;0.06201171875;-0.302734375;5.5625;-6.625;-16.9375;
1441975392693485;-0.79168701171875;0.23968505859375;-0.51629638671875;-0.22198486328125;2.2504270272650877;17.211818122389566;7.844066514649086;0.9208984375;0.06884765625;-0.31005859375;9.4375;-5.625;-15.0;
1441975392715486;-0.792724609375;0.23699951171875;-0.51641845703125;-0.22088623046875;2.257170953441234;17.202986743954064;7.869234291186096;0.931640625;0.09033203125;-0.3271484375;13.0625;-4.25;-12.5625;
1441975392730487;-0.79351806640625;0.234619140625;-0.516845703125;-0.2197265625;2.2595512977941214;17.197901047207548;7.889789607006412;0.94091796875;0.11328125;-0.3486328125;14.9375;-2.625;-9.875;
1441975392753488;-0.7938232421875;0.23272705078125;-0.51751708984375;-0.21881103515625;2.2562320574863985;17.194147345007373;7.905823752767445;0.94580078125;0.123046875;-0.3564453125;14.0;-0.4375;-7.0;
1441975392769489;-0.79388427734375;0.2314453125;-0.5184326171875;-0.21795654296875;2.2489180087888587;17.1949893992664;7.9146379645502245;0.94580078125;0.12109375;-0.35498046875;11.75;1.8125;-4.4375;
1441975392790490;-0.79345703125;0.230712890625;-0.51971435546875;-0.2171630859375;2.234879033228257;17.20005260738484;7.916679358480716;0.9326171875;0.11572265625;-0.36279296875;9.25;4.0;-1.875;
1441975392813491;-0.792724609375;0.23040771484375;-0.5213623046875;-0.2161865234375;2.2155412525404703;17.211476823586572;7.911483232355189;0.921875;0.1025390625;-0.3505859375;6.75;6.0;1.0625;
1441975392829492;-0.79193115234375;0.230224609375;-0.52325439453125;-0.21490478515625;2.193809385770919;17.228243302551;7.901898790312648;0.92041015625;0.09033203125;-0.349609375;6.6875;7.875;3.6875;
1441975392852494;-0.79095458984375;0.2303466796875;-0.525146484375;-0.21356201171875;2.1709954092343353;17.248720859978945;7.887401753517083;0.921875;0.09716796875;-0.35205078125;7.4375;9.125;6.25;
1441975392880495;-0.78985595703125;0.2305908203125;-0.52728271484375;-0.212158203125;2.145247291706898;17.271788958872293;7.870231882843532;0.9287109375;0.09716796875;-0.3544921875;7.375;9.5;8.3125;
1441975392888496;-0.78875732421875;0.23114013671875;-0.52923583984375;-0.21087646484375;2.121226967882527;17.29623459243978;7.849769811022796;0.93115234375;0.0986328125;-0.3388671875;7.125;9.5625;9.8125;
1441975392912497;-0.78753662109375;0.23199462890625;-0.531005859375;-0.20977783203125;2.098103345820898;17.32132587045757;7.826351917182376;0.93212890625;0.09619140625;-0.34423828125;5.625;9.4375;10.75;
1441975392933498;-0.78643798828125;0.23297119140625;-0.53265380859375;-0.2088623046875;2.0768769327199332;17.345412888641896;7.802745295187451;0.9345703125;0.0888671875;-0.3388671875;3.375;8.5625;11.1875;
1441975392949499;-0.785400390625;0.23382568359375;-0.5341796875;-0.20794677734375;2.057288029333287;17.36858969562253;7.780445311648704;0.93408203125;0.083984375;-0.333984375;2.3125;7.75;10.8125;
1441975392972500;-0.78448486328125;0.2344970703125;-0.53558349609375;-0.20703125;2.039686284680505;17.39016352005124;7.760462502013381;0.93798828125;0.0810546875;-0.33349609375;2.4375;6.875;10.3125;
1441975392993502;-0.78369140625;0.23486328125;-0.536865234375;-0.2061767578125;2.023896056869578;17.408047718675718;7.7451213543546595;0.9443359375;0.07958984375;-0.3271484375;3.0625;6.0625;9.25;
1441975393008503;-0.7830810546875;0.235107421875;-0.537841796875;-0.20556640625;2.0117969503905107;17.420969687666286;7.734105934283138;0.9404296875;0.08984375;-0.3203125;3.8125;5.25;7.875;
1441975393032504;-0.7825927734375;0.2353515625;-0.53857421875;-0.20526123046875;2.0023593395872457;17.429303328861106;7.726328341267441;0.93359375;0.10009765625;-0.328125;3.4375;4.625;7.0625;
1441975393053505;-0.7821044921875;0.23541259765625;-0.539306640625;-0.20513916015625;1.9925737517626072;17.43345820915377;7.722729339662252;0.93359375;0.10009765625;-0.3291015625;2.0;3.9375;5.8125;
1441975393075506;-0.7818603515625;0.23504638671875;-0.5399169921875;-0.205078125;1.9852087499872748;17.432213677739174;7.726117182752814;0.93896484375;0.0947265625;-0.3173828125;1.375;3.375;3.6875;
1441975393091507;-0.78167724609375;0.234375;-0.540283203125;-0.2054443359375;1.9797469011811342;17.421589985812204;7.738169536266996;0.94775390625;0.09130859375;-0.3330078125;2.5625;3.75;1.4375;
1441975393113509;-0.78167724609375;0.233642578125;-0.54022216796875;-0.20635986328125;1.9787098343411924;17.40181661173064;7.757149153298142;0.9384765625;0.1005859375;-0.3369140625;1.3125;3.875;-1.1875;
1441975393135510;-0.7818603515625;0.2330322265625;-0.5396728515625;-0.20794677734375;1.9826877909163838;17.37301624382708;7.781663181684432;0.92724609375;0.12255859375;-0.3359375;-0.8125;2.375;-2.8125;
1441975393151511;-0.78228759765625;0.23248291015625;-0.53857421875;-0.20977783203125;1.993269743157376;17.340526373451823;7.808277809968286;0.9150390625;0.123046875;-0.33203125;-4.4375;0.25;-5.0;
1441975393173512;-0.78302001953125;0.2315673828125;-0.5372314453125;-0.21160888671875;2.0082673678789726;17.30433457995799;7.8401005962314;0.9091796875;0.11376953125;-0.33447265625;-6.625;-2.125;-7.5;
1441975393188513;-0.783935546875;0.2303466796875;-0.53564453125;-0.21337890625;2.0270507598462526;17.266177093808782;7.875235589504085;0.90380859375;0.1181640625;-0.3427734375;-5.5;-3.5;-10.0;
1441975393212514;-0.78521728515625;0.228759765625;-0.533935546875;-0.21478271484375;2.0500443851777574;17.22996749038468;7.911599089419804;0.89111328125;0.12060546875;-0.3515625;-4.5625;-4.125;-11.4375;
1441975393233515;-0.7867431640625;0.22637939453125;-0.5321044921875;-0.21600341796875;2.076348197965535;17.1895161302359;7.956177275898734;0.87646484375;0.1201171875;-0.357421875;-1.75;-4.75;-13.125;
1441975393248516;-0.7886962890625;0.22308349609375;-0.53021240234375;-0.21710205078125;2.1067951647705168;17.143459653036846;8.010898036230225;0.87109375;0.13671875;-0.369140625;2.0625;-5.0625;-15.875;
1441975393272518;-0.79095458984375;0.21893310546875;-0.5284423828125;-0.21746826171875;2.139446979329791;17.100882809845775;8.068911537206699;0.86474609375;0.16015625;-0.3857421875;6.0;-4.875;-18.8125;
1441975393293519;-0.7930908203125;0.21435546875;-0.52716064453125;-0.21728515625;2.167772142650733;17.06321333127816;8.1263321323324;0.86181640625;0.1689453125;-0.38623046875;12.6875;-4.75;-20.8125;
1441975393315520;-0.79510498046875;0.20916748046875;-0.52642822265625;-0.216796875;2.191175870364335;17.025399054486478;8.188053492633664;0.87255859375;0.16015625;-0.37548828125;16.4375;-3.75;-21.0625;
1441975393332521;-0.79693603515625;0.203125;-0.52642822265625;-0.21575927734375;2.207857677134686;16.988088302602623;8.255498355551275;0.87841796875;0.16455078125;-0.37451171875;20.25;-1.1875;-22.75;
1441975393353522;-0.798583984375;0.19610595703125;-0.52734375;-0.2139892578125;2.216296908456844;16.952079026912937;8.329293281218712;0.876953125;0.17041015625;-0.35791015625;26.25;2.5;-23.375;
1441975393377524;-0.79998779296875;0.18829345703125;-0.52911376953125;-0.2115478515625;2.2165566587764984;16.917502549628015;8.408180752822231;0.88330078125;0.16455078125;-0.35400390625;32.9375;6.6875;-25.0;
1441975393392525;-0.80120849609375;0.179443359375;-0.53155517578125;-0.20819091796875;2.211001996970718;16.884882480599476;8.493410449305422;0.8857421875;0.171875;-0.3388671875;39.5;11.0625;-25.375;
1441975393413526;-0.80230712890625;0.17010498046875;-0.53436279296875;-0.20477294921875;2.202629353752886;16.848061989845615;8.58528760836784;0.87548828125;0.17919921875;-0.33935546875;47.25;15.1875;-25.9375;
1441975393437527;-0.80291748046875;0.16064453125;-0.53759765625;-0.2015380859375;2.1883876704229253;16.805935749490263;8.682136619829437;0.8642578125;0.173828125;-0.3212890625;49.125;16.9375;-27.75;
1441975393452528;-0.802978515625;0.15106201171875;-0.54144287109375;-0.198486328125;2.166461598051354;16.757402589106523;8.785180664004281;0.87060546875;0.1767578125;-0.30078125;48.6875;19.875;-28.25;
1441975393473529;-0.80255126953125;0.14141845703125;-0.5457763671875;-0.19537353515625;2.13829311781371;16.70543299641043;8.892102218582872;0.88134765625;0.1787109375;-0.283203125;48.4375;23.3125;-28.1875;
1441975393497531;-0.8017578125;0.13153076171875;-0.5506591796875;-0.19183349609375;2.104119939730246;16.65244096437847;9.002857047854913;0.8759765625;0.1650390625;-0.2685546875;48.25;26.6875;-28.3125;
1441975393512531;-0.80047607421875;0.1214599609375;-0.5560302734375;-0.188232421875;2.064301761724827;16.593079165116507;9.120890758159861;0.90771484375;0.17138671875;-0.27294921875;51.0;30.6875;-27.75;
1441975393533533;-0.7989501953125;0.111572265625;-0.5614013671875;-0.18475341796875;2.024530193230692;16.52944165812873;9.241679856463874;0.9150390625;0.19287109375;-0.2744140625;51.875;35.0625;-26.0;
1441975393563534;-0.7969970703125;0.10223388671875;-0.56689453125;-0.181884765625;1.9828030645400723;16.45696214880867;9.366311348857234;0.92138671875;0.20751953125;-0.28173828125;50.5625;36.9375;-24.625;
1441975393572535;-0.79443359375;0.09381103515625;-0.57244873046875;-0.18023681640625;1.939365454522423;16.369523055670115;9.49677793327444;0.9111328125;0.20166015625;-0.27001953125;45.4375;38.3125;-24.1875;
1441975393594536;-0.79144287109375;0.08612060546875;-0.57818603515625;-0.17901611328125;1.893280191235641;16.275295161207357;9.629108039454001;0.8740234375;0.208984375;-0.2294921875;36.8125;39.6875;-23.125;
1441975393616537;-0.7880859375;0.0789794921875;-0.58380126953125;-0.1785888671875;1.8495682946024534;16.168637305525177;9.768027455912119;0.8408203125;0.18017578125;-0.20556640625;31.1875;41.0;-22.4375;
1441975393639539;-0.784423828125;0.0723876953125;-0.589599609375;-0.17864990234375;1.8055451901702542;16.051845478507854;9.91276568062941;0.82373046875;0.16748046875;-0.1806640625;25.75;41.0;-23.375;
1441975393654539;-0.78045654296875;0.06585693359375;-0.5955810546875;-0.17877197265625;1.7621497872056928;15.925218807130786;10.066721394114984;0.8388671875;0.15185546875;-0.173828125;20.5625;42.6875;-23.6875;
1441975393683541;-0.77667236328125;0.05865478515625;-0.60150146484375;-0.177978515625;1.7237750045878184;15.799759442420097;10.225968547119246;0.873046875;0.15380859375;-0.17578125;19.6875;44.625;-23.9375;
1441975393699542;-0.77294921875;0.0506591796875;-0.60723876953125;-0.1768798828125;1.6940036883154381;15.667102748131486;10.39673450549922;0.9462890625;0.1826171875;-0.189453125;26.5625;45.125;-23.5;
1441975393713543;-0.76934814453125;0.04290771484375;-0.6124267578125;-0.17681884765625;1.6774820118363325;15.524417467812398;10.572043781507682;0.97802734375;0.2197265625;-0.1875;31.0625;45.0;-24.4375;
1441975393735544;-0.76580810546875;0.03668212890625;-0.61700439453125;-0.177734375;1.6671449383515289;15.385893641624959;10.732707073784965;0.92529296875;0.27197265625;-0.154296875;26.3125;41.25;-23.75;
1441975393751545;-0.761962890625;0.0322265625;-0.62152099609375;-0.1795654296875;1.6549524920640142;15.24617492317163;10.883464084052816;0.90625;0.28955078125;-0.12939453125;16.625;36.875;-20.125;
1441975393774546;-0.7581787109375;0.02862548828125;-0.62579345703125;-0.1812744140625;1.6427601610965166;15.115476704086742;11.0221201523816;0.91162109375;0.29248046875;-0.099609375;6.4375;34.3125;-15.875;
1441975393803548;-0.75506591796875;0.0245361328125;-0.62945556640625;-0.18206787109375;1.6380618576155166;15.00401803008975;11.14725353066496;0.91845703125;0.28125;-0.09423828125;3.75;32.6875;-13.0;
1441975393811548;-0.7525634765625;0.01953125;-0.63262939453125;-0.18206787109375;1.6422744115858505;14.90713088109632;11.264807858668599;0.92919921875;0.28369140625;-0.1083984375;9.375;29.625;-13.25;
1441975393834550;-0.75030517578125;0.01458740234375;-0.63543701171875;-0.18206787109375;1.651210617203208;14.81837850367809;11.373911516518653;0.9267578125;0.31005859375;-0.11328125;17.0;27.0;-13.1875;
1441975393855551;-0.7479248046875;0.01068115234375;-0.6380615234375;-0.18292236328125;1.6611196851842864;14.728979682303926;11.475821305422075;0.9345703125;0.3408203125;-0.10302734375;17.0;24.0625;-12.125;
1441975393871552;-0.74554443359375;0.0091552734375;-0.6402587890625;-0.18505859375;1.666914879621054;14.646227177285917;11.555995056928483;0.953125;0.39404296875;-0.10595703125;9.8125;22.8125;-7.6875;
1441975393894553;-0.74273681640625;0.0096435546875;-0.64251708984375;-0.1883544921875;1.666041839723967;14.557451571289457;11.629114083797482;0.9794921875;0.3955078125;-0.09521484375;-4.75;18.6875;-3.1875;
1441975393915554;-0.73980712890625;0.0111083984375;-0.64483642578125;-0.19207763671875;1.6617195669381764;14.46709299825821;11.698092592353413;0.958984375;0.3525390625;-0.0595703125;-17.25;16.625;-2.0;
1441975393939556;-0.73687744140625;0.01361083984375;-0.64691162109375;-0.1961669921875;1.654716673911566;14.380720288870448;11.757258239899254;0.93017578125;0.3056640625;-0.0439453125;-23.1875;15.9375;-1.8125;
1441975393954557;-0.734130859375;0.01690673828125;-0.64849853515625;-0.20086669921875;1.6497674561256344;14.300538863308507;11.804367633241787;0.9208984375;0.2783203125;-0.0537109375;-29.0;15.1875;-0.75;
1441975393975558;-0.7314453125;0.02117919921875;-0.6497802734375;-0.20599365234375;1.6427394183396162;14.224977382303534;11.841029731329208;0.892578125;0.28466796875;-0.05517578125;-34.5;12.4375;0.5625;
1441975393991559;-0.72918701171875;0.026123046875;-0.65057373046875;-0.2108154296875;1.6319009956604402;14.165635953280434;11.859960129072837;0.865234375;0.29638671875;-0.04248046875;-39.6875;9.5;3.8125;
1441975394022561;-0.72705078125;0.0318603515625;-0.65130615234375;-0.215087890625;1.6117670695065582;14.11511712540543;11.869140681481461;0.84228515625;0.27099609375;-0.0576171875;-41.1875;6.4375;6.125;
1441975394035561;-0.72491455078125;0.0382080078125;-0.65228271484375;-0.21844482421875;1.5794307816581274;14.069598645357516;11.874753650271355;0.837890625;0.27099609375;-0.064453125;-41.6875;5.5625;11.5;
1441975394051562;-0.72271728515625;0.04449462890625;-0.65325927734375;-0.2215576171875;1.5457334769305617;14.023780839032623;11.88187975705651;0.81884765625;0.23046875;-0.03759765625;-40.0;4.4375;15.8125;
1441975394074564;-0.72039794921875;0.05133056640625;-0.654052734375;-0.22515869140625;1.5119219577717178;13.975820348068382;11.886778085224226;0.78662109375;0.22314453125;-0.01953125;-38.75;3.5625;16.625;
1441975394095565;-0.71807861328125;0.05963134765625;-0.654296875;-0.229736328125;1.4760628570839898;13.932364229917479;11.876985006922926;0.7412109375;0.23193359375;-0.01611328125;-42.875;2.875;18.8125;
1441975394111566;-0.715576171875;0.06951904296875;-0.6539306640625;-0.23583984375;1.4409653637021258;13.888360211163306;11.85467704439846;0.7216796875;0.22021484375;-0.037109375;-53.125;1.125;20.375;
1441975394134567;-0.71295166015625;0.0804443359375;-0.6529541015625;-0.24273681640625;1.4055085482202274;13.848851672759329;11.819977575276148;0.68359375;0.1826171875;-0.02685546875;-65.75;-2.875;18.75;
1441975394155568;-0.7098388671875;0.09185791015625;-0.65203857421875;-0.25018310546875;1.3689181889986255;13.797866346678061;11.792287809765345;0.64453125;0.146484375;-0.0234375;-73.0625;-5.9375;17.75;
1441975394171569;-0.70654296875;0.10235595703125;-0.6512451171875;-0.2574462890625;1.3371442767337145;13.73910259853936;11.776720420291884;0.6005859375;0.064453125;-4.8828125E-4;-77.8125;-5.6875;13.4375;
1441975394194570;-0.703369140625;0.111572265625;-0.6505126953125;-0.2640380859375;1.3103551489652292;13.68072736680111;11.768700131557498;0.56884765625;0.04052734375;0.00634765625;-73.6875;-3.375;9.875;
1441975394215572;-0.7010498046875;0.119384765625;-0.64935302734375;-0.26959228515625;1.2898578782506944;13.646154254427218;11.746966565318633;0.61181640625;0.0615234375;-0.0380859375;-66.6875;1.0;7.8125;
1441975394231572;-0.6988525390625;0.12701416015625;-0.648193359375;-0.27447509765625;1.2659585445806099;13.618151396507443;11.722171133071315;0.70849609375;0.1337890625;-0.11865234375;-57.5625;3.1875;8.4375;
1441975394254574;-0.69622802734375;0.13482666015625;-0.6478271484375;-0.2783203125;1.2293923248649508;13.577629910632243;11.713687985057852;0.861328125;0.19970703125;-0.17578125;-54.75;6.5625;12.625;
1441975394277575;-0.6923828125;0.14239501953125;-0.64947509765625;-0.2802734375;1.1720742290324446;13.490117396939427;11.761505070171049;1.005859375;0.17626953125;-0.2021484375;-52.0;12.1875;15.4375;
1441975394291576;-0.68841552734375;0.14788818359375;-0.65264892578125;-0.2799072265625;1.109980403148437;13.373308664984663;11.857439142114085;1.04638671875;0.078125;-0.15185546875;-43.0;20.625;18.875;
1441975394314577;-0.6849365234375;0.15283203125;-0.655517578125;-0.279052734375;1.0515985608233245;13.263071852829098;11.95107105376975;1.04248046875;0.0849609375;-0.0927734375;-24.1875;25.3125;23.0;
1441975394335578;-0.68145751953125;0.159912109375;-0.657470703125;-0.279052734375;0.9859189307207534;13.161583556723167;12.023254105966227;1.10791015625;0.15869140625;-0.07275390625;-19.625;21.8125;27.125;
1441975394351579;-0.677490234375;0.16815185546875;-0.6591796875;-0.27978515625;0.9175848780599931;13.039410561344939;12.107916445395905;1.16064453125;0.0771484375;-0.02734375;-31.0;12.875;25.375;
1441975394374581;-0.67401123046875;0.17596435546875;-0.66033935546875;-0.28070068359375;0.8566190755556311;12.927211941563026;12.183500185010566;1.1533203125;-0.07080078125;0.0361328125;-37.9375;8.5;17.9375;
1441975394395582;-0.67138671875;0.1829833984375;-0.66015625;-0.28289794921875;0.815345389469781;12.856460370765133;12.215143353296604;1.12353515625;-0.177734375;0.046875;-36.6875;5.0;8.125;
1441975394411583;-0.6697998046875;0.18951416015625;-0.65850830078125;-0.28607177734375;0.7883378082872448;12.848528318082401;12.181537520355846;1.0654296875;-0.1484375;0.04931640625;-38.625;-1.125;0.5625;
1441975394434584;-0.66900634765625;0.1953125;-0.65625;-0.28924560546875;0.7686715616950555;12.882474660245936;12.109114850343648;1.0361328125;-0.11962890625;0.03759765625;-40.75;-8.1875;-6.1875;
1441975394464586;-0.66876220703125;0.19903564453125;-0.6546630859375;-0.2908935546875;0.7535470768120905;12.920584585912676;12.047971008282804;1.0263671875;-0.13330078125;0.00390625;-37.3125;-10.0625;-11.1875;
1441975394471586;-0.66961669921875;0.2001953125;-0.6533203125;-0.2911376953125;0.7491433592117742;12.98922476989657;11.973297634350375;1.01318359375;-0.11767578125;4.8828125E-4;-22.5625;-7.6875;-11.5625;
1441975394494588;-0.6712646484375;0.2008056640625;-0.65142822265625;-0.291259765625;0.7508487082791251;13.098147968091657;11.861241815499104;1.005859375;-0.013671875;-0.01708984375;-5.5625;-7.4375;-9.875;
1441975394515589;-0.67254638671875;0.203125;-0.64935302734375;-0.291259765625;0.7389426994387489;13.211898977931272;11.737542694284201;1.02392578125;0.091796875;-0.02978515625;-2.3125;-10.6875;-6.125;
1441975394532590;-0.6724853515625;0.20721435546875;-0.6483154296875;-0.2908935546875;0.7061665585149913;13.272404927891046;11.661320255425771;1.046875;0.0673828125;-0.05908203125;-9.6875;-11.625;-0.6875;
1441975394554591;-0.67218017578125;0.21112060546875;-0.6480712890625;-0.289306640625;0.6633037178559769;13.31893082288799;11.605201262251173;1.017578125;-0.015625;-0.0078125;-14.9375;-9.875;5.5;
1441975394583593;-0.6724853515625;0.2149658203125;-0.6470947265625;-0.2879638671875;0.6265312163902982;13.415786711689506;11.497885909108437;1.05517578125;-0.017578125;-0.01025390625;-9.4375;-7.375;11.1875;
1441975394591593;-0.6729736328125;0.22003173828125;-0.644775390625;-0.2880859375;0.5971546670242529;13.571013112057145;11.320346992356317;1.1259765625;0.06103515625;-0.02685546875;-9.9375;-10.5;13.25;
1441975394615594;-0.672119140625;0.22772216796875;-0.64263916015625;-0.28887939453125;0.5503166908293825;13.714231342488826;11.1406576287203;1.16796875;0.07177734375;-0.056640625;-21.875;-15.375;11.1875;
1441975394635596;-0.67034912109375;0.23553466796875;-0.64208984375;-0.2880859375;0.4835925907236326;13.825930118006802;10.999030141996228;1.173828125;-0.04345703125;0.00537109375;-35.625;-17.875;13.1875;
1441975394651597;-0.66961669921875;0.24090576171875;-0.6422119140625;-0.2850341796875;0.4209798550161136;13.999717799741882;10.81559247338089;1.1298828125;-0.1455078125;0.04833984375;-28.9375;-14.0;17.5;
1441975394680598;-0.66961669921875;0.2440185546875;-0.6424560546875;-0.28179931640625;0.3770801060298527;14.193689539356427;10.622448261566987;1.11083984375;-0.09814453125;0.0283203125;-9.125;-12.5625;20.5;
1441975394697599;-0.66973876953125;0.24603271484375;-0.642822265625;-0.27886962890625;0.34407775565143073;14.377237334488388;10.443081093740652;1.1396484375;0.02392578125;0.025390625;1.4375;-11.6875;20.6875;
1441975394711600;-0.6693115234375;0.24798583984375;-0.6435546875;-0.2764892578125;0.31131163099963904;14.516304547279224;10.306080853871537;1.1767578125;0.0654296875;0.01806640625;4.75;-9.375;18.875;
1441975394740602;-0.66900634765625;0.25030517578125;-0.64312744140625;-0.27606201171875;0.29587800881182136;14.663854225037642;10.15030914873148;1.2216796875;0.0615234375;0.015625;2.125;-4.75;18.0;
1441975394756603;-0.66796875;0.25482177734375;-0.641845703125;-0.27740478515625;0.2798240783118226;14.85216500218819;9.936460488058641;1.24951171875;0.1533203125;0.0185546875;-7.5625;-7.9375;16.75;
1441975394777604;-0.66619873046875;0.260498046875;-0.64068603515625;-0.27923583984375;0.2564955326436999;15.06321594902199;9.692757185046991;1.26318359375;0.126953125;0.04345703125;-25.0;-11.4375;17.0625;
1441975394793605;-0.66595458984375;0.2647705078125;-0.63873291015625;-0.2801513671875;0.2533598316681365;15.393200381498705;9.339942587880689;1.24560546875;0.07666015625;0.05908203125;-32.0;-10.625;17.875;
1441975394816606;-0.6666259765625;0.2684326171875;-0.6357421875;-0.28192138671875;0.27308679924985524;15.674917639970708;9.034290395586293;1.21923828125;0.08837890625;-0.02685546875;-22.4375;-12.625;13.5;
1441975394840607;-0.6663818359375;0.272705078125;-0.63262939453125;-0.28533935546875;0.29204450491721007;15.81150336954346;8.863700808879825;1.21630859375;0.13427734375;-0.0849609375;-23.75;-13.9375;8.0625;
1441975394853608;-0.6656494140625;0.2777099609375;-0.629150390625;-0.28985595703125;0.3117208642422455;15.896195646310694;8.73681567789016;1.22216796875;0.1748046875;-0.048828125;-33.1875;-12.3125;8.3125;
1441975394876609;-0.6640625;0.28399658203125;-0.62603759765625;-0.29412841796875;0.31889024287311524;16.047086423055433;8.539083255690837;1.22119140625;0.24560546875;-0.0703125;-41.625;-10.0625;12.5;
1441975394899611;-0.66180419921875;0.2913818359375;-0.62274169921875;-0.2989501953125;0.32243541546291987;16.21764792842298;8.314167596936773;1.22265625;0.166015625;-0.06201171875;-46.5;-9.3125;14.6875;
1441975394921612;-0.6597900390625;0.29742431640625;-0.619873046875;-0.30340576171875;0.32708345660520466;16.316335521928643;8.168555259548464;1.23388671875;0.103515625;-0.0546875;-53.5625;-9.125;13.1875;
1441975394936613;-0.6575927734375;0.3043212890625;-0.61663818359375;-0.3079833984375;0.33319708714293755;16.461232267233893;7.972205152422995;1.2490234375;0.1298828125;-0.04443359375;-46.4375;-7.5625;12.1875;
1441975394959614;-0.65533447265625;0.30938720703125;-0.61492919921875;-0.3111572265625;0.3277333991304165;16.57277036852808;7.823603595092511;1.2255859375;0.08203125;-0.07666015625;-50.9375;-7.6875;11.0;
1441975394973615;-0.65692138671875;0.3125;-0.60888671875;-0.31646728515625;0.39059960116222997;16.44281090288489;7.914957274248559;1.30419921875;0.08203125;-0.14404296875;-36.875;3.875;12.0625;
1441975395004617;-0.64385986328125;0.32684326171875;-0.61761474609375;-0.31170654296875;0.2455142770821538;0.1562864123137318;6.15889154629012;1.18505859375;0.21826171875;-0.08837890625;-38.1875;-23.25;-8.25;
1441975395019618;-0.64349365234375;0.33123779296875;-0.61602783203125;-0.31109619140625;0.27599612496053944;0.4616524686798611;5.836268694935365;1.5263671875;-0.57763671875;0.0595703125;-42.125;34.8125;69.0;
1441975395033618;-0.6484375;0.32147216796875;-0.61712646484375;-0.30889892578125;0.27341474785246234;17.770036387561163;6.582196984773032;1.35986328125;-0.1259765625;-0.20361328125;-17.1875;-3.75;8.0;
1441975395056620;-0.65570068359375;0.3079833984375;-0.615478515625;-0.31048583984375;0.32658640825183916;16.524775231657408;7.880784792596566;1.37353515625;0.13623046875;-0.0146484375;53.9375;-3.9375;-26.3125;
1441975395077621;-0.66351318359375;0.29364013671875;-0.615478515625;-0.30780029296875;0.40585599834677644;15.919496760441652;8.561997543619896;1.54443359375;0.20458984375;-0.03857421875;52.0625;-7.9375;-60.625;
1441975395093622;-0.66986083984375;0.2796630859375;-0.6165771484375;-0.304931640625;0.47795847558283167;15.509500680551174;9.046656855860768;1.6279296875;0.14013671875;-0.1171875;74.625;-4.75;-53.5625;
1441975395117623;-0.66998291015625;0.268310546875;-0.62078857421875;-0.306396484375;0.504244320362347;14.912625389366324;9.687305928093789;1.71533203125;0.2373046875;0.0029296875;73.9375;-5.375;-42.6875;
1441975395137624;-0.668701171875;0.25994873046875;-0.622314453125;-0.31329345703125;0.5730002643912604;14.35333536766015;10.252426677503127;1.751953125;0.30126953125;0.1494140625;43.3125;22.0625;-30.0;
1441975395153625;-0.6644287109375;0.26605224609375;-0.6201171875;-0.32135009765625;0.5744036685136391;14.206609485942373;10.336004304837488;1.44873046875;0.44775390625;0.06103515625;4.75;28.1875;-30.125;
1441975395176627;-0.658203125;0.27191162109375;-0.6207275390625;-0.3280029296875;0.5467984147628597;13.930873692112218;10.55611579670164;1.26611328125;-0.02734375;-0.04638671875;-63.9375;8.75;-13.625;
1441975395198628;-0.658935546875;0.265380859375;-0.62078857421875;-0.33184814453125;0.6212361144628948;13.741731467843486;10.756489425945185;1.4326171875;-0.16552734375;0.06884765625;-56.3125;17.25;-11.8125;
1441975395213629;-0.66497802734375;0.25152587890625;-0.6185302734375;-0.33477783203125;0.773005441850283;13.730355766082761;10.814562815881201;1.50439453125;0.10595703125;0.01416015625;10.0625;13.6875;-43.3125;
1441975395236630;-0.67138671875;0.238525390625;-0.6142578125;-0.33929443359375;0.9396173591402459;13.767455807413306;10.812439405478958;1.31982421875;0.333984375;-0.07080078125;45.875;4.875;-65.25;
1441975395258631;-0.676025390625;0.22918701171875;-0.6102294921875;-0.34368896484375;1.0716007722486234;13.793772846842232;10.805489612300947;1.2158203125;0.390625;-0.12939453125;34.0625;0.1875;-69.625;
1441975395282633;-0.6787109375;0.22393798828125;-0.6072998046875;-0.34710693359375;1.155532236042133;13.808053673943519;10.79761524510063;1.16845703125;0.34521484375;-0.15966796875;17.75;1.5625;-56.875;
1441975395296633;-0.67999267578125;0.225341796875;-0.60491943359375;-0.347900390625;1.1665111961169916;13.872314938492972;10.723360512036757;1.02001953125;0.2490234375;-0.20458984375;4.0625;6.9375;-38.8125;
1441975395317635;-0.68292236328125;0.2254638671875;-0.603515625;-0.3443603515625;1.160467160215648;13.992336804234158;10.618581408908735;0.9404296875;0.02490234375;-0.34423828125;-13.3125;6.3125;-15.25;
1441975395333636;-0.68707275390625;0.219482421875;-0.605224609375;-0.3370361328125;1.1625771020631963;14.077461795990704;10.592660193067012;0.96337890625;-0.06396484375;-0.3486328125;12.75;1.1875;-11.5;
1441975395357637;-0.69293212890625;0.20574951171875;-0.6085205078125;-0.32763671875;1.2034821342875086;14.12091828126091;10.650507868060753;1.01416015625;-0.115234375;-0.24267578125;55.875;8.8125;-22.0625;
1441975395379638;-0.69927978515625;0.19281005859375;-0.60980224609375;-0.31939697265625;1.258587469257983;14.194272120142829;10.668826813418743;0.92578125;0.060546875;-0.13623046875;98.375;13.875;-31.5;
1441975395393639;-0.7052001953125;0.18670654296875;-0.607666015625;-0.31396484375;1.3019773929284275;14.329639965109683;10.58288746926332;0.86279296875;0.25244140625;-0.11376953125;90.375;2.1875;-23.1875;
1441975395416640;-0.71112060546875;0.18359375;-0.60345458984375;-0.31060791015625;1.352294098517719;14.484183265842475;10.455490874331868;0.91162109375;0.22412109375;-0.11328125;50.625;-20.625;-14.3125;
1441975395446642;-0.71661376953125;0.178955078125;-0.6005859375;-0.30633544921875;1.3995457571767138;14.605227953352824;10.372261497014744;0.9189453125;0.138671875;-0.0302734375;31.1875;-38.625;-19.6875;
1441975395453642;-0.7237548828125;0.17498779296875;-0.595703125;-0.30133056640625;1.4614891880853889;14.776777305175017;10.23828743728792;0.84765625;0.09765625;0.08740234375;42.0;-38.4375;-21.5;
1441975395477644;-0.72967529296875;0.1746826171875;-0.58892822265625;-0.3004150390625;1.533792712094032;14.920530728835416;10.098041618468331;0.67236328125;0.173828125;-0.08935546875;41.75;-41.75;-14.0;
1441975395498645;-0.734375;0.1771240234375;-0.5831298828125;-0.2989501953125;1.5785527401387192;15.06409391675107;9.94919763673201;0.59814453125;0.21337890625;-0.0576171875;8.9375;-50.1875;-11.0625;
1441975395513646;-0.73828125;0.18212890625;-0.5780029296875;-0.2962646484375;1.599465881412617;15.22858354656908;9.774087119826893;0.5263671875;0.13427734375;-0.03271484375;1.0625;-48.6875;0.6875;
1441975395536647;-0.74090576171875;0.1883544921875;-0.57403564453125;-0.29345703125;1.6031529219598024;15.383594340917288;9.604056971637721;0.58447265625;0.197265625;-0.1123046875;-3.75;-45.0625;21.375;
1441975395558648;-0.74151611328125;0.19622802734375;-0.57269287109375;-0.2894287109375;1.5673674238709525;15.540859790868554;9.430996271567924;0.62939453125;0.2060546875;-0.13037109375;-8.0625;-37.4375;30.3125;
1441975395589650;-0.7410888671875;0.20257568359375;-0.57403564453125;-0.28338623046875;1.507957511292239;15.695242930869384;9.27674020714424;0.59375;0.0830078125;-0.09765625;-9.5625;-26.125;40.75;
1441975395596651;-0.74151611328125;0.2042236328125;-0.5777587890625;-0.2734375;1.4442831045257731;15.85923194184208;9.1504213883433;0.58447265625;0.1181640625;-0.0400390625;6.625;-15.0625;50.0625;
1441975395619652;-0.74359130859375;0.20751953125;-0.57952880859375;-0.26129150390625;1.40236876682765;16.117145746865113;8.93181683566968;0.57666015625;0.20556640625;-0.119140625;43.125;1.0;52.1875;
1441975395633653;-0.742431640625;0.2158203125;-0.58233642578125;-0.25146484375;1.3318988415927897;16.40094009548084;8.65613351125579;0.58544921875;0.166015625;-0.19580078125;46.0;-13.5;60.0;
1441975395656654;-0.74224853515625;0.222900390625;-0.58453369140625;-0.240478515625;1.2884838510918537;16.719428826286535;8.35539485025938;0.7900390625;0.00244140625;-0.06396484375;15.625;-14.75;66.875;
1441975395679655;-0.7431640625;0.2294921875;-0.58349609375;-0.23388671875;1.2969378801115101;16.958502283010283;8.116157288528656;0.92333984375;0.001953125;-0.16064453125;24.25;-15.875;64.0;
1441975395693656;-0.74664306640625;0.2322998046875;-0.57940673828125;-0.2301025390625;1.3583192880942399;17.07643732039956;8.001162525271642;0.9306640625;0.09423828125;-0.12744140625;6.625;-29.875;48.5625;
1441975395716657;-0.7525634765625;0.2322998046875;-0.57318115234375;-0.22637939453125;1.4581587022230384;17.140290285356922;7.951257486851029;0.919921875;0.1865234375;-0.15380859375;8.3125;-41.9375;22.625;
1441975395739659;-0.76031494140625;0.22967529296875;-0.56536865234375;-0.22265625;1.5856617161507334;17.161104093355643;7.954899659728763;0.79248046875;0.12646484375;-0.16845703125;16.625;-53.0625;0.6875;
1441975395753660;-0.768798828125;0.22552490234375;-0.55712890625;-0.218505859375;1.7225077364309687;17.16922122505582;7.9792961637166915;0.71630859375;0.2705078125;-0.1806640625;27.8125;-61.6875;-5.125;
1441975395776661;-0.77655029296875;0.2227783203125;-0.54815673828125;-0.21661376953125;1.8594072379737576;17.159796144016884;8.00518713598076;0.72021484375;0.34716796875;-0.26171875;36.8125;-60.75;-7.25;
1441975395799662;-0.7822265625;0.22076416015625;-0.541259765625;-0.21575927734375;1.962389527754162;17.146791871692866;8.027805587588647;0.75927734375;0.39453125;-0.29541015625;21.625;-59.875;-6.0625;
1441975395813663;-0.78759765625;0.21728515625;-0.5355224609375;-0.21392822265625;2.053608632719748;17.13559253042445;8.059295155046104;0.8046875;0.341796875;-0.265625;14.0;-47.75;-5.0625;
1441975395836664;-0.7921142578125;0.2130126953125;-0.5308837890625;-0.21319580078125;2.1288190837355923;17.105165539253242;8.1091815979072;0.7978515625;0.35400390625;-0.279296875;24.4375;-41.0;-6.125;
1441975395859666;-0.79754638671875;0.20758056640625;-0.5255126953125;-0.21148681640625;2.2182360265732863;17.080108959169834;8.162376804981198;0.75390625;0.38232421875;-0.275390625;23.25;-30.875;-9.4375;
1441975395880667;-0.80059814453125;0.20550537109375;-0.521484375;-0.2120361328125;2.277083808195735;17.056620600589667;8.190657993565877;0.6640625;0.3720703125;-0.375;30.5;-28.8125;-13.625;
1441975395896668;-0.8013916015625;0.2081298828125;-0.51898193359375;-0.2125244140625;2.304028677203007;17.071864049243967;8.161013891632642;0.6796875;0.263671875;-0.32373046875;6.5;-21.125;-8.5;
1441975395919669;-0.80035400390625;0.21429443359375;-0.51763916015625;-0.2137451171875;2.3061915883846194;17.10596421293163;8.094831627294791;0.6865234375;0.17236328125;-0.2763671875;-10.125;-16.1875;11.625;
1441975395940670;-0.79986572265625;0.22088623046875;-0.5147705078125;-0.215576171875;2.326387592743486;17.135037585730952;8.028333314330588;0.759765625;0.13525390625;-0.26416015625;-25.3125;-12.125;26.5625;
1441975395964672;-0.80072021484375;0.224853515625;-0.51043701171875;-0.21856689453125;2.369486425367123;17.1277811951004;8.003715952972522;0.8095703125;0.14453125;-0.32275390625;-30.875;-18.125;24.4375;
1441975395979672;-0.80181884765625;0.2271728515625;-0.50689697265625;-0.2205810546875;2.4078377603882193;17.119646605407674;7.991606165311325;0.84814453125;0.23779296875;-0.3193359375;-26.4375;-25.75;11.1875;
1441975396001674;-0.802978515625;0.228759765625;-0.50372314453125;-0.22198486328125;2.443778143362209;17.11325587463339;7.983564964620321;0.9013671875;0.22412109375;-0.3056640625;-15.5;-25.0625;5.3125;
1441975396016675;-0.80401611328125;0.22955322265625;-0.50067138671875;-0.22406005859375;2.477603455693943;17.093295671220332;7.989552077488636;0.91455078125;0.2080078125;-0.34521484375;-11.0625;-21.375;2.875;
1441975396039676;-0.804443359375;0.2325439453125;-0.49725341796875;-0.227294921875;2.509321408143926;17.076129814917536;7.978236757850019;0.88330078125;0.30029296875;-0.37841796875;-9.6875;-15.875;3.6875;
1441975396063677;-0.80419921875;0.23797607421875;-0.4931640625;-0.23138427734375;2.5414709239454996;17.066248606903894;7.9448393054037885;0.85693359375;0.294921875;-0.39208984375;-22.875;-15.6875;10.125;
1441975396076678;-0.80364990234375;0.2442626953125;-0.489501953125;-0.23443603515625;2.568065638768187;17.073905621112726;7.894740794541915;0.82568359375;0.26025390625;-0.42529296875;-37.0;-16.375;16.9375;
1441975396099679;-0.80255126953125;0.2501220703125;-0.48773193359375;-0.2357177734375;2.5750990831572738;17.09932312496958;7.837353755319894;0.837890625;0.142578125;-0.41259765625;-37.3125;-17.5625;17.1875;
1441975396122681;-0.80096435546875;0.25531005859375;-0.4873046875;-0.23651123046875;2.5673551975185624;17.12672715294589;7.783741831495781;0.853515625;0.11083984375;-0.39794921875;-27.0625;-10.875;21.5;
1441975396139682;-0.7994384765625;0.2598876953125;-0.4871826171875;-0.23687744140625;2.558087048712245;17.155146358766636;7.733693331179051;0.90966796875;0.18212890625;-0.4326171875;-19.375;-2.5;26.75;
1441975396159683;-0.79754638671875;0.2645263671875;-0.48773193359375;-0.23687744140625;2.541070100318172;17.189418073892213;7.679441513389783;0.95849609375;0.1767578125;-0.4755859375;-16.0;0.375;24.5625;
1441975396180684;-0.79547119140625;0.2685546875;-0.48944091796875;-0.23583984375;2.5138745207814734;17.233460351804908;7.623281865927225;0.94970703125;0.14208984375;-0.43798828125;-14.25;1.625;25.875;
1441975396196685;-0.7930908203125;0.2723388671875;-0.49169921875;-0.23468017578125;2.4804390647972077;17.27931950716301;7.5671034871850456;0.9501953125;0.10009765625;-0.42822265625;-7.1875;6.6875;25.75;
1441975396226687;-0.7900390625;0.27642822265625;-0.49462890625;-0.234130859375;2.4363288825778486;17.323711269047273;7.508878069025258;0.9228515625;0.10107421875;-0.43408203125;-5.375;11.3125;26.75;
1441975396240687;-0.78643798828125;0.280029296875;-0.49871826171875;-0.2332763671875;2.3789326664501473;17.3728637196169;7.449904699499349;0.93408203125;0.07958984375;-0.4296875;-9.3125;16.75;27.5625;
1441975396256688;-0.7833251953125;0.2818603515625;-0.50360107421875;-0.23101806640625;2.3194716693944186;17.42863963398839;7.39848503826167;0.95654296875;0.0419921875;-0.388671875;-5.8125;20.875;26.8125;
1441975396279690;-0.7811279296875;0.2830810546875;-0.50799560546875;-0.22735595703125;2.2735764987832896;17.496497095425227;7.343361137253183;0.953125;0.0380859375;-0.3759765625;7.375;23.25;23.4375;
1441975396300691;-0.77960205078125;0.28533935546875;-0.51068115234375;-0.22381591796875;2.2496483858836136;17.567587109119277;7.278957095681996;0.93310546875;0.0322265625;-0.3828125;16.4375;18.375;23.125;
1441975396316692;-0.77777099609375;0.28857421875;-0.51251220703125;-0.2218017578125;2.230384230440435;17.627391034445314;7.214464426178896;0.93408203125;0.0234375;-0.3974609375;10.625;8.5625;24.0;
1441975396339693;-0.775634765625;0.292236328125;-0.51434326171875;-0.22027587890625;2.209606722581355;17.686481859363813;7.146710580600816;0.943359375;0.00390625;-0.35693359375;-1.0625;4.4375;22.6875;
1441975396360694;-0.773681640625;0.295654296875;-0.5157470703125;-0.21942138671875;2.1925815551404497;17.734518232680756;7.088006652096236;0.93359375;-0.0703125;-0.3349609375;-6.5625;4.3125;19.4375;
1441975396376695;-0.7728271484375;0.29779052734375;-0.51611328125;-0.218505859375;2.1903084770145584;17.766700645893827;7.050399034058579;0.8984375;-0.11181640625;-0.3095703125;-10.125;2.9375;13.25;
1441975396399697;-0.77294921875;0.2989501953125;-0.5155029296875;-0.21783447265625;2.200626696694081;17.781665041222073;7.032814521631702;0.86572265625;-0.1162109375;-0.33447265625;-6.4375;-0.75;4.75;
1441975396420698;-0.77398681640625;0.2994384765625;-0.5140380859375;-0.2169189453125;2.223830429199902;17.788320166508218;7.027139977504937;0.84765625;-0.1015625;-0.341796875;-4.8125;-5.6875;-2.25;
1441975396436699;-0.775634765625;0.29913330078125;-0.51220703125;-0.21588134765625;2.253003193461754;17.78707733436242;7.033249911578016;0.859375;-0.1220703125;-0.375;-2.5;-10.3125;-8.5;
1441975396458700;-0.7777099609375;0.2972412109375;-0.51080322265625;-0.21435546875;2.27953037270583;17.779824824010614;7.054648673548079;0.8759765625;-0.1259765625;-0.37158203125;0.1875;-13.75;-13.375;
1441975396481701;-0.7799072265625;0.29412841796875;-0.51019287109375;-0.2122802734375;2.2991164690838173;17.7724675510419;7.084360843116402;0.90478515625;-0.09716796875;-0.357421875;9.25;-14.125;-17.4375;
1441975396496702;-0.782470703125;0.29071044921875;-0.5089111328125;-0.21051025390625;2.3257513911884176;17.756354896015203;7.122385270185387;0.95263671875;-0.09130859375;-0.36474609375;16.625;-11.125;-20.4375;
1441975396518703;-0.7850341796875;0.28741455078125;-0.50726318359375;-0.2093505859375;2.3544265167834366;17.733517104857707;7.163783610382513;0.9658203125;-0.05859375;-0.41650390625;16.25;-11.8125;-21.9375;
1441975396547705;-0.78753662109375;0.28411865234375;-0.5057373046875;-0.20806884765625;2.382186668183843;17.713359286683023;7.203084222328481;0.97216796875;-0.0458984375;-0.41796875;12.9375;-13.3125;-23.125;
1441975396556705;-0.78985595703125;0.28070068359375;-0.50469970703125;-0.20660400390625;2.4048354066656015;17.696914604458147;7.240320088474172;0.97705078125;-0.05810546875;-0.41650390625;12.9375;-13.0625;-23.5;
1441975396578707;-0.79229736328125;0.27618408203125;-0.504150390625;-0.2047119140625;2.42348310256119;17.6789514463086;7.285897737445309;0.982421875;-0.1005859375;-0.4130859375;13.3125;-11.1875;-25.6875;
1441975396616709;-0.79498291015625;0.27056884765625;-0.50390625;-0.20220947265625;2.4411218144029894;17.660778977894054;7.33913794559445;0.95947265625;-0.08984375;-0.41748046875;19.8125;-7.875;-28.4375;
1441975396619709;-0.79803466796875;0.2647705078125;-0.5030517578125;-0.20025634765625;2.4655213922697485;17.633449890890436;7.399788653389088;0.92724609375;-0.0615234375;-0.42333984375;27.0625;-5.9375;-30.1875;
1441975396646711;-0.80084228515625;0.25933837890625;-0.5020751953125;-0.19842529296875;2.4901484118190447;17.608266434841255;7.4559051749615195;0.88037109375;-0.00244140625;-0.43603515625;26.1875;-6.8125;-29.9375;
1441975396667712;-0.8037109375;0.2535400390625;-0.50140380859375;-0.196044921875;2.513471101137518;17.588029133905447;7.511194130405052;0.84326171875;-0.0087890625;-0.4189453125;23.8125;-7.125;-28.8125;
1441975396684713;-0.806396484375;0.24749755859375;-0.50115966796875;-0.193359375;2.5323505222233083;17.57127722977684;7.56551280633746;0.8212890625;-0.001953125;-0.41064453125;27.875;-6.5625;-28.375;
1441975396698714;-0.80859375;0.241455078125;-0.5013427734375;-0.1912841796875;2.543335949042405;17.54964594693275;7.622250019741062;0.8076171875;0.01708984375;-0.419921875;31.25;-3.0;-26.8125;
1441975396721715;-0.81097412109375;0.235107421875;-0.5013427734375;-0.1890869140625;2.5575695812171064;17.527051716728955;7.681653477194078;0.8134765625;0.03173828125;-0.41650390625;28.6875;0.375;-26.75;
1441975396736716;-0.8133544921875;0.22900390625;-0.5009765625;-0.1875;2.574850475614011;17.499256794542756;7.742432478055423;0.8125;0.03759765625;-0.41796875;29.8125;-0.625;-28.125;
1441975396758717;-0.81549072265625;0.22314453125;-0.500732421875;-0.185791015625;2.590247033427419;17.475421065096945;7.798636456920637;0.80322265625;0.01904296875;-0.40625;25.5625;-2.8125;-30.4375;
1441975396781718;-0.8175048828125;0.21685791015625;-0.5010986328125;-0.1834716796875;2.600145697680884;17.456751835261517;7.854412948059372;0.80078125;-0.00439453125;-0.39892578125;24.25;-1.9375;-30.375;
1441975396802720;-0.81976318359375;0.20941162109375;-0.50164794921875;-0.18060302734375;2.610537080254806;17.436531672149954;7.9190711970302905;0.8212890625;-0.015625;-0.4033203125;28.6875;0.1875;-30.5625;
1441975396826721;-0.82208251953125;0.20111083984375;-0.502197265625;-0.17779541015625;2.621563023680326;17.410085989428897;7.993212249894696;0.84912109375;0.017578125;-0.43017578125;35.875;1.5625;-32.875;
1441975396849722;-0.82403564453125;0.19281005859375;-0.5029296875;-0.1759033203125;2.62834332096551;17.37426671960232;8.072873647424329;0.86767578125;0.05224609375;-0.42236328125;38.9375;1.6875;-35.4375;
1441975396863723;-0.82568359375;0.1846923828125;-0.50372314453125;-0.17449951171875;2.6331468857197393;17.33468037708134;8.153349564372254;0.90234375;0.05126953125;-0.41796875;34.1875;2.875;-37.8125;
1441975396879724;-0.827392578125;0.1759033203125;-0.50469970703125;-0.1728515625;2.6379281556843366;17.293526752393706;8.239342837633462;0.92431640625;0.04150390625;-0.39501953125;31.125;2.375;-39.625;
1441975396901725;-0.82904052734375;0.16680908203125;-0.5057373046875;-0.1708984375;2.6431162251616187;17.253853296707902;8.326320967548035;0.9384765625;0.04736328125;-0.37353515625;34.4375;1.9375;-41.625;
1441975396930727;-0.830810546875;0.15728759765625;-0.5064697265625;-0.1690673828125;2.6533568187230845;17.210268681079736;8.418270696883866;0.9462890625;0.056640625;-0.36572265625;36.75;1.5625;-42.1875;
1441975396945728;-0.83270263671875;0.14788818359375;-0.506591796875;-0.167724609375;2.6713998155015504;17.16294890540241;8.51103450179847;0.91748046875;0.09228515625;-0.35498046875;38.5625;0.375;-43.1875;
1441975396969729;-0.83428955078125;0.13909912109375;-0.50665283203125;-0.167236328125;2.6891051943585387;17.1111624329431;8.602010144450501;0.88037109375;0.10693359375;-0.34912109375;35.5625;-1.8125;-43.8125;
1441975396999731;-0.83551025390625;0.1304931640625;-0.50714111328125;-0.16656494140625;2.7016329395936145;17.062777422191004;8.689665461433593;0.8603515625;0.11083984375;-0.330078125;29.6875;-1.6875;-42.9375;
1441975397001731;-0.836669921875;0.12164306640625;-0.5078125;-0.1656494140625;2.7135522765920412;17.01582397939594;8.778004680109104;0.88671875;0.12255859375;-0.34033203125;29.75;1.0;-41.375;
1441975397021732;-0.83740234375;0.11322021484375;-0.5087890625;-0.16473388671875;2.720620675284627;16.971230061902066;8.862152520668483;0.96435546875;0.201171875;-0.396484375;33.5625;3.25;-37.875;
1441975397042733;-0.8372802734375;0.1060791015625;-0.51068115234375;-0.16424560546875;2.713220716445328;16.928088934050884;8.937924673808507;1.056640625;0.25830078125;-0.43896484375;33.25;5.4375;-33.0;
1441975397058734;-0.83697509765625;0.10150146484375;-0.51202392578125;-0.1644287109375;2.7070057367569014;16.894421799577874;8.990396905971389;1.08251953125;0.25830078125;-0.38916015625;27.0625;7.5625;-27.5;
1441975397084736;-0.8358154296875;0.09881591796875;-0.5140380859375;-0.16571044921875;2.6875672245747664;16.858422879010973;9.032821189626935;0.99853515625;0.21337890625;-0.37548828125;14.875;5.875;-19.8125;
1441975397102737;-0.8341064453125;0.095947265625;-0.51708984375;-0.16656494140625;2.6553094416833316;16.822373021356444;9.078173470958596;0.9560546875;0.1591796875;-0.328125;2.5;8.875;-15.875;
1441975397125738;-0.83294677734375;0.0924072265625;-0.51953125;-0.1668701171875;2.633234891423225;16.78914576893386;9.125629697441509;0.9140625;0.13671875;-0.30126953125;4.625;15.1875;-15.3125;
1441975397141739;-0.83209228515625;0.08917236328125;-0.5213623046875;-0.16705322265625;2.6183293765424893;16.76047022413161;9.167536553567826;0.86279296875;0.1669921875;-0.34521484375;9.375;15.75;-15.25;
1441975397163740;-0.83154296875;0.0859375;-0.52294921875;-0.16644287109375;2.6065588524873697;16.741193535947357;9.203327065935232;0.8583984375;0.1787109375;-0.35498046875;9.3125;12.875;-13.75;
1441975397179741;-0.8306884765625;0.08355712890625;-0.5250244140625;-0.16571044921875;2.5863756217499354;16.72689144658348;9.231278222455929;0.89501953125;0.20556640625;-0.3623046875;14.0625;9.8125;-10.5625;
1441975397209743;-0.82928466796875;0.081787109375;-0.5277099609375;-0.1649169921875;2.555790793244941;16.714252373171057;9.255353692732635;0.93994140625;0.22998046875;-0.36865234375;12.25;11.625;-4.5625;
1441975397222744;-0.82763671875;0.08056640625;-0.53070068359375;-0.1641845703125;2.5197723901886966;16.70292040556653;9.275659831442125;0.9736328125;0.26708984375;-0.36865234375;11.4375;14.9375;1.4375;
1441975397238744;-0.82586669921875;0.0804443359375;-0.5335693359375;-0.1639404296875;2.4824248957980792;16.693329929860308;9.28755348377148;0.974609375;0.30517578125;-0.38037109375;10.1875;17.9375;6.4375;
1441975397269746;-0.8240966796875;0.0816650390625;-0.5361328125;-0.1639404296875;2.4450627849967557;16.69097277677087;9.285512366863156;0.9658203125;0.30224609375;-0.37255859375;4.375;17.0;10.5625;
1441975397282747;-0.822021484375;0.0841064453125;-0.5386962890625;-0.16436767578125;2.4036623571841083;16.691749131620746;9.273401923657804;0.94873046875;0.263671875;-0.359375;-1.6875;14.8125;13.6875;
1441975397298748;-0.81976318359375;0.08734130859375;-0.54144287109375;-0.16522216796875;2.3583119912413038;16.692786405331407;9.256078897032047;0.93310546875;0.2236328125;-0.3486328125;-9.25;14.6875;16.1875;
1441975397321749;-0.8175048828125;0.0902099609375;-0.54425048828125;-0.16558837890625;2.312407342525134;16.69697616408358;9.239151286330918;0.9248046875;0.2021484375;-0.33642578125;-13.625;15.5625;17.8125;
1441975397342750;-0.8154296875;0.093017578125;-0.54669189453125;-0.16619873046875;2.2716028794077068;16.699608191862204;9.222917649072034;0.91259765625;0.19873046875;-0.33056640625;-10.4375;16.3125;17.875;
1441975397360751;-0.8134765625;0.09619140625;-0.54864501953125;-0.16766357421875;2.236706018574369;16.696701243207666;9.207006432046203;0.892578125;0.2109375;-0.34423828125;-11.4375;16.125;17.9375;
1441975397381753;-0.81158447265625;0.0997314453125;-0.5501708984375;-0.16949462890625;2.20588807231745;16.693715475517426;9.187939549616416;0.8779296875;0.2265625;-0.35498046875;-16.25;15.0625;17.5;
1441975397402754;-0.8101806640625;0.10357666015625;-0.5511474609375;-0.17095947265625;2.1817964463854898;16.700845677258144;9.158975426682682;0.859375;0.2275390625;-0.365234375;-19.75;13.9375;17.875;
1441975397426755;-0.8084716796875;0.10821533203125;-0.55224609375;-0.172607421875;2.153250241622001;16.711611558456852;9.122298753407849;0.84912109375;0.21044921875;-0.3955078125;-19.25;12.0;18.9375;
1441975397441756;-0.80670166015625;0.11297607421875;-0.55340576171875;-0.1739501953125;2.123122472986488;16.727637048797096;9.081126019458036;0.85498046875;0.193359375;-0.36865234375;-22.9375;11.3125;21.8125;
1441975397463757;-0.80517578125;0.11773681640625;-0.5540771484375;-0.1756591796875;2.0997460211418515;16.74149984719758;9.040452944847202;0.8779296875;0.20654296875;-0.3916015625;-22.0625;12.375;23.625;
1441975397478758;-0.80364990234375;0.12249755859375;-0.5548095703125;-0.17724609375;2.075782060779831;16.757442893945836;8.99826517423193;0.89404296875;0.21337890625;-0.4091796875;-23.5;10.75;22.8125;
1441975397501760;-0.80224609375;0.12677001953125;-0.5555419921875;-0.1783447265625;2.053081740029888;16.776363834487505;8.957154581953194;0.89794921875;0.18359375;-0.3857421875;-23.5;9.75;21.3125;
1441975397522761;-0.801025390625;0.130615234375;-0.55621337890625;-0.17889404296875;2.0324397641114347;16.799887035239365;8.915488572315683;0.89013671875;0.16162109375;-0.375;-19.75;8.875;19.5625;
1441975397538762;-0.80010986328125;0.1336669921875;-0.55682373046875;-0.17901611328125;2.015498566620472;16.823237515474375;8.879126680598736;0.88232421875;0.14208984375;-0.37255859375;-15.9375;8.1875;17.8125;
1441975397561763;-0.79931640625;0.1361083984375;-0.55731201171875;-0.17901611328125;2.0015950279038552;16.843440727054116;8.848854414765981;0.888671875;0.140625;-0.38134765625;-11.5625;8.125;15.75;
1441975397584764;-0.798828125;0.13818359375;-0.55755615234375;-0.17889404296875;1.992558100354786;16.863248574203922;8.820993976952089;0.904296875;0.15185546875;-0.37939453125;-8.375;7.1875;13.875;
1441975397598765;-0.79840087890625;0.14068603515625;-0.55712890625;-0.18017578125;1.9909122477153018;16.86937499192029;8.798911178119821;0.91943359375;0.146484375;-0.37744140625;-6.875;5.1875;11.6875;
1441975397629767;-0.79815673828125;0.1439208984375;-0.555908203125;-0.18243408203125;1.9975731019547633;16.87078439293807;8.774124685802466;0.9267578125;0.15478515625;-0.359375;-14.4375;1.1875;8.875;
1441975397644768;-0.7982177734375;0.1470947265625;-0.55401611328125;-0.185302734375;2.0130808377200626;16.86486392736903;8.754109289231106;0.916015625;0.12841796875;-0.353515625;-22.3125;-3.25;6.4375;
1441975397658769;-0.79876708984375;0.14971923828125;-0.55145263671875;-0.1885986328125;2.039192458940158;16.84995758151431;8.743371428877744;0.92236328125;0.0966796875;-0.3505859375;-25.875;-7.4375;1.3125;
1441975397689770;-0.79998779296875;0.15155029296875;-0.54803466796875;-0.19183349609375;2.078756106673612;16.831255635627468;8.739633715699865;0.908203125;0.11279296875;-0.35205078125;-25.5625;-11.0;-3.125;
1441975397704771;-0.80169677734375;0.1529541015625;-0.5438232421875;-0.19561767578125;2.130028207829437;16.804102612269748;8.74351626680718;0.90234375;0.1279296875;-0.3671875;-23.25;-15.125;-7.0;
1441975397725772;-0.8038330078125;0.1539306640625;-0.53900146484375;-0.19940185546875;2.1904691614077287;16.77578135087116;8.750041829803932;0.8857421875;0.1572265625;-0.38427734375;-23.875;-18.5;-10.5625;
1441975397741773;-0.80621337890625;0.1546630859375;-0.53369140625;-0.203369140625;2.2576747448387278;16.74532809077177;8.75863908221875;0.87255859375;0.17626953125;-0.39208984375;-22.1875;-21.6875;-12.6875;
1441975397764775;-0.80859375;0.15533447265625;-0.52838134765625;-0.20733642578125;2.3250583070759143;16.715483214530177;8.766820557588884;0.86572265625;0.20654296875;-0.40771484375;-22.0625;-23.875;-13.4375;
1441975397777775;-0.8109130859375;0.15582275390625;-0.52313232421875;-0.2110595703125;2.3916462559709926;16.68788564662575;8.774410023436168;0.869140625;0.23681640625;-0.40869140625;-21.375;-24.625;-12.5;
1441975397800777;-0.8128662109375;0.15667724609375;-0.51824951171875;-0.21502685546875;2.4521306416107223;16.659769986412922;8.780030706265244;0.869140625;0.23388671875;-0.4052734375;-19.875;-24.5625;-13.0;
1441975397823778;-0.81439208984375;0.15777587890625;-0.51385498046875;-0.21881103515625;2.5047497299262647;16.634545902697223;8.782535506345639;0.86083984375;0.2451171875;-0.37890625;-21.75;-24.375;-11.5625;
1441975397837779;-0.8155517578125;0.15911865234375;-0.50970458984375;-0.22320556640625;2.5530428815291275;16.603657893235507;8.787105876207235;0.87158203125;0.2216796875;-0.37548828125;-21.9375;-21.9375;-10.5625;
1441975397860780;-0.816162109375;0.16119384765625;-0.505859375;-0.22808837890625;2.5941710185952305;16.57134353453019;8.787898111259553;0.8740234375;0.24072265625;-0.37451171875;-25.75;-20.5;-9.9375;
1441975397874781;-0.81622314453125;0.1640625;-0.50262451171875;-0.23321533203125;2.6247760965460474;16.540028644741852;8.783578248468633;0.88134765625;0.228515625;-0.35986328125;-30.6875;-18.75;-8.625;
1441975397897782;-0.81561279296875;0.1676025390625;-0.50048828125;-0.2373046875;2.638213891371801;16.521337182314547;8.768576640173716;0.869140625;0.1904296875;-0.33203125;-35.1875;-17.125;-6.9375;
1441975397920784;-0.81427001953125;0.17138671875;-0.49993896484375;-0.24029541015625;2.630381957804091;16.512081289377363;8.74857773745697;0.92041015625;0.15478515625;-0.3359375;-33.125;-13.0625;-1.75;
1441975397943785;-0.81195068359375;0.175537109375;-0.50146484375;-0.24188232421875;2.594662618560858;16.51537162752381;8.72153939843032;0.92919921875;0.12841796875;-0.31884765625;-28.625;-6.25;3.375;
1441975397957786;-0.8087158203125;0.17987060546875;-0.5050048828125;-0.2421875;2.532687654886045;16.529704580729245;8.689233770544906;0.92431640625;0.14306640625;-0.31103515625;-21.9375;4.5625;14.0;
1441975397980787;-0.8048095703125;0.18463134765625;-0.5096435546875;-0.24188232421875;2.454932374752131;16.5522946135669;8.649984693509829;0.93994140625;0.1240234375;-0.29931640625;-15.875;14.5;21.5625;
1441975397994788;-0.800048828125;0.19049072265625;-0.51507568359375;-0.2415771484375;2.362574102992987;16.582469294190066;8.59880099507011;0.9501953125;0.15625;-0.306640625;-13.5;21.0625;29.75;
1441975398017789;-0.7939453125;0.19805908203125;-0.521240234375;-0.242431640625;2.253192649845267;16.612058652966798;8.536234136428702;0.96728515625;0.158203125;-0.3115234375;-16.8125;26.6875;37.6875;
1441975398043791;-0.78631591796875;0.20782470703125;-0.52838134765625;-0.2437744140625;2.122215013488168;16.65539385456188;8.4488441073328;0.97412109375;0.16650390625;-0.275390625;-27.5;31.375;45.875;
1441975398054791;-0.77764892578125;0.219482421875;-0.5360107421875;-0.24462890625;1.9782827074926859;16.730033461262682;8.324153048729457;0.98779296875;0.1787109375;-0.23681640625;-36.375;36.3125;59.5625;
1441975398077792;-0.7684326171875;0.23236083984375;-0.5435791015625;-0.2452392578125;1.8326499329059822;16.83597017196549;8.16377191201665;0.9912109375;0.1396484375;-0.255859375;-41.9375;40.75;70.125;
1441975398100794;-0.758544921875;0.24591064453125;-0.55133056640625;-0.24554443359375;1.6849936856246714;16.976777968108067;7.9666520676907595;0.9873046875;0.1357421875;-0.27783203125;-45.1875;43.25;78.0;
1441975398114795;-0.7481689453125;0.260009765625;-0.55902099609375;-0.245361328125;1.5418212870860921;17.164572778577895;7.721733330348347;1.00830078125;0.12060546875;-0.27783203125;-46.875;45.75;83.6875;
1441975398137796;-0.737060546875;0.27496337890625;-0.56658935546875;-0.245361328125;1.4054316176587955;17.40463524895226;7.41952636326937;1.0263671875;0.0830078125;-0.30078125;-47.5625;48.3125;87.4375;
1441975398168798;-0.72509765625;0.29058837890625;-0.57440185546875;-0.244873046875;1.2785970177848742;17.724078851757156;7.036500143732009;1.03857421875;0.07080078125;-0.3017578125;-52.1875;49.8125;92.4375;
1441975398174798;-0.71197509765625;0.30657958984375;-0.58282470703125;-0.243896484375;1.1651975045680485;0.14285678013376432;6.553896324266038;1.0537109375;0.03515625;-0.2861328125;-53.125;52.5625;98.25;
1441975398197799;-0.6982421875;0.322998046875;-0.59112548828125;-0.24224853515625;1.0885895140489286;0.6669241507075738;5.965856827347263;1.04248046875;0.025390625;-0.271484375;-53.0;54.875;104.125;
1441975398220801;-0.68408203125;0.33917236328125;-0.59967041015625;-0.23968505859375;1.0586716638187388;1.2707703535946924;5.302118437634665;1.04345703125;0.0302734375;-0.2685546875;-52.4375;55.25;109.5;
1441975398243802;-0.66937255859375;0.35455322265625;-0.6087646484375;-0.23602294921875;1.0802682897216243;1.9059135118012853;4.61410913396394;1.03125;0.0146484375;-0.2919921875;-48.0625;57.125;113.0625;
1441975398257803;-0.6544189453125;0.3687744140625;-0.61846923828125;-0.23077392578125;1.1574717936053966;2.508881440697756;3.969008669281149;1.005859375;-0.0107421875;-0.24951171875;-40.4375;59.5625;115.8125;
1441975398280804;-0.6390380859375;0.3826904296875;-0.628173828125;-0.2249755859375;1.2836261215072073;3.022013420507967;3.416075454828141;1.02685546875;0.04638671875;-0.25244140625;-29.25;61.4375;119.75;
1441975398294805;-0.62274169921875;0.3963623046875;-0.6383056640625;-0.21856689453125;1.4499403549299217;3.450370876263143;2.9500868223348875;1.04296875;0.0537109375;-0.27978515625;-26.5625;63.125;122.375;
1441975398317806;-0.60546875;0.40972900390625;-0.6488037109375;-0.21148681640625;1.649833017582351;3.799119223834108;2.566052260886446;1.005859375;0.02783203125;-0.23876953125;-23.5625;66.375;126.625;
1441975398340808;-0.587158203125;0.423828125;-0.65875244140625;-0.2042236328125;1.879975375312655;4.065223830582753;2.2595521356456385;0.95361328125;0.0546875;-0.20751953125;-20.375;70.25;131.1875;
1441975398356808;-0.56805419921875;0.43914794921875;-0.66754150390625;-0.19720458984375;2.131938510248547;4.255163820998695;2.019913380160612;0.90380859375;0.1162109375;-0.21875;-24.75;71.3125;138.0625;
1441975398377810;-0.5487060546875;0.45416259765625;-0.67559814453125;-0.1905517578125;2.3877217056513222;4.396661687790643;1.8262247481045628;0.8828125;0.04345703125;-0.22314453125;-34.0625;69.625;140.75;
1441975398400811;-0.53021240234375;0.46575927734375;-0.6844482421875;-0.18310546875;2.6321033240168576;4.525455853503521;1.6634564452041616;0.833984375;-0.09912109375;-0.1455078125;-36.4375;68.8125;136.4375;
1441975398414812;-0.5133056640625;0.4739990234375;-0.6937255859375;-0.17486572265625;2.860193356770747;4.641738787782544;1.5321435642819872;0.80078125;-0.17626953125;-0.134765625;-17.25;69.375;126.375;
1441975398437813;-0.49749755859375;0.48126220703125;-0.70233154296875;-0.16644287109375;3.080172128799718;4.73440377511459;1.429440840832965;0.77294921875;-0.09912109375;-0.13525390625;0.9375;66.3125;117.1875;
1441975398460814;-0.4825439453125;0.489501953125;-0.7086181640625;-0.15948486328125;3.286147277408232;4.7914763428985045;1.3502141535484984;0.75146484375;-0.01953125;-0.115234375;4.25;60.25;112.8125;
1441975398483816;-0.4713134765625;0.49615478515625;-0.71240234375;-0.15570068359375;3.431216711742235;4.823142552796785;1.292762267154959;0.716796875;-0.0341796875;-0.08740234375;-9.375;52.875;104.875;
1441975398505817;-0.46185302734375;0.500244140625;-0.7164306640625;-0.1522216796875;3.5504491838093273;4.86051100207403;1.241972494786409;0.72216796875;-0.07763671875;-0.06103515625;-13.5625;46.3125;92.25;
