1441975546749296;0.062255859375;-0.67645263671875;-0.71142578125;-0.18048095703125;10.94327323788518;13.265144185082388;17.472871223999107;-1.28662109375;0.095703125;0.01220703125;-285.1875;119.5;171.6875;
1441975546764297;0.0726318359375;-0.6273193359375;-0.7608642578125;-0.14959716796875;10.73487370914761;12.887673086459658;17.588891013346117;-1.27392578125;-0.00390625;-0.103515625;-407.9375;112.0;152.0;
1441975546795299;0.079345703125;-0.58685302734375;-0.79669189453125;-0.1212158203125;10.5585264389203;12.596768492628712;17.702035530830486;-1.234375;-0.1865234375;-0.08251953125;-415.25;90.5625;140.75;
1441975546818300;0.08258056640625;-0.56390380859375;-0.81597900390625;-0.0975341796875;10.416606292926474;12.440474746923204;17.804762016390576;-1.1455078125;-0.32177734375;-0.0615234375;-322.25;76.6875;133.5625;
1441975546848302;0.0924072265625;-0.57537841796875;-0.80963134765625;-0.071044921875;10.33767042803785;12.537011260327542;17.974378482167303;-0.951171875;-0.10205078125;-0.00830078125;-31.25;55.5;101.0625;
1441975546871303;0.0997314453125;-0.5953369140625;-0.79449462890625;-0.06732177734375;10.38039453666749;12.688728095527805;0.03472977794082984;-0.880859375;0.2509765625;-0.0927734375;78.375;56.375;61.4375;
1441975546894304;0.111572265625;-0.61395263671875;-0.7781982421875;-0.071533203125;10.515680919594846;12.83727217319008;0.07617972294910375;-0.91650390625;0.56103515625;-0.1787109375;132.25;57.0625;10.0;
1441975546906305;0.1326904296875;-0.627197265625;-0.7626953125;-0.08551025390625;10.803925679972924;12.960421423016655;0.10851897717446021;-0.9736328125;0.76416015625;-0.16552734375;132.4375;51.375;-43.0625;
1441975546929306;0.15545654296875;-0.6329345703125;-0.751708984375;-0.10137939453125;11.122349303799254;13.035278621548004;0.1364010145663395;-0.939453125;0.9228515625;-0.06396484375;98.375;46.6875;-92.875;
1441975546944307;0.18414306640625;-0.63507080078125;-0.74017333984375;-0.12261962890625;11.53591071015762;13.100347465356458;0.16609532537501748;-0.85498046875;0.951171875;0.05908203125;64.0;51.5;-144.6875;
1441975546966308;0.2177734375;-0.63739013671875;-0.7236328125;-0.1507568359375;12.048585436032127;13.191318133581634;0.19770521369871655;-0.837890625;0.9189453125;0.15869140625;53.75;57.3125;-194.1875;
1441975546989310;0.2523193359375;-0.6419677734375;-0.7000732421875;-0.18487548828125;12.62004066997096;13.327749377587006;0.2313800865070286;-0.9384765625;0.7802734375;0.1875;77.5;59.5;-244.1875;
1441975547004311;0.2840576171875;-0.64788818359375;-0.6705322265625;-0.22369384765625;13.212339645597467;13.503071980225418;0.26332820047539646;-1.1767578125;0.7158203125;0.3037109375;121.75;53.8125;-273.5;
1441975547026312;0.3172607421875;-0.6495361328125;-0.63946533203125;-0.26202392578125;13.824936414981883;13.693632380272092;0.332118561024416;-1.2705078125;0.62109375;0.2119140625;158.0625;35.75;-286.5625;
1441975547049313;0.35009765625;-0.6451416015625;-0.60919189453125;-0.3004150390625;14.449450356094784;13.882932533539936;0.42423897413632483;-1.25537109375;0.59423828125;0.025390625;142.6875;38.8125;-301.4375;
1441975547064314;0.38189697265625;-0.63262939453125;-0.5828857421875;-0.33807373046875;15.079213285805823;14.043387908414054;0.5258618976324652;-1.44775390625;0.66943359375;-0.078125;117.5;26.625;-311.875;
1441975547088315;0.41278076171875;-0.613037109375;-0.56231689453125;-0.37103271484375;15.679170872945924;14.17750963990542;0.6512707517506036;-1.546875;0.67822265625;-0.07763671875;75.0625;4.125;-317.25;
1441975547109317;0.44329833984375;-0.5916748046875;-0.54180908203125;-0.39990234375;16.24629455339369;14.399930942143012;0.8811779904315228;-1.435546875;0.5703125;0.08154296875;22.75;-5.5625;-304.5625;
1441975547124317;0.471435546875;-0.572265625;-0.518310546875;-0.42620849609375;16.754639960136686;14.872910516104481;1.3477585779921235;-1.34375;0.38037109375;0.10791015625;8.1875;3.75;-294.4375;
1441975547146319;0.49554443359375;-0.55303955078125;-0.495849609375;-0.4503173828125;17.166949729386868;15.758669529003809;2.224308602028056;-1.4228515625;0.26708984375;-0.01123046875;22.25;15.6875;-280.375;
1441975547169320;0.51519775390625;-0.53271484375;-0.47601318359375;-0.47357177734375;17.424915043788324;17.447921678848733;3.9046797414839256;-1.47119140625;0.13330078125;-0.1884765625;22.5;5.6875;-257.4375;
1441975547184321;0.52935791015625;-0.51544189453125;-0.4571533203125;-0.4951171875;17.391924132925883;1.4984318645373027;5.929442114763954;-1.40478515625;-0.04248046875;-0.1513671875;20.375;-14.3125;-236.0625;
1441975547206322;0.5386962890625;-0.5030517578125;-0.43853759765625;-0.5142822265625;17.18267382759644;2.627471213935403;7.012295545785082;-1.2353515625;-0.080078125;-0.0361328125;35.5625;-16.9375;-204.0;
1441975547230324;0.54400634765625;-0.49395751953125;-0.4227294921875;-0.53045654296875;16.972407683774986;3.1704367021431876;7.50451273755803;-1.126953125;-0.09228515625;-0.04541015625;54.25;-10.125;-169.0625;
1441975547244324;0.54803466796875;-0.4857177734375;-0.4122314453125;-0.5421142578125;16.806387782369356;3.4749318954761876;7.780285943977315;-1.0791015625;-0.02734375;-0.095703125;57.25;-11.1875;-133.3125;
1441975547266326;0.55169677734375;-0.47857666015625;-0.4080810546875;-0.54779052734375;16.705465587122003;3.6325707190862944;7.940547456804872;-0.98876953125;0.0517578125;-0.087890625;34.0;-15.875;-101.4375;
1441975547289327;0.5545654296875;-0.47222900390625;-0.4061279296875;-0.55181884765625;16.631991840501364;3.7513906001240698;8.06856007015697;-0.89013671875;0.0302734375;-0.08251953125;2.4375;-17.9375;-74.4375;
1441975547304328;0.5546875;-0.4688720703125;-0.40496826171875;-0.55548095703125;16.595026727649618;3.8458019881334904;8.159030276474068;-0.8212890625;-0.0380859375;-0.04296875;-5.125;-17.5;-54.0;
1441975547326329;0.55316162109375;-0.46832275390625;-0.40521240234375;-0.5572509765625;16.59782885115422;3.897444387892098;8.203447940952756;-0.72705078125;-0.00244140625;-0.02685546875;7.1875;-15.5;-35.0625;
1441975547351330;0.55169677734375;-0.46868896484375;-0.407958984375;-0.556396484375;16.632397774721678;3.9139659443246146;8.225151011910665;-0.6669921875;0.05517578125;-0.05078125;9.625;-11.9375;-15.8125;
1441975547364331;0.54913330078125;-0.46923828125;-0.41265869140625;-0.55499267578125;16.691159130135404;3.9472056560342774;8.267131645724396;-0.685546875;0.01123046875;-0.11572265625;-2.8125;-14.3125;3.9375;
1441975547386332;0.54351806640625;-0.47161865234375;-0.41815185546875;-0.55438232421875;16.78049348756199;4.014276949084489;8.328903618490981;-0.7412109375;-0.08837890625;-0.099609375;-6.375;-20.0625;21.25;
1441975547409334;0.5350341796875;-0.47698974609375;-0.4239501953125;-0.55364990234375;16.904729351081315;4.08362635072185;8.377367728125176;-0.71923828125;-0.09033203125;-0.060546875;7.375;-23.6875;37.0625;
1441975547424335;0.5255126953125;-0.4840087890625;-0.43072509765625;-0.55145263671875;17.05633008178097;4.1355345498135225;8.407749748856855;-0.67724609375;0.00244140625;-0.0517578125;22.6875;-21.375;51.0;
1441975547454336;0.5162353515625;-0.4912109375;-0.43914794921875;-0.5472412109375;17.227265847265848;4.169845550960727;8.431273034110193;-0.7158203125;0.0830078125;-0.05078125;22.6875;-18.0;60.0625;
1441975547469337;0.50726318359375;-0.49786376953125;-0.448974609375;-0.5416259765625;17.40917217587252;4.2143699158539345;8.475498551193636;-0.8037109375;0.13232421875;-0.0478515625;11.75;-16.4375;67.75;
1441975547487338;0.4984130859375;-0.5042724609375;-0.45953369140625;-0.53497314453125;17.59852356239486;4.281351122557642;8.548248419175975;-0.884765625;0.12939453125;-0.0185546875;0.75;-15.5;74.4375;
1441975547506339;0.4896240234375;-0.510498046875;-0.4698486328125;-0.52813720703125;17.785271566786722;4.45004881033037;8.723168579834303;-0.91015625;0.123046875;0.00341796875;-5.5625;-14.125;80.5625;
1441975547538341;0.48150634765625;-0.51641845703125;-0.47979736328125;-0.52093505859375;17.960872627865985;5.822676001058675;10.104768112385361;-0.94580078125;0.130859375;0.005859375;-5.9375;-13.1875;81.125;
1441975547544341;0.47418212890625;-0.52166748046875;-0.4893798828125;-0.513427734375;17.85992284113255;12.775746965261048;17.070769249004393;-1.0322265625;0.1416015625;-0.01220703125;-8.8125;-12.0625;79.25;
1441975547566343;0.467529296875;-0.526123046875;-0.49871826171875;-0.50592041015625;17.69886972099626;12.99094864834331;17.30236421184917;-1.109375;0.11865234375;-0.02001953125;-12.9375;-10.375;78.8125;
1441975547589344;0.4609375;-0.53021240234375;-0.5078125;-0.4986572265625;17.542041587252164;13.033568440818845;17.361185193378226;-1.10595703125;0.0791015625;-0.01318359375;-16.4375;-10.375;79.0;
1441975547604345;0.45458984375;-0.5343017578125;-0.516357421875;-0.49127197265625;17.389776054638816;13.071494665572772;17.41476777811863;-1.0830078125;0.072265625;0.01171875;-16.0;-9.625;78.8125;
1441975547626346;0.4486083984375;-0.53814697265625;-0.52447509765625;-0.48388671875;17.243698057631853;13.098900749100935;17.45835376506929;-1.0791015625;0.09033203125;0.01611328125;-15.4375;-7.0;77.5625;
1441975547649347;0.4432373046875;-0.54095458984375;-0.53302001953125;-0.476318359375;17.102709567801167;13.09647335124434;17.478607536496064;-1.08642578125;0.0966796875;0.0107421875;-15.9375;-6.25;76.0625;
1441975547664348;0.4385986328125;-0.54266357421875;-0.54217529296875;-0.46826171875;16.965281951705236;13.07789969583674;17.491169022933395;-1.05224609375;0.0908203125;0.01318359375;-22.4375;-7.4375;75.375;
1441975547686350;0.43450927734375;-0.54345703125;-0.55157470703125;-0.4600830078125;16.83347414080822;13.048057584131552;17.497790167397234;-0.9931640625;0.09228515625;0.021484375;-30.9375;-8.3125;74.5;
1441975547709351;0.43084716796875;-0.5439453125;-0.560546875;-0.4520263671875;16.709201370857226;13.02286989538172;17.5096725861347;-0.96435546875;0.09765625;0.0244140625;-36.0;-9.0625;71.875;
1441975547727352;0.4278564453125;-0.5438232421875;-0.56884765625;-0.444580078125;16.59947558241698;12.995099132646303;17.519057380703483;-0.96142578125;0.14697265625;0.02001953125;-37.0625;-8.6875;66.375;
1441975547747353;0.4256591796875;-0.54327392578125;-0.57623291015625;-0.43780517578125;16.5062056786058;12.970390804252592;17.530525444934277;-0.97607421875;0.1796875;0.0263671875;-37.0625;-8.25;58.6875;
1441975547769354;0.4239501953125;-0.5423583984375;-0.58258056640625;-0.43218994140625;16.430219262205878;12.942749885706368;17.535239813020343;-0.97216796875;0.20361328125;0.0185546875;-36.1875;-7.625;49.75;
1441975547792356;0.422607421875;-0.54132080078125;-0.5877685546875;-0.427734375;16.370342873877952;12.916081368870966;17.53566944760948;-0.9560546875;0.208984375;0.02880859375;-32.5;-7.5625;41.375;
1441975547806356;0.4215087890625;-0.54052734375;-0.591552734375;-0.42462158203125;16.326647635540883;12.894588808831301;17.533333047582733;-0.91748046875;0.1943359375;0.03369140625;-27.125;-7.375;33.875;
1441975547829358;0.4207763671875;-0.5399169921875;-0.5941162109375;-0.42254638671875;16.297577624330156;12.879179830549372;17.531062861986626;-0.8759765625;0.1748046875;0.0361328125;-19.4375;-6.5;26.625;
1441975547844359;0.4202880859375;-0.539306640625;-0.5958251953125;-0.42138671875;16.280122087951884;12.864300308283044;17.524887391106382;-0.8515625;0.17236328125;0.02880859375;-13.375;-5.4375;19.625;
1441975547866360;0.42041015625;-0.53839111328125;-0.59698486328125;-0.42083740234375;16.27475397557628;12.848396039517686;17.51695285517724;-0.8359375;0.17333984375;0.02978515625;-9.25;-5.5;13.375;
1441975547889361;0.42108154296875;-0.5369873046875;-0.59771728515625;-0.4208984375;16.28094367083959;12.82743676757519;17.503942351062005;-0.826171875;0.1728515625;0.01416015625;-9.0625;-5.8125;7.1875;
1441975547904362;0.4219970703125;-0.53521728515625;-0.59808349609375;-0.42169189453125;16.29615814057774;12.799013808577918;17.482030577769635;-0.83056640625;0.166015625;0.02001953125;-9.0;-5.8125;1.5625;
1441975547926363;0.4227294921875;-0.53363037109375;-0.59796142578125;-0.42315673828125;16.3155124153188;12.768907618357618;17.453999170352347;-0.8125;0.142578125;0.021484375;-7.375;-7.0;-2.3125;
1441975547950365;0.42327880859375;-0.5325927734375;-0.59686279296875;-0.4254150390625;16.341218904930233;12.744688918003476;17.42459614790369;-0.78466796875;0.1396484375;0.04052734375;-3.5625;-6.75;-5.3125;
1441975547964366;0.42376708984375;-0.53216552734375;-0.5948486328125;-0.4283447265625;16.373088884299676;12.728489454396716;17.396656721895102;-0.78759765625;0.1484375;0.0556640625;4.125;-5.5;-9.375;
1441975547986367;0.42449951171875;-0.53179931640625;-0.59234619140625;-0.4315185546875;16.410700599087523;12.715397706452228;17.370242094000464;-0.81494140625;0.18017578125;0.0458984375;10.4375;-4.625;-14.25;
1441975548009368;0.42572021484375;-0.53094482421875;-0.58978271484375;-0.434814453125;16.45458849855678;12.69647055230733;17.340293146107527;-0.83837890625;0.2080078125;0.03466796875;11.9375;-3.8125;-18.6875;
1441975548024369;0.42742919921875;-0.5296630859375;-0.58709716796875;-0.4383544921875;16.505447502234553;12.670994180288833;17.305380540694237;-0.84619140625;0.2138671875;0.0400390625;9.5625;-3.5625;-22.625;
1441975548047370;0.42950439453125;-0.5279541015625;-0.58404541015625;-0.44244384765625;16.56517570845755;12.63552546190257;17.26012700016176;-0.85791015625;0.20751953125;0.0341796875;7.6875;-3.6875;-26.125;
1441975548069372;0.43182373046875;-0.526123046875;-0.58056640625;-0.4468994140625;16.63124972391886;12.595240597572998;17.208834423554457;-0.8798828125;0.16943359375;0.04345703125;8.1875;-3.9375;-28.875;
1441975548095373;0.43389892578125;-0.52447509765625;-0.5767822265625;-0.45172119140625;16.69804079972819;12.549506393816724;17.148940748265353;-0.8984375;0.13232421875;0.04541015625;9.1875;-3.375;-30.0625;
1441975548114374;0.43548583984375;-0.52349853515625;-0.57269287109375;-0.45648193359375;16.76031831514412;12.510994343597478;17.092252019668397;-0.91064453125;0.09033203125;0.060546875;13.0;-2.9375;-28.625;
1441975548129375;0.43634033203125;-0.52325439453125;-0.56866455078125;-0.46099853515625;16.81298751261219;12.479917207822304;17.03968604192724;-0.91015625;0.0625;0.0654296875;17.5;-1.875;-25.125;
1441975548144376;0.43695068359375;-0.52337646484375;-0.56494140625;-0.46478271484375;16.85752650804056;12.460138914938474;16.999676856238896;-0.916015625;0.0751953125;0.07861328125;20.8125;-0.4375;-21.5625;
1441975548166377;0.43768310546875;-0.5233154296875;-0.56219482421875;-0.467529296875;16.89278366479698;12.443713222879326;16.969711865166445;-0.9326171875;0.09765625;0.0751953125;20.0;0.8125;-18.0625;
1441975548189378;0.4385986328125;-0.5228271484375;-0.5604248046875;-0.4693603515625;16.920430139586713;12.424945143151895;16.94461502451276;-0.94189453125;0.1064453125;0.06201171875;13.1875;0.5625;-14.3125;
1441975548212380;0.43951416015625;-0.522216796875;-0.5592041015625;-0.4705810546875;16.942287988046644;12.408282201052671;16.925315129553635;-0.95361328125;0.11181640625;0.0654296875;6.125;0.4375;-10.6875;
1441975548226380;0.4403076171875;-0.52166748046875;-0.558349609375;-0.47149658203125;16.95932313056934;12.393436665964062;16.90923799918354;-0.99072265625;0.11865234375;0.068359375;2.3125;0.625;-7.875;
1441975548249382;0.44097900390625;-0.5211181640625;-0.557861328125;-0.47198486328125;16.971266294227494;12.381759028134965;16.898261627660027;-1.01025390625;0.1162109375;0.05712890625;1.125;-0.375;-5.0625;
1441975548265383;0.44140625;-0.52069091796875;-0.5577392578125;-0.4722900390625;16.97773112825764;12.370633839660332;16.888363718822895;-1.00439453125;0.11572265625;0.060546875;-0.75;-0.25;-2.6875;
1441975548286384;0.44140625;-0.5205078125;-0.5576171875;-0.4725341796875;16.979929963699487;12.362976893506946;16.880180672898486;-0.98583984375;0.1142578125;0.0654296875;-1.1875;-0.5;-0.1875;
1441975548309385;0.4407958984375;-0.52093505859375;-0.55718994140625;-0.47320556640625;16.979341465232658;12.359319015488428;16.870378268610565;-0.95849609375;0.107421875;0.06982421875;0.625;-0.8125;1.9375;
1441975548325386;0.43939208984375;-0.522216796875;-0.55633544921875;-0.47406005859375;16.973866168424912;12.369871949799276;16.86829195775789;-0.953125;0.10546875;0.0732421875;6.4375;-1.1875;3.0625;
1441975548346387;0.43768310546875;-0.52374267578125;-0.5556640625;-0.4747314453125;16.963401946789016;12.385314070594948;16.870566154770998;-0.93701171875;0.126953125;0.0673828125;12.5625;-1.1875;4.5625;
1441975548377389;0.4361572265625;-0.525146484375;-0.5552978515625;-0.47515869140625;16.951706032236256;12.400801374234067;16.87534299359264;-0.9189453125;0.15380859375;0.07666015625;13.3125;-0.8125;5.125;
1441975548385390;0.434814453125;-0.52618408203125;-0.55511474609375;-0.47540283203125;16.9404782058457;12.411050252222699;16.877511471094895;-0.92919921875;0.173828125;0.08203125;11.0;-0.25;4.625;
1441975548406391;0.43389892578125;-0.52703857421875;-0.554931640625;-0.47552490234375;16.932674108347026;12.422528881895197;16.88301759971522;-0.93798828125;0.185546875;0.09033203125;8.25;0.125;3.8125;
1441975548429392;0.43341064453125;-0.5274658203125;-0.5545654296875;-0.47589111328125;16.93154903830758;12.425081914512495;16.88082810062261;-0.9541015625;0.18603515625;0.08740234375;6.3125;0.75;2.5;
1441975548445393;0.4329833984375;-0.52764892578125;-0.55438232421875;-0.47625732421875;16.930285667775486;12.421011651733734;16.87341993020812;-0.98046875;0.15478515625;0.08740234375;4.75;0.75;1.75;
1441975548468394;0.43243408203125;-0.5279541015625;-0.55413818359375;-0.4766845703125;16.928375222081087;12.418188235400638;16.86620477112624;-0.9765625;0.12939453125;0.09619140625;3.75;0.6875;2.8125;
1441975548489396;0.43194580078125;-0.5284423828125;-0.55401611328125;-0.47674560546875;16.924285773540127;12.425293750515275;16.869972015303166;-0.955078125;0.115234375;0.10205078125;5.0;0.75;4.0625;
1441975548505396;0.4315185546875;-0.52874755859375;-0.55426025390625;-0.4765625;16.917730356469487;12.429767489748908;16.87356596499072;-0.966796875;0.119140625;0.09228515625;3.75;1.375;5.5625;
1441975548526398;0.4310302734375;-0.52874755859375;-0.55499267578125;-0.47613525390625;16.90721760033045;12.427007850182203;16.872733144295353;-0.98681640625;0.11279296875;0.083984375;1.375;0.75;7.5625;
1441975548549399;0.43023681640625;-0.5289306640625;-0.55584716796875;-0.47564697265625;16.892731363834287;12.425942300894684;16.872714884781015;-0.9833984375;0.10107421875;0.0966796875;-1.0;-0.25;10.0;
1441975548565400;0.42913818359375;-0.5294189453125;-0.55670166015625;-0.47509765625;16.8747940232029;12.430187063440517;16.87642443245318;-0.9599609375;0.1005859375;0.09228515625;-0.5;-0.875;11.9375;
1441975548586401;0.427734375;-0.5301513671875;-0.55767822265625;-0.474365234375;16.852263645454045;12.439217565663743;16.8842133388776;-0.95166015625;0.10986328125;0.10107421875;1.125;-0.8125;13.1875;
1441975548609402;0.42645263671875;-0.53082275390625;-0.55865478515625;-0.47357177734375;16.830624804966074;12.44853811724787;16.89299480162323;-0.953125;0.13232421875;0.0966796875;1.9375;-0.75;13.9375;
1441975548625403;0.42523193359375;-0.53131103515625;-0.559814453125;-0.47283935546875;16.808928150298694;12.451680316811832;16.896655838724847;-0.96435546875;0.1435546875;0.0869140625;1.125;-1.0625;13.875;
1441975548646405;0.42413330078125;-0.53167724609375;-0.5609130859375;-0.47210693359375;16.788939153675322;12.453693933338828;16.899714237510114;-0.9521484375;0.1455078125;0.0927734375;-0.0625;-2.0;13.1875;
1441975548669406;0.423095703125;-0.53192138671875;-0.56182861328125;-0.47161865234375;16.77193199555167;12.451470721896312;16.897832788738505;-0.95458984375;0.1474609375;0.08740234375;-0.375;-1.9375;12.4375;
1441975548685407;0.42218017578125;-0.531982421875;-0.562744140625;-0.4713134765625;16.757072370903774;12.443748326409636;16.890807301612877;-0.96484375;0.1435546875;0.08447265625;-0.25;-2.75;11.375;
1441975548706408;0.42120361328125;-0.53204345703125;-0.56329345703125;-0.47137451171875;16.745591585788354;12.43333194989313;16.878799695287892;-0.96630859375;0.14013671875;0.08935546875;-0.0625;-3.25;10.3125;
1441975548729409;0.420166015625;-0.53228759765625;-0.5635986328125;-0.47174072265625;16.73595277535754;12.423500466574232;16.86509485395365;-0.96240234375;0.13134765625;0.09619140625;1.6875;-3.1875;9.0625;
1441975548745410;0.41912841796875;-0.53271484375;-0.56365966796875;-0.47210693359375;16.72750323642625;12.419272006294689;16.855759249658238;-0.96337890625;0.13720703125;0.09765625;4.1875;-3.375;7.9375;
1441975548766411;0.41839599609375;-0.53289794921875;-0.56378173828125;-0.47247314453125;16.7216912403607;12.411859011719821;16.84500172138912;-0.96044921875;0.14794921875;0.08544921875;5.25;-3.0;6.625;
1441975548789413;0.41796875;-0.53265380859375;-0.56402587890625;-0.4727783203125;16.71830571679005;12.39833078983963;16.83076565415338;-0.962890625;0.15380859375;0.08349609375;3.5;-3.0625;5.1875;
1441975548805414;0.41802978515625;-0.5321044921875;-0.5643310546875;-0.4730224609375;16.71892676581823;12.382350651158799;16.81672281859639;-0.96240234375;0.15185546875;0.08544921875;0.5;-3.125;3.8125;
1441975548834415;0.418212890625;-0.531494140625;-0.564453125;-0.473388671875;16.722341982017273;12.365488931095715;16.80144644495319;-0.96142578125;0.1416015625;0.0869140625;-1.9375;-2.875;2.5;
1441975548849416;0.41827392578125;-0.53106689453125;-0.56427001953125;-0.4739990234375;16.72727550918495;12.349952405865533;16.785032283475104;-0.958984375;0.13818359375;0.08056640625;-1.5;-2.6875;1.5625;
1441975548865417;0.41845703125;-0.53070068359375;-0.56396484375;-0.474609375;16.733866954862556;12.33703487289224;16.771063282646892;-0.96435546875;0.1337890625;0.0849609375;0.5625;-2.4375;0.5625;
1441975548886418;0.41876220703125;-0.5302734375;-0.563720703125;-0.47509765625;16.740712534803507;12.324904027134359;16.758936487720177;-0.95947265625;0.14111328125;0.07861328125;1.125;-1.9375;-0.1875;
1441975548909420;0.41925048828125;-0.52972412109375;-0.5634765625;-0.4755859375;16.749297788880764;12.311273198616972;16.746191144544735;-0.96044921875;0.150390625;0.07861328125;-0.0625;-1.625;-1.0;
1441975548925420;0.41986083984375;-0.529052734375;-0.56317138671875;-0.4761962890625;16.759958664390606;12.29427002661724;16.730251129799996;-0.962890625;0.15185546875;0.0810546875;-0.9375;-1.25;-2.1875;
1441975548946422;0.42059326171875;-0.52838134765625;-0.5628662109375;-0.47662353515625;16.770959361998955;12.28058936881066;16.718510671718814;-0.9619140625;0.1455078125;0.08349609375;-1.375;-1.0;-3.0625;
1441975548969423;0.4215087890625;-0.52764892578125;-0.5625;-0.47705078125;16.783989532712628;12.266893056941798;16.70728354136211;-0.95751953125;0.15478515625;0.0859375;-2.1875;-0.25;-3.875;
1441975548985424;0.42266845703125;-0.52679443359375;-0.56207275390625;-0.47747802734375;16.799677853903944;12.252230758577245;16.69597060091487;-0.96142578125;0.15869140625;0.08447265625;-2.5625;0.4375;-4.9375;
1441975549006425;0.42413330078125;-0.52593994140625;-0.5615234375;-0.477783203125;16.81830160292332;12.241821610207367;16.689790302212348;-0.96142578125;0.1552734375;0.08203125;-3.3125;0.75;-5.8125;
1441975549030426;0.42572021484375;-0.5250244140625;-0.56103515625;-0.47802734375;16.83741421493953;12.23110901282208;16.684185203409555;-0.97119140625;0.14794921875;0.06884765625;-4.4375;1.625;-6.75;
1441975549045427;0.4271240234375;-0.52398681640625;-0.56048583984375;-0.47845458984375;16.856280083058678;12.213893811794268;16.67119294797355;-0.96337890625;0.14453125;0.0693359375;-5.3125;1.875;-6.75;
1441975549066429;0.42852783203125;-0.52325439453125;-0.559814453125;-0.47882080078125;16.875175695291862;12.204677705845457;16.6651470387813;-0.96142578125;0.13134765625;0.08837890625;-4.375;2.125;-6.75;
1441975549089430;0.42987060546875;-0.5225830078125;-0.55926513671875;-0.47900390625;16.892001437245476;12.198574721969418;16.66273897691094;-0.9775390625;0.138671875;0.08203125;-2.9375;2.5625;-6.5;
1441975549105431;0.43133544921875;-0.52178955078125;-0.558837890625;-0.47900390625;16.908633498581025;12.192784395550161;16.66222225243978;-0.97509765625;0.15478515625;0.080078125;-3.75;3.25;-6.625;
1441975549129432;0.432861328125;-0.52093505859375;-0.55841064453125;-0.47900390625;16.925888580097578;12.185887629028194;16.66094908896048;-0.974609375;0.154296875;0.08154296875;-5.4375;3.25;-6.6875;
1441975549149433;0.434326171875;-0.520263671875;-0.55792236328125;-0.47906494140625;16.94289730229;12.181931753779896;16.661563128512302;-0.9736328125;0.1396484375;0.0771484375;-5.3125;3.4375;-6.125;
1441975549165434;0.43560791015625;-0.5196533203125;-0.55743408203125;-0.4791259765625;16.958284376601263;12.178276583556242;16.661772972662167;-0.9755859375;0.1328125;0.078125;-4.625;3.5;-5.5;
1441975549189436;0.43670654296875;-0.51910400390625;-0.55706787109375;-0.4791259765625;16.970992625270526;12.175103355207156;16.662287885251608;-0.97216796875;0.12109375;0.07666015625;-3.5;3.1875;-4.375;
1441975549209437;0.4376220703125;-0.5186767578125;-0.556884765625;-0.47894287109375;16.980088652918997;12.175783950373223;16.666831217823127;-0.96875;0.12158203125;0.08056640625;-3.625;3.0625;-2.9375;
1441975549225438;0.438232421875;-0.5184326171875;-0.55694580078125;-0.4786376953125;16.984198514903593;12.179326019748462;16.67388449335257;-0.9697265625;0.1181640625;0.080078125;-3.625;2.8125;-1.1875;
1441975549249439;0.43865966796875;-0.51824951171875;-0.55718994140625;-0.4781494140625;16.984812534266844;12.185352136927325;16.683772338506476;-0.962890625;0.123046875;0.0810546875;-3.0625;2.3125;0.5625;
1441975549277441;0.4390869140625;-0.517822265625;-0.55780029296875;-0.4775390625;16.98293896226227;12.184990789535185;16.689379117735115;-0.95947265625;0.13427734375;0.07470703125;-3.6875;1.5;2.0;
1441975549285441;0.43951416015625;-0.517333984375;-0.5584716796875;-0.47686767578125;16.98056849645552;12.183907921452175;16.69479129785346;-0.962890625;0.13525390625;0.07763671875;-5.75;0.8125;2.75;
1441975549308442;0.43988037109375;-0.5169677734375;-0.55902099609375;-0.47625732421875;16.978505195552586;12.1851042202475;16.701429760473644;-0.96484375;0.12939453125;0.07763671875;-6.625;0.25;3.0625;
1441975549329444;0.44000244140625;-0.51678466796875;-0.559326171875;-0.4759521484375;16.976758483108256;12.185066387610297;16.704025642473578;-0.9697265625;0.13232421875;0.0712890625;-5.0625;-0.0625;3.0625;
1441975549351445;0.43994140625;-0.51678466796875;-0.55950927734375;-0.47576904296875;16.974384893332733;12.186762043418184;16.706599642505065;-0.974609375;0.13330078125;0.0751953125;-2.625;0.0;2.75;
1441975549368446;0.4398193359375;-0.51678466796875;-0.55963134765625;-0.47576904296875;16.972521028445495;12.184970009262562;16.70480760834944;-0.98291015625;0.13818359375;0.07666015625;-0.875;-0.25;2.5625;
1441975549400448;0.439697265625;-0.516845703125;-0.5596923828125;-0.47576904296875;16.970963273809414;12.185110345977835;16.704596839848175;-0.97509765625;0.130859375;0.078125;0.0;-0.625;2.625;
1441975549405448;0.4395751953125;-0.51690673828125;-0.55975341796875;-0.4757080078125;16.96921463588442;12.186464860932052;16.705776393841344;-0.96923828125;0.12841796875;0.07373046875;0.6875;-0.75;2.75;
1441975549435450;0.43939208984375;-0.51690673828125;-0.55999755859375;-0.47564697265625;16.965793492179557;12.18447304400682;16.70413569296412;-0.9677734375;0.1240234375;0.072265625;0.1875;-0.75;2.875;
1441975549452451;0.43914794921875;-0.51702880859375;-0.56011962890625;-0.47552490234375;16.962295992096934;12.187167074031475;16.706479790454072;-0.9619140625;0.130859375;0.0771484375;-0.0625;-1.0;3.375;
1441975549467451;0.43890380859375;-0.51715087890625;-0.560302734375;-0.4754638671875;16.958555266132024;12.18811367051464;16.707075249226232;-0.96826171875;0.1279296875;0.06494140625;0.25;-1.3125;3.625;
1441975549496453;0.43865966796875;-0.51727294921875;-0.5604248046875;-0.47540283203125;16.955248468621622;12.189583588774447;16.708019025564404;-0.97119140625;0.1279296875;0.07373046875;0.5;-1.1875;3.9375;
1441975549509454;0.43841552734375;-0.517333984375;-0.56060791015625;-0.475341796875;16.951636171281855;12.189150220573067;16.707410642534526;-0.97265625;0.12109375;0.0732421875;0.5625;-0.9375;4.1875;
1441975549527455;0.43817138671875;-0.517578125;-0.5606689453125;-0.47528076171875;16.948505580637754;12.193864389844476;16.711071332451752;-0.9619140625;0.12646484375;0.07861328125;0.5625;-0.8125;3.9375;
1441975549555457;0.43792724609375;-0.51776123046875;-0.5606689453125;-0.4752197265625;16.945935296398197;12.197722566354873;16.713877018538092;-0.966796875;0.1318359375;0.07470703125;1.125;-0.5;3.5625;
1441975549569457;0.437744140625;-0.5179443359375;-0.56060791015625;-0.47528076171875;16.944681292341848;12.200084928435041;16.714834652147523;-0.96630859375;0.1376953125;0.0732421875;1.125;-0.375;2.9375;
1441975549587458;0.4376220703125;-0.5181884765625;-0.56036376953125;-0.47540283203125;16.945286949209382;12.204562478582869;16.717205106317298;-0.96728515625;0.13671875;0.08056640625;1.5;-0.25;2.375;
1441975549615460;0.4376220703125;-0.5184326171875;-0.55999755859375;-0.4755859375;16.947945214529987;12.209640712296977;16.720000331393766;-0.96533203125;0.1357421875;0.06787109375;2.1875;0.0;1.75;
1441975549629461;0.43756103515625;-0.51861572265625;-0.5595703125;-0.47589111328125;16.951058728909043;12.211174018968512;16.718724253693093;-0.96044921875;0.12939453125;0.06689453125;2.5;0.125;0.9375;
1441975549645462;0.4376220703125;-0.518798828125;-0.5592041015625;-0.47613525390625;16.954538330902334;12.214086390810472;16.7195292511991;-0.95751953125;0.13134765625;0.07275390625;2.5625;0.0625;0.375;
1441975549668463;0.43780517578125;-0.51885986328125;-0.55877685546875;-0.476318359375;16.959511235275297;12.21673026908706;16.7207685208892;-0.9599609375;0.13671875;0.07373046875;2.3125;0.5;0.0;
1441975549689464;0.43804931640625;-0.5189208984375;-0.558349609375;-0.47662353515625;16.965370424091127;12.217350135780288;16.719807976397952;-0.955078125;0.13525390625;0.07080078125;1.4375;1.0;-0.4375;
1441975549711465;0.43841552734375;-0.51904296875;-0.55767822265625;-0.4769287109375;16.973821458101835;12.222286300621874;16.72263739921518;-0.966796875;0.13671875;0.0712890625;1.5625;1.0;-1.3125;
1441975549728466;0.43896484375;-0.5189208984375;-0.5572509765625;-0.47705078125;16.981970975555523;12.224278768529878;16.724980922687063;-0.9765625;0.134765625;0.06298828125;1.875;1.1875;-1.9375;
1441975549757468;0.4395751953125;-0.5185546875;-0.55682373046875;-0.47735595703125;16.991732652840227;12.217319350126049;16.7187235723763;-0.97607421875;0.1416015625;0.06884765625;-0.125;1.4375;-2.5;
1441975549779469;0.440185546875;-0.518310546875;-0.55633544921875;-0.4776611328125;17.001659704151518;12.21364545200788;16.715225056855648;-0.97265625;0.1318359375;0.06982421875;-0.9375;1.0;-3.125;
1441975549795470;0.440673828125;-0.51824951171875;-0.5556640625;-0.47808837890625;17.011887687266317;12.212605369191591;16.71260536919159;-0.9697265625;0.13037109375;0.0771484375;0.125;1.5;-3.1875;
1441975549809471;0.44110107421875;-0.518310546875;-0.55499267578125;-0.4783935546875;17.020969813351137;12.2166104904205;16.714855642710805;-0.9697265625;0.1279296875;0.07568359375;1.5625;2.0;-3.1875;
1441975549834472;0.441650390625;-0.518310546875;-0.554443359375;-0.47857666015625;17.0299168150383;12.221439083889255;16.719157991510862;-0.97119140625;0.13671875;0.0732421875;1.8125;2.5;-3.1875;
1441975549848473;0.4423828125;-0.51812744140625;-0.553955078125;-0.478515625;17.039537155404965;12.22776529347933;16.726887950217375;-0.96728515625;0.14208984375;0.07177734375;0.625;2.625;-3.0;
1441975549869474;0.443115234375;-0.51788330078125;-0.55364990234375;-0.478515625;17.048178958632352;12.229658819688975;16.730711534881316;-0.96826171875;0.13623046875;0.06494140625;-1.4375;2.625;-3.125;
1441975549891476;0.44378662109375;-0.5177001953125;-0.55328369140625;-0.478515625;17.056624663732837;12.233283564969595;16.735739749867772;-0.96533203125;0.130859375;0.068359375;-1.875;2.4375;-2.625;
1441975549908477;0.44427490234375;-0.51763916015625;-0.5528564453125;-0.47857666015625;17.063945157677992;12.238000739459327;16.74063228553319;-0.96142578125;0.1298828125;0.06689453125;-1.0;2.3125;-2.4375;
1441975549929478;0.4447021484375;-0.51763916015625;-0.5526123046875;-0.478515625;17.0689343059006;12.244755702681706;16.748088790119162;-0.96630859375;0.13623046875;0.06591796875;-0.1875;2.125;-2.375;
1441975549951479;0.4451904296875;-0.5174560546875;-0.55242919921875;-0.478515625;17.07459235200017;12.24547784674399;16.750214048851873;-0.96875;0.1484375;0.0654296875;-0.8125;1.875;-2.3125;
1441975549968480;0.4456787109375;-0.5172119140625;-0.55224609375;-0.47845458984375;17.080193965923318;12.24604188988891;16.752532239627822;-0.9677734375;0.14501953125;0.0673828125;-1.4375;1.75;-2.4375;
1441975549989481;0.44610595703125;-0.51708984375;-0.552001953125;-0.478515625;17.0858513797653;12.247150134001654;16.75434170212166;-0.974609375;0.13720703125;0.06982421875;-1.5;1.75;-2.3125;
1441975550019483;0.44647216796875;-0.51702880859375;-0.5517578125;-0.478515625;17.090679202652126;12.250759887762442;16.758477431305998;-0.97607421875;0.13671875;0.072265625;-0.8125;1.75;-2.0;
1441975550027484;0.44683837890625;-0.5169677734375;-0.55157470703125;-0.4783935546875;17.0946748409744;12.256548531688981;16.765318465988805;-0.97607421875;0.13623046875;0.0673828125;-0.4375;1.8125;-1.5625;
1441975550049485;0.447265625;-0.51678466796875;-0.55157470703125;-0.47821044921875;17.097940671022616;12.259212201434547;16.77026197531711;-0.97314453125;0.13525390625;0.0595703125;-1.125;1.5625;-1.125;
1441975550071486;0.44769287109375;-0.51654052734375;-0.5517578125;-0.4779052734375;17.09964721028493;12.261208976220926;16.77559076896251;-0.97412109375;0.1318359375;0.06103515625;-2.3125;1.125;-0.5;
1441975550088487;0.44793701171875;-0.516357421875;-0.55194091796875;-0.4776611328125;17.099938630060322;12.26200685105946;16.778844058724736;-0.9697265625;0.12744140625;0.06787109375;-3.0625;1.0;0.25;
1441975550112488;0.447998046875;-0.51629638671875;-0.5521240234375;-0.47747802734375;17.09867114663871;12.263157325918003;16.781397625106514;-0.96826171875;0.1259765625;0.06787109375;-2.375;0.8125;0.875;
1441975550139490;0.44805908203125;-0.516357421875;-0.55224609375;-0.4771728515625;17.09714527065932;12.27082574775779;16.79029434618887;-0.97021484375;0.13330078125;0.072265625;-1.25;0.9375;1.25;
1441975550148490;0.4483642578125;-0.51611328125;-0.552490234375;-0.47686767578125;17.097434768286405;12.271271135813052;16.793896773729053;-0.9755859375;0.1376953125;0.064453125;-1.3125;0.6875;1.25;
1441975550170492;0.44854736328125;-0.5157470703125;-0.55291748046875;-0.47650146484375;17.09553664906475;12.267128820150361;16.793614664573603;-0.97705078125;0.125;0.06201171875;-3.0;0.25;1.4375;
1441975550191493;0.44873046875;-0.5155029296875;-0.55328369140625;-0.476318359375;17.094382575169774;12.26260717165786;16.79189762326;-0.9677734375;0.12353515625;0.06689453125;-3.8125;-0.1875;1.75;
1441975550207494;0.44879150390625;-0.515380859375;-0.553466796875;-0.47613525390625;17.093259963324716;12.262184248604466;16.79305414274211;-0.96533203125;0.11865234375;0.07080078125;-2.75;-0.1875;1.875;
1441975550230495;0.44879150390625;-0.515380859375;-0.5537109375;-0.47589111328125;17.090721732637395;12.265134226761786;16.797407268871602;-0.9697265625;0.123046875;0.0634765625;-1.375;-0.0625;1.8125;
1441975550251496;0.448974609375;-0.51519775390625;-0.55401611328125;-0.47552490234375;17.089252449513378;12.266918031551821;16.802173829293615;-0.96923828125;0.13037109375;0.06103515625;-1.5625;-0.125;1.8125;
1441975550267497;0.44927978515625;-0.514892578125;-0.5543212890625;-0.4752197265625;17.089256036218824;12.265164062865487;16.80392779797995;-0.96923828125;0.134765625;0.06103515625;-2.8125;-0.125;1.375;
1441975550297499;0.44964599609375;-0.51446533203125;-0.5546875;-0.474853515625;17.089407304418163;12.261513884221003;16.804663820809402;-0.9677734375;0.13427734375;0.06005859375;-3.5;-0.125;0.75;
1441975550311500;0.45013427734375;-0.51409912109375;-0.5550537109375;-0.474365234375;17.08998725997391;12.263074721494558;16.81113581436815;-0.95654296875;0.13818359375;0.06640625;-4.625;0.4375;0.0;
1441975550328501;0.45068359375;-0.51385498046875;-0.55523681640625;-0.47393798828125;17.092259700617973;12.268761855019875;16.820855464728954;-0.94970703125;0.14208984375;0.0673828125;-4.75;1.125;-0.3125;
1441975550350502;0.45135498046875;-0.5135498046875;-0.55548095703125;-0.47332763671875;17.09460549560081;12.277359079363297;16.83471433445394;-0.95947265625;0.140625;0.06298828125;-3.875;1.5625;-0.4375;
1441975550374503;0.4522705078125;-0.5128173828125;-0.55621337890625;-0.47247314453125;17.095672070807908;12.277333420794283;16.843981967247586;-0.96923828125;0.14599609375;0.052734375;-5.375;1.6875;-0.625;
1441975550387504;0.4534912109375;-0.5118408203125;-0.5570068359375;-0.4713134765625;17.09831892166604;12.279751311890502;16.858329868963597;-0.95751953125;0.150390625;0.064453125;-9.125;1.75;-0.75;
1441975550417506;0.4547119140625;-0.5108642578125;-0.55804443359375;-0.47003173828125;17.09882320996494;12.282310871380375;16.873866869431893;-0.962890625;0.1435546875;0.05712890625;-11.9375;2.3125;-0.4375;
1441975550432507;0.4560546875;-0.51019287109375;-0.558837890625;-0.46856689453125;17.100594988057352;12.30045259710556;16.90428369043279;-0.9521484375;0.14892578125;0.06982421875;-12.8125;2.9375;-0.3125;
1441975550455508;0.45733642578125;-0.50982666015625;-0.55926513671875;-0.46710205078125;17.10357124672926;12.330074102520545;16.94408225068384;-0.94873046875;0.1572265625;0.0576171875;-11.9375;4.3125;-0.1875;
1441975550476509;0.45849609375;-0.50970458984375;-0.5594482421875;-0.46588134765625;17.10736956980132;12.362419510964397;16.98414288542388;-0.95751953125;0.1396484375;0.048828125;-10.0;5.5;1.1875;
1441975550491510;0.45916748046875;-0.51031494140625;-0.55938720703125;-0.464599609375;17.106544976082873;12.413302808265037;17.038712134289764;-0.97509765625;0.126953125;0.05029296875;-7.1875;5.9375;1.625;
1441975550507511;0.45965576171875;-0.5111083984375;-0.5595703125;-0.46307373046875;17.100816778327893;12.469090406560065;17.098536489556746;-0.97509765625;0.1416015625;0.04052734375;-3.0;6.4375;3.4375;
1441975550536513;0.4600830078125;-0.51171875;-0.56024169921875;-0.461181640625;17.09005740789372;12.520559581975549;17.156856311325317;-0.96630859375;0.142578125;0.0322265625;-3.5625;6.1875;6.0;
1441975550551513;0.46051025390625;-0.51214599609375;-0.56121826171875;-0.45904541015625;17.076517201752793;12.5674422571308;17.212703620862612;-0.95751953125;0.162109375;0.03173828125;-6.625;5.25;6.6875;
1441975550568514;0.4610595703125;-0.51251220703125;-0.5623779296875;-0.4566650390625;17.061554629123325;12.615197405824262;17.27117916141776;-0.94921875;0.18408203125;0.03076171875;-8.5625;5.0;6.875;
1441975550590516;0.46185302734375;-0.5128173828125;-0.56353759765625;-0.4541015625;17.047507318674686;12.666119710802136;17.3342270735325;-0.943359375;0.20703125;0.0283203125;-10.625;5.25;5.875;
1441975550611517;0.462890625;-0.51312255859375;-0.564453125;-0.4515380859375;17.03647357158608;12.72145110562281;17.40168628399976;-0.93994140625;0.22802734375;0.0263671875;-11.5;6.375;4.25;
1441975550635518;0.46429443359375;-0.51312255859375;-0.56561279296875;-0.44866943359375;17.025865424117153;12.775176550416646;17.471049246903835;-0.93310546875;0.2275390625;0.02685546875;-11.8125;8.3125;3.3125;
1441975550650519;0.4661865234375;-0.512451171875;-0.5670166015625;-0.44573974609375;17.019221058062694;12.816615034948198;17.532335870022763;-0.93359375;0.23828125;0.02001953125;-15.1875;8.25;2.125;
1441975550671520;0.46832275390625;-0.51141357421875;-0.56854248046875;-0.44268798828125;17.014164442174657;12.852997699955466;17.591036851867216;-0.93896484375;0.2412109375;0.0166015625;-19.4375;7.625;0.125;
1441975550695522;0.47076416015625;-0.510009765625;-0.570068359375;-0.43963623046875;17.01255998718645;12.885047496404445;17.647343852369648;-0.9375;0.2421875;0.01318359375;-22.125;7.5625;-1.0625;
1441975550710523;0.47344970703125;-0.50830078125;-0.57171630859375;-0.43670654296875;17.013673842103135;12.909746976403195;17.697854179233666;-0.935546875;0.2333984375;0.0068359375;-23.875;7.375;-2.3125;
1441975550731524;0.4759521484375;-0.506591796875;-0.57305908203125;-0.4342041015625;17.017437235333784;12.929473964712265;17.74076944959573;-0.921875;0.2158203125;0.00927734375;-25.5;7.0625;-2.75;
1441975550755525;0.4779052734375;-0.50555419921875;-0.5736083984375;-0.4324951171875;17.02324399439317;12.954691249925837;17.781094308225285;-0.900390625;0.17919921875;0.0107421875;-23.0;6.0625;-2.5625;
1441975550770526;0.47918701171875;-0.50537109375;-0.57366943359375;-0.43115234375;17.025295112996417;12.990200612630781;17.824868133994006;-0.8798828125;0.16064453125;0.009765625;-14.75;5.9375;-2.125;
1441975550791527;0.48004150390625;-0.50543212890625;-0.57373046875;-0.43011474609375;17.024816517026306;13.019751160102697;17.859859592695155;-0.8720703125;0.173828125;0.0;-7.9375;5.4375;-1.625;
1441975550807528;0.48052978515625;-0.505615234375;-0.57379150390625;-0.4293212890625;17.02253364390747;13.042542580299678;17.885989696374367;-0.85986328125;0.1708984375;0.01171875;-5.3125;4.75;-0.5625;
1441975550830529;0.48065185546875;-0.5062255859375;-0.573486328125;-0.4288330078125;17.019506794740245;13.069543367109805;17.91212513055835;-0.8427734375;0.1640625;0.01953125;-2.8125;4.125;0.25;
1441975550851531;0.4805908203125;-0.5072021484375;-0.57293701171875;-0.428466796875;17.015497605675403;13.103024185470385;17.942102327030902;-0.8291015625;0.15869140625;0.021484375;1.1875;4.1875;0.9375;
1441975550867532;0.48028564453125;-0.5081787109375;-0.57244873046875;-0.42828369140625;17.01046950927087;13.12881873886016;17.963341792777687;-0.810546875;0.15234375;0.01416015625;3.75;4.5;1.75;
1441975550890533;0.4798583984375;-0.509033203125;-0.57232666015625;-0.427978515625;17.002429788870025;13.146153219914446;17.977522503255003;-0.79248046875;0.14208984375;0.0244140625;4.5625;3.625;2.5625;
1441975550911534;0.47943115234375;-0.50994873046875;-0.57232666015625;-0.4273681640625;16.991611684165843;13.167150381795382;17.996437202377432;-0.75;0.13427734375;0.03759765625;3.6875;3.5;4.0625;
1441975550927535;0.4791259765625;-0.51092529296875;-0.572265625;-0.42657470703125;16.980496069133785;13.194385628361944;0.022125429884165666;-0.74560546875;0.15234375;0.04296875;2.6875;4.3125;4.5;
1441975550956537;0.4791259765625;-0.5113525390625;-0.57244873046875;-0.42584228515625;16.973053193391088;13.210347344821633;0.03950932289775965;-0.7822265625;0.1845703125;0.02978515625;2.0;4.9375;2.875;
1441975550974538;0.47955322265625;-0.510498046875;-0.57342529296875;-0.42510986328125;16.97043904609296;13.195628626955349;0.0334086507765877;-0.81640625;0.17236328125;0.0244140625;-0.875;3.3125;2.0;
1441975550988538;0.480224609375;-0.50921630859375;-0.57470703125;-0.424072265625;16.968053899706987;13.176144983007124;0.0262549678034323;-0.8203125;0.13525390625;0.0517578125;-8.5;1.375;2.125;
1441975551026541;0.481201171875;-0.50811767578125;-0.5755615234375;-0.42315673828125;16.969803495132265;13.169384013374408;0.0305655293036221;-0.82568359375;0.123046875;0.0634765625;-11.875;1.6875;2.625;
1441975551031541;0.48223876953125;-0.507080078125;-0.57635498046875;-0.42218017578125;16.971629245353707;13.16651562333182;0.03876800909349597;-0.8720703125;0.12060546875;0.0537109375;-10.625;3.375;1.9375;
1441975551048542;0.4835205078125;-0.50567626953125;-0.5770263671875;-0.42138671875;16.978601339266156;13.159526879807878;0.043736900622415656;-0.94140625;0.13427734375;0.05126953125;-10.375;3.75;1.5;
1441975551070543;0.4847412109375;-0.50439453125;-0.5772705078125;-0.42120361328125;16.99049230818671;13.151590043591103;0.04420656660777744;-0.99853515625;0.10693359375;0.05517578125;-11.5;3.5625;1.5;
1441975551092544;0.48529052734375;-0.50408935546875;-0.57672119140625;-0.42169189453125;17.001453204875453;13.155233751759972;0.047288912786335645;-1.0400390625;0.05712890625;0.06396484375;-7.4375;3.5625;3.0;
1441975551107545;0.4849853515625;-0.5047607421875;-0.5758056640625;-0.4224853515625;17.005800140482908;13.166542127183535;0.050844940403782596;-1.0341796875;0.0107421875;0.06396484375;1.125;4.0625;6.375;
1441975551130547;0.4840087890625;-0.50579833984375;-0.5753173828125;-0.4229736328125;16.99983348868956;13.17268099831009;0.048390826556106506;-1.0126953125;-0.00732421875;0.04931640625;8.375;2.9375;10.375;
1441975551152548;0.482421875;-0.5072021484375;-0.575439453125;-0.42303466796875;16.98223875594429;13.173376347591102;0.04067844349652854;-0.98876953125;-0.0029296875;0.0458984375;9.1875;0.875;15.3125;
1441975551167549;0.48016357421875;-0.50885009765625;-0.57635498046875;-0.42236328125;16.950420184552453;13.167598443107696;0.028309560415255165;-0.9560546875;-0.01806640625;0.041015625;8.75;-0.75;21.625;
1441975551190550;0.47723388671875;-0.51104736328125;-0.57769775390625;-0.42120361328125;16.90629896180864;13.16365971507639;0.016932460516414016;-0.91748046875;-0.00244140625;0.06005859375;7.25;-1.375;27.3125;
1441975551218552;0.47412109375;-0.513427734375;-0.57952880859375;-0.4193115234375;16.853111909242024;13.163884375970442;0.012211522870209397;-0.90185546875;0.02392578125;0.05517578125;7.5625;-2.3125;31.9375;
1441975551234553;0.47100830078125;-0.515625;-0.58209228515625;-0.41650390625;16.791440551096386;13.162786091695152;0.01149171423815587;-0.87744140625;0.02880859375;0.05078125;5.75;-1.75;36.375;
1441975551256554;0.467529296875;-0.51788330078125;-0.58526611328125;-0.41326904296875;16.721226007876286;13.155692758995784;0.006554829368520577;-0.82763671875;0.017578125;0.05078125;0.0;-1.8125;41.4375;
1441975551279555;0.46343994140625;-0.52105712890625;-0.588134765625;-0.4097900390625;16.642752162381242;13.16290328455665;0.011398541843559292;-0.765625;-0.00146484375;0.06298828125;-1.3125;-2.3125;46.5;
1441975551294556;0.45904541015625;-0.5250244140625;-0.5908203125;-0.40582275390625;16.55648868088625;13.184666914359058;0.028536603693147325;-0.7099609375;0.0087890625;0.0576171875;3.5;-1.25;49.9375;
1441975551309557;0.45458984375;-0.52899169921875;-0.59381103515625;-0.4012451171875;16.46445517532262;13.206061540497208;0.047825501602558496;-0.67333984375;0.05517578125;0.037109375;5.5625;0.625;51.25;
1441975551332558;0.44989013671875;-0.53350830078125;-0.5968017578125;-0.39605712890625;16.364324740201628;13.235138119119016;0.07431516501740602;-0.65625;0.1171875;0.03759765625;3.3125;1.25;50.5;
1441975551354559;0.4461669921875;-0.53802490234375;-0.5994873046875;-0.3900146484375;16.266660476919064;13.279007296551704;0.12003631426985367;-0.63818359375;0.181640625;0.03955078125;4.0625;3.8125;50.6875;
1441975551369560;0.4437255859375;-0.5418701171875;-0.6014404296875;-0.38446044921875;16.18696456725616;13.324754102415115;0.1696972086829532;-0.62109375;0.21630859375;0.0283203125;-0.0625;9.8125;48.0625;
1441975551392562;0.44122314453125;-0.545166015625;-0.6033935546875;-0.379638671875;16.113914797695653;13.355277658097098;0.20341404705173766;-0.68603515625;0.236328125;0.00341796875;-1.6875;11.6875;40.1875;
1441975551414563;0.437744140625;-0.5482177734375;-0.605712890625;-0.37548828125;16.03822476002909;13.365849509291568;0.21420745885029704;-0.74609375;0.236328125;-0.01416015625;-1.8125;6.875;38.0625;
1441975551430564;0.43359375;-0.55169677734375;-0.60809326171875;-0.37139892578125;15.956159123354086;13.374109365631872;0.21951895958090847;-0.74462890625;0.2509765625;0.01318359375;0.25;1.6875;39.0625;
1441975551452565;0.42999267578125;-0.55596923828125;-0.609375;-0.3670654296875;15.877123164583034;13.404419522856726;0.24367711245196383;-0.7763671875;0.34130859375;0.01318359375;3.3125;0.0;37.3125;
1441975551482567;0.42828369140625;-0.55743408203125;-0.611572265625;-0.363037109375;15.821969400258546;13.409982548875305;0.2584858829143243;-0.83056640625;0.4228515625;-0.0634765625;5.625;2.0;33.1875;
1441975551489567;0.42706298828125;-0.557861328125;-0.614013671875;-0.35980224609375;15.7793342915353;13.402371052868954;0.26289432059177437;-0.880859375;0.40869140625;-0.05712890625;-10.0;0.1875;24.0625;
1441975551512568;0.42547607421875;-0.558837890625;-0.6158447265625;-0.3570556640625;15.737614074062511;13.400018245774042;0.26669439120171196;-0.8818359375;0.3876953125;-0.02734375;-12.75;-1.8125;19.5;
1441975551534570;0.423583984375;-0.56103515625;-0.6165771484375;-0.35467529296875;15.695253993006792;13.41381221185263;0.2778902656383781;-0.85791015625;0.3974609375;0.0048828125;-6.1875;0.3125;18.125;
1441975551549571;0.42242431640625;-0.563232421875;-0.61688232421875;-0.35186767578125;15.656521088537906;13.437460602295602;0.30109795795051997;-0.8662109375;0.42578125;-0.00390625;2.9375;2.75;17.625;
1441975551572572;0.4224853515625;-0.564453125;-0.61749267578125;-0.34881591796875;15.627380554668722;13.458218298506553;0.32938137317282695;-0.92236328125;0.4736328125;-0.03125;1.125;6.0;15.0;
1441975551594573;0.4227294921875;-0.56451416015625;-0.6187744140625;-0.34613037109375;15.604723471729642;13.462520831730757;0.3460208598877744;-0.97265625;0.46142578125;-0.07177734375;-7.1875;6.0;12.4375;
1441975551609574;0.42242431640625;-0.565185546875;-0.6195068359375;-0.343994140625;15.581573247871349;13.470323856240242;0.35955823708428325;-1.0146484375;0.46533203125;-0.04541015625;-12.625;3.25;10.375;
1441975551632575;0.42266845703125;-0.5657958984375;-0.6202392578125;-0.3414306640625;15.559256756358597;13.482682462825803;0.3806781257071016;-1.00732421875;0.43212890625;-0.0439453125;-5.8125;2.1875;12.8125;
1441975551647576;0.42291259765625;-0.5679931640625;-0.6190185546875;-0.33978271484375;15.543251260559202;13.519532600610846;0.4131524874395682;-0.99267578125;0.4609375;-0.0068359375;-7.3125;7.75;10.5625;
1441975551669577;0.4227294921875;-0.57073974609375;-0.61724853515625;-0.33856201171875;15.526622856494306;13.560418889480971;0.4439458103716958;-1.0673828125;0.49365234375;-0.04052734375;6.3125;11.1875;7.5;
1441975551692579;0.4241943359375;-0.571533203125;-0.61663818359375;-0.33648681640625;15.519267242288198;13.589626369048498;0.47948901264860333;-1.083984375;0.5498046875;-0.09423828125;10.625;7.5625;4.875;
1441975551716580;0.42706298828125;-0.5706787109375;-0.61651611328125;-0.33447265625;15.527368253020423;13.61024368142263;0.5165607668282074;-1.06005859375;0.52197265625;-0.09716796875;-5.6875;9.875;1.25;
1441975551729581;0.42938232421875;-0.571044921875;-0.61529541015625;-0.33319091796875;15.53493588679017;13.643307875856685;0.5554781539984368;-1.05859375;0.42578125;-0.07421875;-14.9375;11.8125;-0.75;
1441975551752582;0.43084716796875;-0.57427978515625;-0.61175537109375;-0.332275390625;15.532813029678758;13.711386111173162;0.6106518131235487;-1.05517578125;0.39990234375;-0.05615234375;-3.1875;14.0;1.0;
1441975551774583;0.43304443359375;-0.5780029296875;-0.60736083984375;-0.33099365234375;15.53133596048751;13.796630889588329;0.682276877413505;-1.10595703125;0.478515625;-0.09716796875;15.8125;18.9375;1.3125;
1441975551789584;0.43548583984375;-0.58154296875;-0.602783203125;-0.3299560546875;15.532919422902552;13.882866292832311;0.7548683867443821;-1.14013671875;0.494140625;-0.1298828125;18.0625;25.0625;-0.1875;
1441975551813586;0.43621826171875;-0.58831787109375;-0.59649658203125;-0.32843017578125;15.506363377170318;13.996632924809818;0.8370644994524987;-1.1484375;0.4453125;-0.0771484375;19.75;29.75;0.5;
1441975551834587;0.4393310546875;-0.59625244140625;-0.59033203125;-0.32098388671875;15.434680610444378;14.14738397728679;0.9778803964298305;-1.14794921875;0.64990234375;-0.06103515625;40.5625;38.125;-0.25;
1441975551851588;0.44598388671875;-0.59735107421875;-0.58953857421875;-0.31109619140625;15.38257904806856;14.231326744401672;1.10533093594344;-1.08203125;0.890625;-0.4111328125;16.8125;46.9375;-1.625;
1441975551872589;0.4578857421875;-0.59356689453125;-0.59033203125;-0.29925537109375;15.361672169252465;14.309702569284193;1.2674240875389877;-1.15087890625;0.71337890625;-0.17236328125;-30.3125;58.375;1.6875;
1441975551894590;0.46734619140625;-0.59283447265625;-0.5897216796875;-0.287109375;15.307042166773048;14.3980040995078;1.4204745682781827;-1.13916015625;0.42578125;-0.21826171875;-69.5625;68.3125;-1.6875;
1441975551909591;0.47412109375;-0.593994140625;-0.59027099609375;-0.27203369140625;15.198877408742925;14.464785861043937;1.5514812013659676;-1.30126953125;0.5751953125;-0.23974609375;-50.0625;71.25;9.3125;
1441975551932592;0.4871826171875;-0.586669921875;-0.5966796875;-0.2501220703125;15.101664211963723;14.482366001431286;1.715385365449824;-1.287109375;0.8330078125;-0.1572265625;-45.625;78.75;19.75;
1441975551954594;0.49737548828125;-0.589111328125;-0.59515380859375;-0.22686767578125;14.923075619637684;14.582473984935973;1.9069734174553754;-1.2548828125;0.80517578125;0.171875;-122.875;96.0;17.4375;
1441975551969595;0.5098876953125;-0.56732177734375;-0.61029052734375;-0.2138671875;14.988197462350918;14.451665516213312;1.9625539103665264;-1.05029296875;0.9814453125;-0.6904296875;-68.75;113.9375;44.1875;
1441975551992596;0.51043701171875;-0.55029296875;-0.6248779296875;-0.21484375;15.097131949937769;14.257012520868779;1.8592429972372078;-2.31494140625;-0.0400390625;0.4091796875;-178.9375;15.125;-40.625;
1441975552014597;0.50067138671875;-0.568115234375;-0.61627197265625;-0.21636962890625;14.964560255534614;14.34446281648673;1.8362352353763394;-1.25439453125;0.5458984375;0.45751953125;-84.5;-25.0;-29.6875;
1441975552029598;0.489501953125;-0.58642578125;-0.6053466796875;-0.223876953125;14.877618842026791;14.439257608540748;1.7887255016261558;-1.30078125;0.6123046875;-0.1142578125;107.875;8.75;68.5;
1441975552052599;0.4798583984375;-0.5894775390625;-0.60943603515625;-0.2255859375;14.829877464337642;14.36027015638199;1.6797065644633815;-1.3828125;1.1328125;-0.38427734375;135.875;-11.5;43.75;
1441975552074601;0.4632568359375;-0.59124755859375;-0.61907958984375;-0.22943115234375;14.765269619444123;14.193556376071198;1.4764437372214703;-1.404296875;0.8818359375;-0.30810546875;13.0;-49.75;37.0;
1441975552089601;0.44317626953125;-0.6011962890625;-0.622314453125;-0.2342529296875;14.643516562742269;14.103937252584165;1.2939446631095337;-1.1328125;0.7607421875;0.0244140625;13.1875;-83.25;56.3125;
1441975552112603;0.42230224609375;-0.61181640625;-0.6256103515625;-0.236572265625;14.487114800039052;14.027232661199395;1.1278740647501841;-1.0439453125;0.8818359375;-0.02099609375;70.125;-75.8125;69.5;
1441975552136604;0.40130615234375;-0.62109375;-0.629150390625;-0.23956298828125;14.337201462902097;13.951213839838159;0.964286941156031;-1.17041015625;1.02685546875;-0.107421875;63.6875;-73.8125;82.3125;
1441975552149605;0.37933349609375;-0.62811279296875;-0.634033203125;-0.2442626953125;14.198081411481848;13.857913930604214;0.785501488901568;-1.18310546875;0.83544921875;-0.1943359375;53.9375;-85.0625;91.875;
1441975552172606;0.3516845703125;-0.640869140625;-0.6337890625;-0.2529296875;14.034789225474622;13.80915248923862;0.5884317816106719;-1.04638671875;0.64111328125;-0.12646484375;47.125;-99.0625;93.8125;
1441975552194607;0.322265625;-0.6571044921875;-0.62957763671875;-0.2608642578125;13.846648470311102;13.808301636701481;0.4120903730937132;-0.91943359375;0.62939453125;-0.0654296875;104.5;-113.3125;97.0625;
1441975552211608;0.29327392578125;-0.67291259765625;-0.62518310546875;-0.26531982421875;13.636277173459503;13.822688095920581;0.26166531274857274;-0.7724609375;0.6884765625;-0.1689453125;132.0625;-105.125;105.625;
1441975552233610;0.26568603515625;-0.68658447265625;-0.62200927734375;-0.266845703125;13.41772376369437;13.835815805768455;0.1313359316751486;-0.7529296875;0.7646484375;-0.1611328125;124.25;-90.625;114.875;
1441975552254611;0.24102783203125;-0.69647216796875;-0.62139892578125;-0.2659912109375;13.20687940193567;13.833700947573796;0.019931632417587872;-0.69384765625;0.767578125;-0.18359375;104.75;-79.875;118.375;
1441975552271612;0.2210693359375;-0.7003173828125;-0.62567138671875;-0.26318359375;13.018274857447842;13.79518717037401;17.92614165941242;-0.625;0.8203125;-0.1591796875;73.25;-69.25;112.625;
1441975552292613;0.2059326171875;-0.70135498046875;-0.6298828125;-0.26275634765625;12.889791905794771;13.752500080529376;17.844794466051773;-0.5888671875;0.69677734375;-0.1044921875;22.6875;-60.4375;101.6875;
1441975552314614;0.19342041015625;-0.70440673828125;-0.629150390625;-0.26580810546875;12.8155868091292;13.744796444918713;17.77400210289502;-0.572265625;0.47509765625;-0.01171875;10.6875;-54.1875;79.8125;
1441975552331615;0.18206787109375;-0.710205078125;-0.623779296875;-0.27105712890625;12.774032474892435;13.771960512065979;17.71136531979348;-0.568359375;0.33984375;0.02294921875;38.8125;-48.4375;58.3125;
1441975552352617;0.17193603515625;-0.7161865234375;-0.6171875;-0.27691650390625;12.7504773392476;13.807088050240711;17.654167119476064;-0.6025390625;0.3779296875;0.01171875;68.25;-43.9375;42.125;
1441975552374618;0.16552734375;-0.71807861328125;-0.61309814453125;-0.284912109375;12.774049640799658;13.812034840756166;17.594267317563915;-0.58154296875;0.4580078125;-0.0791015625;68.1875;-43.875;28.6875;
1441975552391619;0.162841796875;-0.7158203125;-0.61004638671875;-0.29840087890625;12.874184183608152;13.785888507623456;17.516813116090773;-0.568359375;0.4384765625;-0.10595703125;38.5;-49.75;5.9375;
1441975552413620;0.16412353515625;-0.71282958984375;-0.6044921875;-0.315673828125;13.042003211526758;13.763754240820981;17.44088449782762;-0.57568359375;0.30712890625;-0.0439453125;20.6875;-64.6875;-26.125;
1441975552434621;0.1688232421875;-0.71185302734375;-0.59478759765625;-0.333251953125;13.247253862727193;13.773854241836005;17.389244896697274;-0.5498046875;0.193359375;0.0185546875;27.875;-62.875;-57.5625;
1441975552450622;0.176513671875;-0.71051025390625;-0.5838623046875;-0.3509521484375;13.481324293319297;13.790917220375686;17.352499739660157;-0.5693359375;0.23046875;-0.00244140625;45.3125;-45.625;-79.875;
1441975552472623;0.18865966796875;-0.7061767578125;-0.57269287109375;-0.37127685546875;13.776438905952544;13.792225048139148;17.31681226249732;-0.61376953125;0.27880859375;-0.0166015625;42.625;-37.5625;-109.9375;
1441975552496625;0.2052001953125;-0.6986083984375;-0.56121826171875;-0.3936767578125;14.128728091283547;13.77621269222166;17.28181289808501;-0.61669921875;0.26904296875;-0.01953125;27.125;-38.875;-140.8125;
1441975552510626;0.225830078125;-0.688720703125;-0.54803466796875;-0.41766357421875;14.535937709081615;13.755073649447798;17.252175003094624;-0.615234375;0.279296875;0.02099609375;11.1875;-39.3125;-170.125;
1441975552532627;0.24908447265625;-0.67742919921875;-0.5318603515625;-0.4429931640625;14.989266734010814;13.739182825187855;17.22686843718972;-0.63623046875;0.22802734375;0.02099609375;3.0;-35.9375;-198.3125;
1441975552554628;0.27301025390625;-0.6658935546875;-0.51153564453125;-0.46954345703125;15.476418600656325;13.740878405803002;17.205185417352332;-0.697265625;0.1611328125;0.009765625;5.5;-32.3125;-221.3125;
1441975552571629;0.2969970703125;-0.65325927734375;-0.48760986328125;-0.49737548828125;15.99465439479636;13.749335529233065;17.178306136941792;-0.759765625;0.119140625;-0.0244140625;20.9375;-30.25;-238.125;
1441975552593630;0.32220458984375;-0.637451171875;-0.4622802734375;-0.525634765625;16.543907753343063;13.729988126866376;17.129898377646448;-0.83740234375;0.15234375;-0.06689453125;32.9375;-33.25;-255.125;
1441975552615632;0.3482666015625;-0.61883544921875;-0.4365234375;-0.55255126953125;17.10478016558719;13.654357544884009;17.036434195221524;-0.87841796875;0.17724609375;-0.10693359375;26.375;-38.8125;-271.875;
1441975552630632;0.3736572265625;-0.5980224609375;-0.41046142578125;-0.5782470703125;17.66142599606025;13.228086312674643;16.596887236822777;-0.93896484375;0.09521484375;-0.18017578125;15.25;-40.9375;-277.875;
1441975552652634;0.3953857421875;-0.57745361328125;-0.3822021484375;-0.603515625;17.76333606967086;5.990251448091341;9.326469900330641;-1.00634765625;-0.021484375;-0.18212890625;11.1875;-44.75;-277.3125;
1441975552674635;0.4151611328125;-0.55645751953125;-0.352294921875;-0.627685546875;17.229664466995207;5.281025157077113;8.575796472506132;-1.03076171875;-0.0439453125;-0.1474609375;30.25;-46.0625;-271.9375;
1441975552690636;0.43377685546875;-0.5341796875;-0.32183837890625;-0.65032958984375;16.69008847998074;5.176170490720137;8.429608466020964;-1.05712890625;-0.0283203125;-0.13330078125;39.75;-44.3125;-271.3125;
1441975552712637;0.44927978515625;-0.51092529296875;-0.291015625;-0.67266845703125;16.158533422313653;5.179918663615104;8.38236878202002;-1.06884765625;-0.0419921875;-0.1259765625;39.375;-45.8125;-271.25;
1441975552759640;0.459716796875;-0.489013671875;-0.25885009765625;-0.6947021484375;15.654199936876351;5.220996611457448;8.346953461668273;-1.07080078125;-0.13134765625;-0.09130859375;49.75;-52.5;-265.375;
1441975552761640;0.46563720703125;-0.46881103515625;-0.2261962890625;-0.71575927734375;15.184736883721875;5.279887415973965;8.308540508730395;-1.0576171875;-0.1123046875;-0.04150390625;74.6875;-51.4375;-253.0625;
1441975552772641;0.47015380859375;-0.4481201171875;-0.195556640625;-0.73480224609375;14.739601790584564;5.343202434877849;8.280142625604935;-0.96435546875;-0.02587890625;-0.10302734375;94.0625;-48.1875;-238.5625;
1441975552794642;0.47283935546875;-0.4276123046875;-0.16766357421875;-0.751953125;14.328945122394401;5.412092914196132;8.262284821228786;-0.9111328125;-0.03662109375;-0.138671875;89.1875;-52.8125;-225.5625;
1441975552810643;0.47344970703125;-0.409423828125;-0.1422119140625;-0.766845703125;13.968908947184557;5.477489883614158;8.240254111548499;-0.85498046875;-0.0166015625;-0.0966796875;84.5;-56.3125;-207.1875;
1441975552839644;0.47357177734375;-0.3939208984375;-0.12066650390625;-0.77850341796875;13.668337551914963;5.529076569047598;8.21687429003417;-0.78466796875;0.0390625;-0.03369140625;82.9375;-48.8125;-183.875;
1441975552854645;0.47412109375;-0.3795166015625;-0.10345458984375;-0.7877197265625;13.410578754626027;5.571594289545756;8.20432187331497;-0.7705078125;0.060546875;-0.08154296875;69.5;-41.0;-156.0;
1441975552871646;0.47039794921875;-0.36669921875;-0.087646484375;-0.7978515625;13.188257566042802;5.6399912000371994;8.200332063635036;-0.82470703125;0.02099609375;-0.11376953125;52.5625;-43.25;-133.1875;
1441975552892647;0.4610595703125;-0.36248779296875;-0.0762939453125;-0.806396484375;13.091392009160835;5.719668569197524;8.188563214285027;-0.7958984375;0.091796875;-0.0810546875;71.5;-43.8125;-114.5625;
1441975552916649;0.45758056640625;-0.3602294921875;-0.07037353515625;-0.80987548828125;13.038253862231086;5.749100870424603;8.177601624510954;-0.63330078125;0.31591796875;-0.18994140625;89.75;-32.6875;-92.8125;
1441975552930650;0.45465087890625;-0.36102294921875;-0.069580078125;-0.811279296875;13.04670714021237;5.768440755941267;8.177768018144521;-0.5595703125;0.318359375;-0.23779296875;40.5;-26.5;-68.5;
1441975552952651;0.44805908203125;-0.36566162109375;-0.0711669921875;-0.81268310546875;13.115654785298858;5.80424614315698;8.182268061136119;-0.66259765625;0.19482421875;-0.13525390625;21.375;-19.25;-36.4375;
1441975552974652;0.43951416015625;-0.3734130859375;-0.0751953125;-0.8134765625;13.234697460781767;5.846741282731967;8.191197958486669;-0.61572265625;0.23486328125;-0.0908203125;31.5625;-6.0;-7.25;
1441975552990653;0.43060302734375;-0.38433837890625;-0.08319091796875;-0.8123779296875;13.4114227521721;5.885018835951416;8.20858000728426;-0.51513671875;0.3232421875;-0.12255859375;34.625;3.375;17.8125;
1441975553012654;0.4215087890625;-0.4002685546875;-0.0970458984375;-0.80792236328125;13.676525227874839;5.912688838057905;8.235586378417343;-0.51611328125;0.3056640625;-0.1591796875;26.5;10.0;46.875;
1441975553034656;0.417236328125;-0.4136962890625;-0.1129150390625;-0.80126953125;13.921611430043939;5.91435089208464;8.27175996507986;-0.59912109375;0.44580078125;-0.28515625;10.4375;17.75;78.6875;
1441975553057657;0.41766357421875;-0.42962646484375;-0.13531494140625;-0.78912353515625;14.228384753639334;5.872445788398663;8.31294871442043;-0.708984375;0.52392578125;-0.2587890625;-25.4375;29.25;105.5625;
1441975553072658;0.41815185546875;-0.44818115234375;-0.1624755859375;-0.77325439453125;14.599241431167602;5.819475482387471;8.36195233881449;-0.830078125;0.52392578125;-0.24658203125;-74.0625;41.3125;133.0;
1441975553102659;0.40716552734375;-0.47216796875;-0.188720703125;-0.7587890625;15.047532451958459;5.842836522323125;8.425923254113046;-1.0556640625;0.32373046875;-0.1923828125;-92.25;50.875;164.5;
1441975553111660;0.39312744140625;-0.49798583984375;-0.21661376953125;-0.74200439453125;15.540889052469986;5.896735205394011;8.515211206879155;-1.271484375;0.48046875;-0.2099609375;-31.1875;62.25;198.8125;
1441975553133661;0.38494873046875;-0.52557373046875;-0.25634765625;-0.714111328125;16.142718305454668;5.917469857535068;8.652749046797473;-1.564453125;0.734375;-0.53173828125;-25.9375;77.4375;237.875;
1441975553154662;0.3740234375;-0.55419921875;-0.30126953125;-0.679931640625;16.820923903976734;6.062896709685265;8.931560841669924;-1.9287109375;0.43310546875;-0.34814453125;-106.5;86.25;273.1875;
1441975553170663;0.35443115234375;-0.58447265625;-0.34820556640625;-0.64154052734375;17.534728429132155;7.197842384512311;10.179574709045113;-2.3046875;-0.0615234375;-0.06787109375;-123.625;99.25;324.6875;
1441975553193665;0.32354736328125;-0.6156005859375;-0.39324951171875;-0.60150146484375;17.423560271536875;12.546994265445212;15.596536331643124;-2.66259765625;-0.43896484375;0.099609375;-103.0625;106.0;376.875;
1441975553222666;0.28118896484375;-0.64892578125;-0.43328857421875;-0.5587158203125;16.563391403571156;13.503111999000549;16.56409711889348;-2.703125;-0.4716796875;0.19775390625;-56.8125;95.625;413.375;
1441975553230667;0.2305908203125;-0.68621826171875;-0.463623046875;-0.51092529296875;15.620194129168041;13.842117412051282;16.853027305597355;-2.69482421875;-0.421875;0.09619140625;0.5;96.375;446.9375;
1441975553253668;0.18768310546875;-0.7154541015625;-0.489990234375;-0.46148681640625;14.757947908654087;14.005025754937408;16.99832570720484;-2.64404296875;0.333984375;-0.15771484375;65.1875;122.8125;465.5;
1441975553274669;0.15850830078125;-0.72698974609375;-0.522216796875;-0.41680908203125;14.049077613828882;13.98498601847772;17.060860198396735;-2.583984375;0.84912109375;-0.26416015625;34.125;131.625;416.875;
1441975553290670;0.14495849609375;-0.72674560546875;-0.56109619140625;-0.36883544921875;13.432616056519928;13.894900524688667;17.174903769757552;-2.67724609375;0.8212890625;0.0576171875;-70.75;97.25;343.4375;
1441975553314672;0.14642333984375;-0.70953369140625;-0.61029052734375;-0.320556640625;12.931301800838698;13.684012812658992;17.314147540120157;-2.5244140625;0.779296875;0.22509765625;-174.375;123.4375;293.125;
1441975553334673;0.146240234375;-0.67498779296875;-0.66595458984375;-0.28216552734375;12.514399674216344;13.338359477798086;17.369994788508645;-2.62939453125;0.109375;-4.8828125E-4;-304.0625;128.9375;239.375;
1441975553350674;0.13555908203125;-0.651123046875;-0.70159912109375;-0.25592041015625;12.156387905935592;13.110837754815115;17.38139241395072;-2.572265625;-1.53515625;-0.41796875;-380.1875;45.0;208.8125;
1441975553373675;0.1114501953125;-0.6671142578125;-0.69805908203125;-0.23516845703125;11.799153468981677;13.22340240421978;17.413181816632818;-1.966796875;-1.84619140625;-0.22607421875;-233.9375;-7.625;179.125;
1441975553394676;0.09234619140625;-0.69549560546875;-0.6778564453125;-0.22003173828125;11.55433894576472;13.450277852684753;17.457556206873072;-1.587890625;-1.10205078125;-0.30224609375;96.8125;6.75;180.75;
1441975553410677;0.08013916015625;-0.71917724609375;-0.6573486328125;-0.210693359375;11.410150789310368;13.647986609822961;17.489808065902746;-1.31787109375;-0.423828125;-0.33203125;202.125;28.875;148.1875;
1441975553433678;0.07427978515625;-0.7364501953125;-0.640869140625;-0.203857421875;11.329158490843357;13.798686971003857;17.524159501451102;-1.18701171875;-0.31494140625;-0.171875;181.3125;29.375;92.1875;
1441975553454680;0.08026123046875;-0.747802734375;-0.62677001953125;-0.2041015625;11.394162346096287;13.912457983706354;17.572786669574178;-1.095703125;-0.2470703125;4.8828125E-4;136.5625;36.0;57.1875;
1441975553470680;0.092529296875;-0.752685546875;-0.61810302734375;-0.20709228515625;11.52216254183898;13.977698050112759;17.629372195079217;-1.060546875;-0.0048828125;0.0703125;99.1875;50.625;28.9375;
1441975553493682;0.1099853515625;-0.7506103515625;-0.61529541015625;-0.2144775390625;11.721163723322935;13.988486379327256;17.68103788299943;-1.12060546875;0.22607421875;0.0732421875;49.375;54.3125;-7.875;
1441975553514683;0.13299560546875;-0.74346923828125;-0.6160888671875;-0.22381591796875;11.977718237925014;13.96665880542684;17.74214864776365;-1.20556640625;0.40966796875;0.0576171875;-3.5;43.75;-45.0625;
1441975553530684;0.15869140625;-0.73388671875;-0.6190185546875;-0.23040771484375;12.231871765624122;13.933857188011055;17.822498214493177;-1.18017578125;0.55322265625;0.02294921875;-43.5;44.375;-83.5625;
1441975553553685;0.188720703125;-0.72161865234375;-0.62164306640625;-0.239501953125;12.546494837381738;13.897081884364278;17.910655460433603;-1.16650390625;0.66796875;0.04296875;-72.1875;51.125;-125.875;
1441975553574686;0.22235107421875;-0.7080078125;-0.621337890625;-0.2515869140625;12.923598401220378;13.875941291672431;0.008179496702951124;-1.12255859375;0.61669921875;0.08642578125;-83.375;52.5625;-156.875;
1441975553590687;0.258056640625;-0.696533203125;-0.6136474609375;-0.26788330078125;13.361729656073269;13.910643680805656;0.12158196495994347;-1.12255859375;0.5673828125;0.12841796875;-77.5625;54.9375;-188.75;
1441975553613689;0.29290771484375;-0.6864013671875;-0.600341796875;-0.28753662109375;13.827937276172184;13.992518932356857;0.2450754064033514;-1.26025390625;0.56982421875;0.0732421875;-38.1875;57.5;-219.8125;
1441975553634690;0.32708740234375;-0.67437744140625;-0.58587646484375;-0.308349609375;14.304160509344705;14.092325260758942;0.38156658903192886;-1.39208984375;0.59912109375;-0.05126953125;-6.1875;50.125;-235.875;
1441975553650691;0.359375;-0.658447265625;-0.57293701171875;-0.330322265625;14.78584579706724;14.181251431771736;0.5129167342665926;-1.44873046875;0.61962890625;-0.203125;-6.5625;40.6875;-244.0;
1441975553673692;0.38665771484375;-0.6422119140625;-0.55914306640625;-0.3541259765625;15.253016050866034;14.279020297778402;0.6299624656370488;-1.5126953125;0.52392578125;-0.20361328125;-20.1875;20.0625;-245.6875;
