1441975233813397;-0.8427734375;0.02642822265625;-0.32684326171875;-0.42694091796875;5.500984024936888;15.04953274173552;9.831724682642735;2.4677734375;-0.92626953125;-0.16357421875;-42.125;-33.1875;-162.6875;
1441975233836398;-0.85791015625;-0.01348876953125;-0.3193359375;-0.4024658203125;5.7521222872177145;15.201798298737476;9.969780630632453;2.07275390625;-0.89892578125;-0.00439453125;81.375;3.0;-168.3125;
1441975233853399;-0.87725830078125;-0.057373046875;-0.3162841796875;-0.35662841796875;5.907229042253042;15.47484859793439;10.117598107905389;1.53173828125;-0.63623046875;-0.15576171875;229.125;29.25;-167.875;
1441975233874401;-0.89569091796875;-0.10516357421875;-0.31280517578125;-0.2982177734375;6.01600296064081;15.811948705277732;10.280434406161815;1.21728515625;-0.3359375;-0.38671875;343.25;47.625;-155.125;
1441975233898402;-0.9091796875;-0.14971923828125;-0.3079833984375;-0.23724365234375;6.073133277967916;16.155973513991295;10.432728873597235;1.0869140625;0.20703125;-0.5146484375;416.75;59.375;-145.875;
1441975233920403;-0.91656494140625;-0.188232421875;-0.30279541015625;-0.1812744140625;6.0870403572728735;16.463889846143307;10.568804357337921;1.01904296875;0.4306640625;-0.50537109375;420.1875;56.5;-125.875;
1441975233943405;-0.91925048828125;-0.21929931640625;-0.29754638671875;-0.13592529296875;6.083261769031068;16.70886398708846;10.683109805224547;0.90478515625;0.56005859375;-0.4072265625;378.8125;52.3125;-105.75;
1441975233949405;-0.91864013671875;-0.2401123046875;-0.29376220703125;-0.11065673828125;6.08867579651632;16.839374075412213;10.770098557525607;0.72265625;0.67919921875;-0.40234375;307.4375;42.375;-86.5625;
1441975233973406;-0.91461181640625;-0.25177001953125;-0.29681396484375;-0.11004638671875;6.082544620798759;16.815853236507284;10.851411897444457;0.61669921875;0.9482421875;-0.33837890625;184.25;23.0;-66.25;
1441975233995408;-0.91046142578125;-0.2542724609375;-0.30377197265625;-0.11944580078125;6.050594582132466;16.735159010428912;10.898449226459729;0.669921875;0.85302734375;-0.3642578125;54.625;5.3125;-51.75;
1441975234010408;-0.90704345703125;-0.25323486328125;-0.31103515625;-0.12841796875;6.005554633425288;16.66086511414537;10.924204448346847;0.74169921875;0.318359375;-0.38623046875;-50.375;3.875;-38.75;
1441975234033410;-0.90423583984375;-0.25262451171875;-0.31707763671875;-0.13446044921875;5.963878677264877;16.60656644486352;10.946059456925216;0.67919921875;0.0732421875;-0.4541015625;-70.1875;9.0;-26.0;
1441975234054411;-0.9014892578125;-0.25213623046875;-0.32275390625;-0.14013671875;5.925496704544738;16.554865065974305;10.967848587187307;0.6005859375;0.1181640625;-0.501953125;-51.0;12.6875;-19.5625;
1441975234070412;-0.898681640625;-0.25201416015625;-0.32855224609375;-0.1451416015625;5.884912853998964;16.50578404861478;10.991915500462218;0.5498046875;0.2099609375;-0.505859375;-44.375;15.0625;-15.875;
1441975234093413;-0.89544677734375;-0.25201416015625;-0.33551025390625;-0.14910888671875;5.828891706056329;16.458096172595322;11.019772674241347;0.6064453125;0.24072265625;-0.5517578125;-40.6875;16.0;-17.25;
1441975234116414;-0.89239501953125;-0.25152587890625;-0.34295654296875;-0.15106201171875;5.7583206544698795;16.420904592503224;11.044025085643181;0.67431640625;0.31005859375;-0.6005859375;-35.8125;23.8125;-15.5;
1441975234130415;-0.889892578125;-0.2508544921875;-0.35015869140625;-0.150634765625;5.680046244878281;16.398813517335384;11.063241092886448;0.65869140625;0.23779296875;-0.58642578125;-30.5;29.4375;-11.0;
1441975234160417;-0.88751220703125;-0.24993896484375;-0.357177734375;-0.1494140625;5.599373045607275;16.381842019623374;11.079893748672049;0.61328125;0.2333984375;-0.54736328125;-17.1875;32.375;-3.1875;
1441975234174418;-0.88494873046875;-0.2476806640625;-0.36553955078125;-0.1484375;5.501505540240933;16.360368723717556;11.093399704696264;0.58642578125;0.26220703125;-0.568359375;-12.5625;34.875;1.9375;
1441975234189419;-0.8822021484375;-0.2454833984375;-0.3743896484375;-0.146240234375;5.3933859334113565;16.343467406121942;11.10810611705101;0.634765625;0.27734375;-0.55615234375;-17.8125;38.8125;8.4375;
1441975234213420;-0.87884521484375;-0.2431640625;-0.38385009765625;-0.14569091796875;5.2857664051926605;16.313096569805634;11.128319976022464;0.67333984375;0.294921875;-0.5732421875;-12.125;43.5625;10.625;
1441975234234421;-0.87506103515625;-0.23834228515625;-0.39422607421875;-0.14892578125;5.176622975667431;16.259069348545047;11.14389216413883;0.66650390625;0.37353515625;-0.50439453125;-16.625;44.0;11.25;
1441975234264423;-0.8704833984375;-0.23052978515625;-0.40631103515625;-0.15521240234375;5.052283724609722;16.182413014711585;11.155180336106827;0.69482421875;0.3818359375;-0.47802734375;-42.25;41.375;15.3125;
1441975234272423;-0.86639404296875;-0.21966552734375;-0.41912841796875;-0.15985107421875;4.90075676183586;16.11742665490222;11.148974425033192;0.74462890625;0.48046875;-0.6455078125;-69.5625;51.8125;26.6875;
1441975234294425;-0.8623046875;-0.208740234375;-0.4326171875;-0.16064453125;4.7237757995225405;16.0721394283206;11.140569518684593;0.7578125;0.302734375;-0.6376953125;-77.1875;55.125;38.8125;
1441975234316426;-0.85809326171875;-0.19879150390625;-0.44635009765625;-0.15826416015625;4.533068885907427;16.04241695937765;11.135536267866959;0.74365234375;0.25927734375;-0.54248046875;-57.8125;61.5625;48.1875;
1441975234347428;-0.8531494140625;-0.18902587890625;-0.460693359375;-0.15582275390625;4.33571163976724;16.007104530717424;11.137661199706276;0.73779296875;0.2783203125;-0.46630859375;-37.3125;66.3125;52.875;
1441975234354428;-0.8472900390625;-0.17913818359375;-0.47637939453125;-0.15228271484375;4.118261515675717;15.969022781725847;11.147206686439779;0.81640625;0.2802734375;-0.3408203125;-33.75;64.0625;50.875;
1441975234378429;-0.84051513671875;-0.1685791015625;-0.4925537109375;-0.15020751953125;3.898502449023967;15.914752635951952;11.16420408730166;0.95263671875;0.416015625;-0.5439453125;-33.0625;82.4375;58.6875;
1441975234392430;-0.8336181640625;-0.15655517578125;-0.50823974609375;-0.149658203125;3.683273515997152;15.851627078598213;11.177821936965062;0.90673828125;0.4697265625;-0.40087890625;-37.3125;81.875;63.125;
1441975234415432;-0.82568359375;-0.1409912109375;-0.5244140625;-0.153076171875;3.4636524214797353;15.75901283958752;11.189702072847986;0.861328125;0.4462890625;-0.34375;-48.375;77.875;66.75;
1441975234436433;-0.81707763671875;-0.1239013671875;-0.54095458984375;-0.15655517578125;3.231552182270431;15.658824952165933;11.203434209173203;0.90576171875;0.33837890625;-0.21533203125;-79.625;70.5625;65.25;
1441975234460434;-0.80859375;-0.1087646484375;-0.55706787109375;-0.15509033203125;2.987439517892648;15.58433917880538;11.221377791109202;1.0078125;0.23828125;-0.21630859375;-88.3125;72.9375;64.6875;
1441975234475435;-0.800048828125;-0.096923828125;-0.572998046875;-0.1494140625;2.7404471695065467;15.523880656460966;11.257189812647416;1.08349609375;0.23095703125;-0.35400390625;-63.4375;85.375;69.6875;
1441975234496436;-0.79150390625;-0.087646484375;-0.58837890625;-0.14056396484375;2.495080307607927;15.473769393426398;11.306613168862562;1.02587890625;0.193359375;-0.193359375;-29.625;84.3125;68.6875;
1441975234521438;-0.78253173828125;-0.07757568359375;-0.6031494140625;-0.1339111328125;2.261603395267075;15.398819140296965;11.368370673043332;0.9990234375;0.2724609375;-0.17236328125;-4.625;87.6875;74.1875;
1441975234535438;-0.77276611328125;-0.0655517578125;-0.617919921875;-0.12945556640625;2.0282014525337315;15.291024052360084;11.445879559143544;1.02880859375;0.33056640625;-0.1728515625;-16.625;86.5625;75.0;
1441975234556440;-0.7626953125;-0.053466796875;-0.6326904296875;-0.1234130859375;1.785853050934952;15.17229232096819;11.540742187683804;1.08056640625;0.3154296875;-0.14208984375;-33.6875;86.6875;75.8125;
1441975234572441;-0.75189208984375;-0.0439453125;-0.64794921875;-0.11395263671875;1.5362812645526789;15.024677014385173;11.689020164261342;1.16064453125;0.30029296875;-0.18310546875;-29.0625;93.0625;81.3125;
1441975234597442;-0.740234375;-0.039306640625;-0.6636962890625;-0.1004638671875;1.2939232210373377;14.810536342512771;11.94003274528822;1.24560546875;0.22412109375;-0.14404296875;-5.5;101.4375;82.0625;
1441975234616443;-0.72802734375;-0.03765869140625;-0.67919921875;-0.085693359375;1.0764920479632132;14.482041491946386;12.322459384933271;1.24169921875;0.24658203125;-0.126953125;29.375;111.375;77.375;
1441975234632444;-0.715576171875;-0.0341796875;-0.69378662109375;-0.0743408203125;0.8977556147263035;13.986052474940916;12.850721924846347;1.14892578125;0.35888671875;-0.16943359375;45.75;116.0;71.8125;
1441975234655445;-0.703369140625;-0.02679443359375;-0.70721435546875;-0.0670166015625;0.761300612864167;13.30097496454307;13.535692898016125;1.07958984375;0.39990234375;-0.185546875;24.375;112.8125;67.375;
1441975234676446;-0.69317626953125;-0.01727294921875;-0.7178955078125;-0.063232421875;0.6827286266823274;12.553267746403497;14.260182336160717;1.07373046875;0.390625;-0.1669921875;-7.625;105.1875;66.875;
1441975234692447;-0.683349609375;-0.005859375;-0.72772216796875;-0.0594482421875;0.6400623572508766;11.68156862716145;15.100941298533614;1.08349609375;0.3037109375;-0.17529296875;-31.1875;96.25;68.8125;
1441975234715449;-0.67327880859375;0.00311279296875;-0.73748779296875;-0.053466796875;0.6615275747970181;10.790381104048825;15.979954024820218;1.1103515625;0.20361328125;-0.1572265625;-38.5;91.9375;70.6875;
1441975234736450;-0.66339111328125;0.00732421875;-0.74700927734375;-0.0443115234375;0.7413401430884765;10.088240924253876;16.70208887324638;1.13232421875;0.1572265625;-0.13037109375;-19.4375;94.0625;68.6875;
1441975234752451;-0.6539306640625;0.00750732421875;-0.7557373046875;-0.034912109375;0.855064553214832;9.667120596246175;17.160518155474772;1.10498046875;0.1181640625;-0.13525390625;12.9375;95.6875;62.5;
1441975234775452;-0.6458740234375;0.0064697265625;-0.76300048828125;-0.02691650390625;0.9645057969503402;9.4272427118705;17.437008352235285;1.06005859375;0.21630859375;-0.11083984375;30.4375;91.75;56.625;
1441975234796453;-0.639404296875;0.00823974609375;-0.76861572265625;-0.0218505859375;1.0541786240120778;9.239448478772221;17.638125233490626;1.005859375;0.31640625;-0.1474609375;29.125;83.4375;52.6875;
1441975234812454;-0.63385009765625;0.01312255859375;-0.77313232421875;-0.0185546875;1.131268164792933;9.04718481515491;17.82383944880722;0.95751953125;0.29541015625;-0.16943359375;6.4375;72.75;49.4375;
1441975234835456;-0.62884521484375;0.01788330078125;-0.7772216796875;-0.01483154296875;1.204708124930415;8.87444349150757;17.99227093351759;0.95361328125;0.19287109375;-0.14501953125;-12.625;63.3125;46.1875;
1441975234856457;-0.62432861328125;0.02008056640625;-0.78094482421875;-0.00933837890625;1.274548724426823;8.743848884620592;0.13622177048964537;0.93212890625;0.0986328125;-0.1015625;-9.5625;56.8125;41.875;
1441975234872458;-0.62042236328125;0.0179443359375;-0.78411865234375;-0.00274658203125;1.3350648016523365;8.692590479210393;0.22301066633115366;0.92431640625;0.0419921875;-0.06640625;9.5;51.6875;37.125;
1441975234895459;-0.617431640625;0.012451171875;-0.78656005859375;0.0045166015625;1.380587634728984;8.697359121928875;0.2702608752881138;0.966796875;0.0888671875;-0.04931640625;31.75;46.75;30.6875;
1441975234916460;-0.6148681640625;0.00537109375;-0.78857421875;0.01068115234375;1.4170807738346018;8.746852604917171;0.2748256982548205;0.96826171875;0.13037109375;-0.02734375;48.6875;39.625;24.1875;
1441975234932461;-0.6126708984375;-0.00250244140625;-0.79022216796875;0.0169677734375;1.4472014826971178;8.806873036458178;0.27264047364283667;0.92236328125;0.18359375;0.02880859375;50.5625;31.8125;17.0;
1441975234955462;-0.611083984375;-0.01165771484375;-0.79119873046875;0.023681640625;1.4666065478155372;8.881219673714158;0.263142615551348;0.908203125;0.095703125;0.0966796875;56.25;24.0625;8.0625;
1441975234976464;-0.60919189453125;-0.0247802734375;-0.79205322265625;0.03179931640625;1.4868918431297984;9.005702309070386;0.22552145062877102;0.93603515625;-0.02734375;0.14111328125;65.5;17.0;-3.0;
1441975234992465;-0.6064453125;-0.04058837890625;-0.7930908203125;0.04107666015625;1.516711326487991;9.159480881703672;0.17446993305863437;0.97900390625;-0.015625;0.19580078125;88.375;14.625;-10.4375;
1441975235023466;-0.603271484375;-0.057373046875;-0.7939453125;0.05035400390625;1.5506885344719585;9.32585284471542;0.11503207685395113;1.02099609375;0.03857421875;0.203125;104.25;15.625;-12.875;
1441975235036467;-0.6007080078125;-0.07464599609375;-0.7939453125;0.0570068359375;1.5772409417738094;9.53041408398849;0.008850033882412595;0.9990234375;0.14111328125;0.21240234375;108.625;16.5625;-15.5;
1441975235052468;-0.59832763671875;-0.08795166015625;-0.794189453125;0.0599365234375;1.6084181855606663;9.710115354103019;17.896105279599535;0.9833984375;0.23388671875;0.2412109375;98.5625;10.8125;-17.75;
1441975235075469;-0.5966796875;-0.09576416015625;-0.7945556640625;0.05938720703125;1.6357416027521734;9.839007384767223;17.79732913373226;1.01806640625;0.33544921875;0.314453125;66.5;6.5;-15.8125;
1441975235104471;-0.59552001953125;-0.098388671875;-0.79522705078125;0.05792236328125;1.6567936721997432;9.89337130703953;17.747905209499205;1.06787109375;0.3876953125;0.40673828125;29.0;-1.875;-10.125;
1441975235112471;-0.59429931640625;-0.09881591796875;-0.79620361328125;0.056640625;1.6772055762855642;9.908891400212518;17.729019531330533;1.0751953125;0.2197265625;0.42041015625;5.0625;-2.0;-8.3125;
1441975235135473;-0.5936279296875;-0.0992431640625;-0.79669189453125;0.05596923828125;1.6883662083794608;9.92000306951951;17.71699747070593;1.01806640625;0.06640625;0.43798828125;-1.125;-1.875;-10.3125;
1441975235156474;-0.5938720703125;-0.09930419921875;-0.796630859375;0.0543212890625;1.6888787917514996;9.940664959418909;17.689793156847553;1.01513671875;0.04541015625;0.41552734375;1.5;-3.875;-8.3125;
1441975235172475;-0.59478759765625;-0.0982666015625;-0.79632568359375;0.05078125;1.683680684557808;9.968671548444478;17.642878808184065;1.01416015625;0.1005859375;0.38818359375;-4.75;-8.9375;-7.8125;
1441975235195476;-0.59619140625;-0.09576416015625;-0.7957763671875;0.0472412109375;1.670132107190173;9.976518359384155;17.610058321328466;0.97265625;0.1181640625;0.38232421875;-16.5625;-14.125;-10.375;
1441975235216477;-0.59796142578125;-0.09234619140625;-0.7950439453125;0.0438232421875;1.6502333721825924;9.970726835869433;17.587578612218323;0.9375;0.0244140625;0.3779296875;-21.5625;-17.375;-11.3125;
1441975235232478;-0.60009765625;-0.09051513671875;-0.79376220703125;0.04119873046875;1.624698704665879;9.984241259696715;17.555576694613997;0.9228515625;-0.05517578125;0.3798828125;-23.875;-19.8125;-12.8125;
1441975235254480;-0.60260009765625;-0.0894775390625;-0.7921142578125;0.0391845703125;1.5938007643133838;10.006654548084708;17.520406105144367;0.8974609375;-0.03564453125;0.41796875;-14.0;-26.625;-12.3125;
1441975235276481;-0.60565185546875;-0.08843994140625;-0.78997802734375;0.03704833984375;1.5552439356088974;10.03584175777533;17.47795249065068;0.857421875;-0.02685546875;0.40087890625;-8.1875;-29.1875;-11.5;
1441975235292482;-0.6092529296875;-0.086181640625;-0.78759765625;0.03436279296875;1.509141231144779;10.056685373197693;17.436539768262595;0.83544921875;0.005859375;0.3740234375;-9.25;-33.0625;-9.0625;
1441975235314483;-0.61358642578125;-0.08245849609375;-0.78472900390625;0.031005859375;1.4519036405266676;10.068600210021065;17.395302029181025;0.8232421875;0.0146484375;0.36279296875;-16.9375;-35.9375;-6.4375;
1441975235336484;-0.6190185546875;-0.0765380859375;-0.78118896484375;0.02740478515625;1.3763005807288016;10.055045427335143;17.369504804614134;0.80419921875;0.02734375;0.353515625;-26.125;-41.25;-2.75;
1441975235352485;-0.625;-0.07049560546875;-0.777099609375;0.02459716796875;1.2900011714829058;10.033598279491933;17.35439724402416;0.814453125;-0.0048828125;0.35595703125;-36.4375;-49.1875;2.6875;
1441975235374486;-0.63226318359375;-0.06524658203125;-0.771728515625;0.02288818359375;1.18307862991156;10.024328826052862;17.33487078164452;0.85009765625;-0.05908203125;0.31201171875;-33.5;-50.6875;3.625;
1441975235398488;-0.64044189453125;-0.060546875;-0.76531982421875;0.02227783203125;1.0598019317830965;10.020481203869046;17.316704424306486;0.833984375;-0.09375;0.23779296875;-25.875;-56.75;4.375;
1441975235420489;-0.64923095703125;-0.0552978515625;-0.75836181640625;0.02203369140625;0.9253697225534898;10.004817053336051;17.309643308180203;0.859375;-0.07470703125;0.189453125;-19.8125;-61.5625;9.125;
1441975235434490;-0.65740966796875;-0.0506591796875;-0.7515869140625;0.02117919921875;0.8002330359223678;10.015011630493046;17.27686096527835;0.92041015625;-0.10986328125;0.16943359375;-20.75;-65.5625;10.75;
1441975235457491;-0.6649169921875;-0.04791259765625;-0.74517822265625;0.02001953125;0.6888781762447879;10.096096055931262;17.179716335334508;0.97607421875;-0.0732421875;0.19677734375;-20.5625;-65.25;8.5625;
1441975235472492;-0.67193603515625;-0.04681396484375;-0.73895263671875;0.01922607421875;0.5874614796734893;10.252739828837557;17.01525125061689;0.99609375;-0.0517578125;0.2158203125;-14.4375;-63.6875;1.5625;
1441975235502494;-0.6787109375;-0.04736328125;-0.732666015625;0.0189208984375;0.49435632523584294;10.52424001520539;16.744647416698268;0.9716796875;-0.0498046875;0.22265625;-5.625;-63.125;-3.0;
1441975235517495;-0.685791015625;-0.049560546875;-0.7259521484375;0.018310546875;0.41239583729974383;11.03197380900135;16.24326997831889;0.98876953125;-0.00341796875;0.20166015625;2.5;-62.1875;-4.0625;
1441975235540496;-0.69287109375;-0.052490234375;-0.718994140625;0.017822265625;0.35176931334267725;11.792612147072983;15.492491829059167;1.0302734375;0.0546875;0.14794921875;8.3125;-62.5;-8.125;
1441975235554497;-0.7005615234375;-0.05450439453125;-0.71142578125;0.0152587890625;0.32998734382697537;12.8677506539415;14.415105163348848;1.07568359375;0.05712890625;0.10888671875;11.875;-62.5625;-10.5;
1441975235577498;-0.7083740234375;-0.05511474609375;-0.70367431640625;0.01007080078125;0.3670115881134238;13.929978944172621;13.33433261566974;1.12451171875;0.107421875;0.0791015625;-0.5;-67.3125;-12.3125;
1441975235600499;-0.71612548828125;-0.05377197265625;-0.69598388671875;0.003173828125;0.4413586786343545;14.700765901801054;12.530164304103959;1.13623046875;0.19287109375;0.05419921875;-16.125;-69.4375;-12.0625;
1441975235614500;-0.72296142578125;-0.05072021484375;-0.68902587890625;-0.0040283203125;0.5221037277441893;15.184321584564472;12.005076293912389;1.15576171875;0.17236328125;0.005859375;-31.3125;-67.25;-13.0625;
1441975235637501;-0.72906494140625;-0.04791259765625;-0.68280029296875;-0.01068115234375;0.6051653961314105;15.490229776657129;11.66082645453228;1.1826171875;0.1083984375;-0.05419921875;-39.4375;-58.5;-12.5625;
1441975235659503;-0.734130859375;-0.0458984375;-0.67730712890625;-0.01629638671875;0.6830021624266515;15.68087920678289;11.439269462380356;1.177734375;0.10693359375;-0.10888671875;-36.9375;-49.8125;-12.125;
1441975235674504;-0.7381591796875;-0.04473876953125;-0.67291259765625;-0.02166748046875;0.754829319956237;15.771601737510975;11.3220695936374;1.15869140625;0.15625;-0.13916015625;-29.625;-41.625;-8.875;
1441975235698505;-0.74078369140625;-0.04425048828125;-0.66986083984375;-0.026123046875;0.8102032839605445;15.797949203244944;11.275674498376066;1.1181640625;0.23046875;-0.13134765625;-25.0;-33.6875;-6.3125;
1441975235719506;-0.7431640625;-0.0430908203125;-0.6671142578125;-0.0296630859375;0.853550369835758;15.84071850022809;11.21383309072569;1.02099609375;0.263671875;-0.1318359375;-18.5;-22.3125;-3.375;
1441975235735507;-0.7454833984375;-0.039794921875;-0.66455078125;-0.03363037109375;0.8862955477991811;15.901746205702764;11.123302867372386;0.92919921875;0.2333984375;-0.18408203125;-18.0;-16.0625;1.125;
1441975235765509;-0.7474365234375;-0.03533935546875;-0.662353515625;-0.03839111328125;0.9131783592421623;15.948235955817944;11.039361305845496;0.8828125;0.23974609375;-0.17236328125;-28.0625;-16.25;9.25;
1441975235780510;-0.748779296875;-0.02923583984375;-0.66070556640625;-0.0452880859375;0.9358345478920964;15.955557179646513;10.979193010573898;0.908203125;0.326171875;-0.224609375;-35.3125;-10.8125;17.0;
1441975235794510;-0.74957275390625;-0.02191162109375;-0.6595458984375;-0.05316162109375;0.9508377191037232;15.945244552555835;10.927711521028725;0.9248046875;0.3330078125;-0.244140625;-51.3125;-5.6875;15.75;
1441975235819512;-0.7501220703125;-0.01507568359375;-0.658447265625;-0.0601806640625;0.9621493712374136;15.939157547318915;10.877433502031165;0.88232421875;0.25439453125;-0.22314453125;-60.4375;-3.5625;12.1875;
1441975235838513;-0.75006103515625;-0.01123046875;-0.65802001953125;-0.06573486328125;0.9733357450653273;15.894034269614227;10.884294295816325;0.865234375;0.2080078125;-0.208984375;-55.375;-2.8125;10.375;
1441975235862514;-0.75042724609375;-0.0098876953125;-0.65740966796875;-0.068603515625;0.9873471336836726;15.872651913225214;10.888526379391692;0.84716796875;0.23876953125;-0.173828125;-37.6875;1.0625;5.125;
1441975235878515;-0.75103759765625;-0.01019287109375;-0.65643310546875;-0.07073974609375;1.0100717137571082;15.849515107301922;10.90416055757129;0.8447265625;0.2138671875;-0.19970703125;-17.3125;1.5625;2.75;
1441975235899516;-0.75238037109375;-0.00982666015625;-0.65447998046875;-0.074462890625;1.0482093746845296;15.832096352375505;10.904851186002992;0.822265625;0.26953125;-0.173828125;-6.625;-1.875;1.8125;
1441975235914517;-0.75506591796875;-0.0086669921875;-0.651123046875;-0.0771484375;1.0937832067911264;15.883437607073917;10.837752050892043;0.82421875;0.20849609375;-0.22119140625;-16.6875;-6.1875;-5.625;
1441975235937519;-0.75628662109375;-0.0057373046875;-0.64947509765625;-0.079345703125;1.1081628803552355;15.923139703363377;10.777122267758527;0.7294921875;0.0810546875;-0.2841796875;-16.5;-12.625;-7.5;
1441975235966520;-0.7579345703125;-0.0052490234375;-0.6474609375;-0.08038330078125;1.134344545067034;15.957958898009682;10.73602171376535;0.78662109375;0.048828125;-0.16748046875;-20.8125;-9.625;0.0625;
1441975235974521;-0.76055908203125;-0.0062255859375;-0.64410400390625;-0.08209228515625;1.1863468377274582;15.986613148990306;10.70422928093897;0.80810546875;0.083984375;-0.20947265625;-6.375;-9.25;-4.0625;
1441975235999522;-0.76397705078125;-0.006591796875;-0.63983154296875;-0.083984375;1.247583466051218;16.03650402192613;10.647941291070476;0.77197265625;0.1962890625;-0.22119140625;-2.5;-17.125;-5.75;
1441975236020523;-0.76800537109375;-0.0076904296875;-0.63470458984375;-0.0858154296875;1.3222199233092509;16.088191890810574;10.593024252007341;0.81005859375;0.24365234375;-0.205078125;-4.375;-26.8125;-1.8125;
1441975236048525;-0.77154541015625;-0.00958251953125;-0.62994384765625;-0.0887451171875;1.4003008104217316;16.099556225084545;10.577154230562183;0.89697265625;0.28076171875;-0.25830078125;-0.875;-30.4375;-3.25;
1441975236065526;-0.77435302734375;-0.010498046875;-0.62640380859375;-0.08929443359375;1.449824862613769;16.13902450012727;10.539010455978527;0.88818359375;0.26611328125;-0.21728515625;-2.8125;-30.0;-12.25;
1441975236080527;-0.77691650390625;-0.0072021484375;-0.62359619140625;-0.0867919921875;1.4611217700605483;16.261837383307064;10.412905832988823;0.84033203125;0.140625;-0.21826171875;1.9375;-22.5625;-7.375;
1441975236094528;-0.7786865234375;-5.4931640625E-4;-0.6217041015625;-0.08544921875;1.4541453985240504;16.390785563625904;10.262278416885751;0.8330078125;-0.01171875;-0.26513671875;-2.125;-17.1875;13.125;
1441975236118529;-0.7802734375;0.0059814453125;-0.61944580078125;-0.08697509765625;1.462954862141563;16.47352248533015;10.146529297758955;0.869140625;0.072265625;-0.255859375;-18.0;-13.625;30.5;
1441975236138530;-0.78204345703125;0.01214599609375;-0.61627197265625;-0.09259033203125;1.4972033872794897;16.491521019944763;10.080123207840797;0.92333984375;0.23779296875;-0.26318359375;-28.3125;-15.1875;30.3125;
1441975236154531;-0.78338623046875;0.01873779296875;-0.61346435546875;-0.09844970703125;1.5252631436439938;16.503637361828147;10.016807912121534;0.94189453125;0.26611328125;-0.2822265625;-44.4375;-18.875;15.6875;
1441975236184533;-0.78399658203125;0.02459716796875;-0.61199951171875;-0.10137939453125;1.530720606444451;16.539338746485534;9.945013143684754;0.9560546875;0.1513671875;-0.22021484375;-48.75;-20.75;8.375;
1441975236198534;-0.78448486328125;0.03045654296875;-0.61114501953125;-0.1009521484375;1.5206914283246695;16.62449768968973;9.83760677268053;0.94970703125;0.06982421875;-0.171875;-33.75;-15.375;11.375;
1441975236214534;-0.7852783203125;0.0352783203125;-0.61016845703125;-0.0994873046875;1.5155998483586317;16.717343127953715;9.73103215021925;0.93896484375;0.0126953125;-0.18212890625;-20.0625;-12.3125;20.0625;
1441975236262537;-0.7867431640625;0.0382080078125;-0.6082763671875;-0.09832763671875;1.5304099736346157;16.78965341832627;9.651352289430058;0.92431640625;0.11376953125;-0.220703125;-9.8125;-10.6875;26.4375;
1441975236275538;-0.78826904296875;0.041259765625;-0.6060791015625;-0.09844970703125;1.5519469588372454;16.842550555733055;9.585272716449397;0.92041015625;0.189453125;-0.27490234375;-3.25;-12.4375;21.75;
1441975236277538;-0.78948974609375;0.044677734375;-0.6041259765625;-0.098876953125;1.569740035119143;16.891009011253285;9.520868321915337;0.91357421875;0.140625;-0.26416015625;-10.5;-15.0;14.4375;
1441975236305540;-0.79046630859375;0.04779052734375;-0.60296630859375;-0.0968017578125;1.5752393203966868;16.971341520743447;9.436237759302609;0.90283203125;0.08349609375;-0.19189453125;-13.5625;-17.75;11.6875;
1441975236320541;-0.79180908203125;0.0496826171875;-0.6016845703125;-0.0931396484375;1.5852295680515254;17.06365301337587;9.351153169337119;0.87890625;-0.01318359375;-0.15771484375;-2.5;-15.9375;13.8125;
1441975236334541;-0.79400634765625;0.0498046875;-0.5994873046875;-0.08831787109375;1.611975809952266;17.157004885791;9.276930508757443;0.83642578125;-0.05908203125;-0.15869140625;8.4375;-17.0625;11.0625;
1441975236357543;-0.79656982421875;0.04827880859375;-0.5968017578125;-0.08428955078125;1.650370657174085;17.217328041362244;9.239183580241065;0.85888671875;-0.005859375;-0.177734375;20.875;-22.8125;10.0625;
1441975236380544;-0.7982177734375;0.04473876953125;-0.59527587890625;-0.08099365234375;1.6763585812203137;17.235770976099374;9.248655618953492;0.92724609375;0.09423828125;-0.20947265625;24.8125;-25.3125;6.125;
1441975236394545;-0.79998779296875;0.041259765625;-0.593505859375;-0.078125;1.7058111515660246;17.24901716726134;9.261308478182437;1.02587890625;0.15673828125;-0.1943359375;29.5625;-18.9375;-1.1875;
1441975236427547;-0.80126953125;0.03973388671875;-0.592041015625;-0.07769775390625;1.7294477332701361;17.244905161971808;9.273330502834233;1.0751953125;0.14404296875;-0.23193359375;26.9375;-19.0625;-3.375;
1441975236447548;-0.80206298828125;0.0408935546875;-0.59051513671875;-0.0802001953125;1.7501717823948313;17.225222642856373;9.277803284332597;1.0703125;0.1669921875;-0.28564453125;9.0625;-13.0;-1.125;
1441975236454548;-0.8021240234375;0.04254150390625;-0.5897216796875;-0.083984375;1.760401038015996;17.188262214634673;9.292317548576957;1.04541015625;0.15478515625;-0.2724609375;-13.8125;-12.75;0.4375;
1441975236477549;-0.80169677734375;0.04425048828125;-0.58966064453125;-0.08770751953125;1.760669005057343;17.149988465225874;9.308232016160588;1.021484375;0.13134765625;-0.298828125;-22.25;-4.4375;-2.875;
1441975236500551;-0.8011474609375;0.044677734375;-0.59002685546875;-0.09039306640625;1.7570819248322387;17.111823114918394;9.333623394550822;0.9814453125;0.10595703125;-0.2822265625;-22.75;0.0625;-3.5625;
1441975236528552;-0.80194091796875;0.0416259765625;-0.58941650390625;-0.0888671875;1.7709924353456261;17.105485133535133;9.358714355337852;1.02294921875;0.07177734375;-0.23095703125;-14.0;-1.3125;-8.4375;
1441975236545553;-0.803466796875;0.03662109375;-0.58807373046875;-0.08575439453125;1.7974143872451414;17.106216369801004;9.391203456451478;1.05078125;0.044921875;-0.31396484375;16.3125;-4.625;-13.4375;
1441975236560554;-0.80438232421875;0.03204345703125;-0.58770751953125;-0.0816650390625;1.8085190356546141;17.12156191575512;9.411472145356454;1.07373046875;0.080078125;-0.38427734375;30.9375;-5.875;-15.1875;
1441975236597556;-0.80474853515625;0.0294189453125;-0.5880126953125;-0.0767822265625;1.8049499848143609;17.16562247354337;9.398328155562998;1.06494140625;0.04833984375;-0.35595703125;33.3125;-1.8125;-11.5625;
1441975236600557;-0.80523681640625;0.03076171875;-0.58758544921875;-0.07373046875;1.8050495558136823;17.22709346889913;9.34386636210947;0.99658203125;-0.052734375;-0.345703125;27.9375;2.8125;-5.375;
1441975236620558;-0.8057861328125;0.03619384765625;-0.586669921875;-0.07269287109375;1.8073518767263794;17.30357803344134;9.249292630435454;0.9052734375;-0.087890625;-0.36279296875;6.0625;0.375;5.0625;
1441975236642559;-0.8062744140625;0.0450439453125;-0.58502197265625;-0.07574462890625;1.8174754023347264;17.35691685975957;9.14690086057722;0.83154296875;-0.046875;-0.400390625;-16.6875;0.5;20.6875;
1441975236657560;-0.80645751953125;0.0543212890625;-0.583251953125;-0.080810546875;1.82901397206878;17.38390777707926;9.060708563092984;0.8310546875;0.0458984375;-0.4287109375;-45.375;-1.375;28.625;
1441975236680561;-0.8062744140625;0.06219482421875;-0.582275390625;-0.08404541015625;1.8313809811661337;17.420820212009364;8.977964554584636;0.86962890625;0.0302734375;-0.4052734375;-56.125;-3.1875;22.75;
1441975236701562;-0.8057861328125;0.06890869140625;-0.58197021484375;-0.08563232421875;1.8262665958973763;17.4686237942701;8.895946520340205;0.89697265625;0.0126953125;-0.34130859375;-42.875;-3.375;22.0625;
1441975236725564;-0.80621337890625;0.07391357421875;-0.58074951171875;-0.0863037109375;1.8373706609207576;17.51325617236063;8.827802898409969;0.89501953125;0.06689453125;-0.30126953125;-29.875;-1.75;26.6875;
1441975236741565;-0.807373046875;0.07879638671875;-0.57843017578125;-0.086669921875;1.8642562078970832;17.56106940735747;8.758036715051679;0.87646484375;0.17236328125;-0.35986328125;-17.75;-4.3125;28.3125;
1441975236761566;-0.807861328125;0.0843505859375;-0.57672119140625;-0.08782958984375;1.8814759653323654;17.60245174690055;8.68868393179004;0.890625;0.17431640625;-0.41162109375;-15.75;-9.1875;28.3125;
1441975236787567;-0.8076171875;0.090576171875;-0.5758056640625;-0.08978271484375;1.8867993926508224;17.638413630019617;8.618802197032801;0.9287109375;0.16015625;-0.39501953125;-22.1875;-6.125;28.6875;
1441975236807568;-0.80731201171875;0.09649658203125;-0.574951171875;-0.09197998046875;1.891631463501087;17.667448329515253;8.55609151790853;0.93212890625;0.123046875;-0.39453125;-28.625;-0.3125;27.3125;
1441975236821569;-0.80755615234375;0.10198974609375;-0.5733642578125;-0.09332275390625;1.9077157719283957;17.703456194525465;8.491512243775459;0.90283203125;0.09326171875;-0.4072265625;-29.1875;1.4375;23.6875;
1441975236837570;-0.80792236328125;0.10699462890625;-0.57183837890625;-0.09405517578125;1.9248316646777672;17.742337208495577;8.428620448849005;0.8857421875;0.06005859375;-0.42431640625;-24.875;-2.125;21.6875;
1441975236860571;-0.80841064453125;0.1109619140625;-0.57037353515625;-0.09405517578125;1.9429206254205784;17.780253543572826;8.373988833488598;0.8974609375;0.0302734375;-0.40966796875;-20.625;-4.1875;19.9375;
1441975236890573;-0.80902099609375;0.113525390625;-0.56915283203125;-0.09356689453125;1.9597806889220168;17.81053737976434;8.334897144979523;0.9169921875;0.01416015625;-0.41162109375;-14.0625;-4.5625;16.625;
1441975236897574;-0.80987548828125;0.11431884765625;-0.56793212890625;-0.0924072265625;1.9782120976986888;17.83209400841796;8.314606026680138;0.91845703125;0.0;-0.41650390625;-7.5625;-3.5625;11.0;
1441975236927575;-0.810302734375;0.11468505859375;-0.56768798828125;-0.0897216796875;1.9861159726219397;17.871856007548722;8.284389421124004;0.90625;0.01953125;-0.40625;2.375;-4.125;6.3125;
1441975236942576;-0.810302734375;0.11566162109375;-0.5679931640625;-0.08660888671875;1.9873222853721286;17.92441447629981;8.240706234336706;0.921875;0.0078125;-0.37841796875;11.375;-1.4375;9.5;
1441975236957577;-0.81134033203125;0.1158447265625;-0.56689453125;-0.08380126953125;2.0078249255068292;17.961288890949586;8.214478816107052;0.92333984375;-0.02587890625;-0.3955078125;10.3125;2.8125;12.5625;
1441975236980578;-0.81298828125;0.11474609375;-0.56500244140625;-0.081787109375;2.0377496049155384;17.972683482127778;8.215620902914882;0.90625;0.01025390625;-0.4365234375;12.4375;-3.25;9.0625;
1441975237003580;-0.81475830078125;0.11358642578125;-0.56280517578125;-0.081298828125;2.0693669836988344;17.962517694256185;8.232256866486615;0.90283203125;0.0478515625;-0.419921875;13.5625;-9.6875;2.375;
1441975237032581;-0.8162841796875;0.1126708984375;-0.560791015625;-0.0811767578125;2.09748919217102;17.950727196761207;8.247998388565016;0.91162109375;0.04296875;-0.38720703125;6.4375;-12.8125;-3.375;
1441975237040582;-0.81756591796875;0.1112060546875;-0.55926513671875;-0.08062744140625;2.119590373606927;17.940976224526096;8.26582963450268;0.90185546875;0.021484375;-0.36767578125;3.0;-12.5;-4.8125;
1441975237061583;-0.81927490234375;0.1082763671875;-0.5576171875;-0.0787353515625;2.146089169251291;17.93533557859827;8.29119685380995;0.90869140625;0.01513671875;-0.34716796875;7.3125;-11.5625;-5.9375;
1441975237083584;-0.82177734375;0.10400390625;-0.55499267578125;-0.07708740234375;2.185818580035549;17.913395461464017;8.337275028328705;0.9013671875;0.009765625;-0.369140625;17.8125;-11.9375;-9.6875;
1441975237099585;-0.82470703125;0.09942626953125;-0.551513671875;-0.07659912109375;2.2354407877875717;17.87437589016972;8.396740506100846;0.9033203125;0.05810546875;-0.3984375;22.0;-17.3125;-14.3125;
1441975237122586;-0.82769775390625;0.0955810546875;-0.547607421875;-0.0777587890625;2.2891552097273977;17.822865744905446;8.458781133047395;0.90869140625;0.08544921875;-0.390625;18.0625;-22.6875;-18.5625;
1441975237137587;-0.8304443359375;0.092529296875;-0.54364013671875;-0.0799560546875;2.3422793790553236;17.767770877546706;8.51675197859006;0.9091796875;0.076171875;-0.3779296875;7.0;-26.0;-22.0625;
1441975237159588;-0.8330078125;0.0897216796875;-0.5396728515625;-0.0826416015625;2.3949030998136114;17.711282723247553;8.573017633225355;0.9150390625;0.04296875;-0.375;-1.375;-26.25;-23.8125;
1441975237188590;-0.83575439453125;0.08612060546875;-0.53570556640625;-0.0850830078125;2.4497331620836493;17.654126614944687;8.634313263253581;0.9130859375;0.0361328125;-0.3720703125;-5.125;-26.1875;-25.3125;
1441975237197591;-0.83868408203125;0.08148193359375;-0.531494140625;-0.087158203125;2.5094059830217716;17.596239435002467;8.702098786622251;0.8974609375;0.03466796875;-0.3798828125;-1.5625;-26.1875;-28.875;
1441975237219592;-0.8414306640625;0.076416015625;-0.5274658203125;-0.08941650390625;2.5675412581916377;17.536077269958053;8.773189114794393;0.89404296875;0.0576171875;-0.4052734375;3.5625;-26.5;-32.1875;
1441975237250594;-0.843994140625;0.0711669921875;-0.52374267578125;-0.0916748046875;2.6229765777510123;17.477317076815076;8.843719437276983;0.89111328125;0.0791015625;-0.3994140625;4.5;-25.8125;-33.875;
1441975237258594;-0.84625244140625;0.06610107421875;-0.52032470703125;-0.09405517578125;2.6747315688546203;17.420678317897785;8.91089188452888;0.90380859375;0.0927734375;-0.40576171875;5.3125;-24.1875;-34.25;
1441975237287596;-0.84832763671875;0.061279296875;-0.51702880859375;-0.0965576171875;2.725178656971786;17.36637880588361;8.974201832503272;0.89990234375;0.1025390625;-0.41064453125;3.8125;-21.625;-33.75;
1441975237304597;-0.8502197265625;0.05657958984375;-0.5140380859375;-0.09893798828125;2.77239793822318;17.315767002746764;9.033901180392341;0.88818359375;0.09912109375;-0.4326171875;2.25;-19.6875;-33.625;
1441975237340599;-0.85174560546875;0.05194091796875;-0.5115966796875;-0.1009521484375;2.812669162391152;17.270103899273895;9.090021745289212;0.873046875;0.09375;-0.42724609375;2.0;-17.9375;-33.0;
1441975237342599;-0.85308837890625;0.0474853515625;-0.50946044921875;-0.102783203125;2.849273414745215;17.22823528000667;9.142422106921805;0.87158203125;0.0966796875;-0.42138671875;3.5625;-14.9375;-31.75;
1441975237362600;-0.854248046875;0.04345703125;-0.50750732421875;-0.10455322265625;2.8830107540044274;17.190190395338103;9.189492402160798;0.86328125;0.09619140625;-0.4384765625;3.4375;-11.9375;-30.3125;
1441975237377601;-0.8551025390625;0.03973388671875;-0.50604248046875;-0.10601806640625;2.9099572995037013;17.156798287704067;9.232005149793691;0.85986328125;0.10205078125;-0.455078125;2.3125;-10.0;-28.25;
1441975237399602;-0.85577392578125;0.0360107421875;-0.50494384765625;-0.107177734375;2.9323734284462577;17.126291709687784;9.272994989010039;0.87841796875;0.1005859375;-0.45556640625;2.375;-7.875;-26.375;
1441975237422604;-0.8563232421875;0.032470703125;-0.5040283203125;-0.1083984375;2.952494021800879;17.09626821525705;9.312521277203661;0.876953125;0.099609375;-0.4619140625;3.75;-5.4375;-25.3125;
1441975237443605;-0.8565673828125;0.02972412109375;-0.50341796875;-0.10968017578125;2.966903498713009;17.069510128245646;9.345227798620199;0.86328125;0.115234375;-0.4658203125;3.3125;-3.75;-23.5625;
1441975237459606;-0.85650634765625;0.02783203125;-0.50341796875;-0.11102294921875;2.972382308049056;17.04561952006691;9.371382706622189;0.8515625;0.12255859375;-0.4541015625;0.5625;-1.875;-19.8125;
1441975237482607;-0.85601806640625;0.02642822265625;-0.50396728515625;-0.11224365234375;2.9691832157648177;17.02393654924428;9.393855131375727;0.85107421875;0.11474609375;-0.45068359375;-2.25;0.8125;-15.8125;
1441975237503608;-0.85528564453125;0.02532958984375;-0.50506591796875;-0.11346435546875;2.9588486653395134;17.002444786509944;9.414993702333089;0.85498046875;0.10546875;-0.4404296875;-4.125;4.1875;-13.375;
1441975237519609;-0.85443115234375;0.02435302734375;-0.5062255859375;-0.11480712890625;2.947357913438337;16.979921738145656;9.436120359613877;0.8564453125;0.11279296875;-0.44580078125;-4.6875;7.625;-11.5625;
1441975237542610;-0.853515625;0.02398681640625;-0.5074462890625;-0.11639404296875;2.934186079349908;16.958029143644566;9.453057535577772;0.8623046875;0.1279296875;-0.4638671875;-5.75;9.4375;-10.1875;
1441975237557611;-0.8524169921875;0.0242919921875;-0.5089111328125;-0.11785888671875;2.9160303759206054;16.940085476065494;9.463788196462561;0.86669921875;0.13818359375;-0.47021484375;-8.3125;9.8125;-7.625;
1441975237579613;-0.85101318359375;0.02520751953125;-0.51092529296875;-0.119140625;2.8892355844578606;16.925484031581643;9.469512278330813;0.900390625;0.14208984375;-0.47314453125;-9.9375;10.6875;-4.0625;
1441975237602614;-0.84930419921875;0.026611328125;-0.513427734375;-0.1202392578125;2.8546219556381773;16.91366231236668;9.47128094650709;0.9443359375;0.15771484375;-0.48193359375;-10.5625;13.4375;0.0625;
1441975237632616;-0.847412109375;0.02850341796875;-0.51611328125;-0.1214599609375;2.816335360343224;16.902527131858026;9.469844381579938;0.97607421875;0.15771484375;-0.494140625;-11.625;16.25;3.125;
1441975237646616;-0.84552001953125;0.03076171875;-0.51873779296875;-0.1229248046875;2.7782291260755705;16.891122501611058;9.466138196771514;0.94384765625;0.1474609375;-0.455078125;-13.5625;16.625;5.1875;
1441975237662617;-0.8436279296875;0.03326416015625;-0.5213623046875;-0.1241455078125;2.7390642652217094;16.883644829993194;9.458530228576453;0.892578125;0.12841796875;-0.41064453125;-15.8125;15.3125;5.875;
1441975237683618;-0.8416748046875;0.0355224609375;-0.52423095703125;-0.1248779296875;2.6968638141616648;16.879063266229945;9.451171167080549;0.87841796875;0.11962890625;-0.39306640625;-15.625;15.125;7.25;
1441975237699619;-0.83978271484375;0.0372314453125;-0.5272216796875;-0.12469482421875;2.653396053351745;16.880574210007914;9.443885815267944;0.91064453125;0.12890625;-0.4052734375;-12.0625;16.6875;8.375;
1441975237722621;-0.83795166015625;0.0382080078125;-0.5302734375;-0.123779296875;2.610029150243352;16.885288458579062;9.439516648226004;0.9208984375;0.1396484375;-0.41259765625;-6.0625;17.9375;8.8125;
1441975237743622;-0.83612060546875;0.03887939453125;-0.5333251953125;-0.1226806640625;2.5670296328916558;16.890087604979175;9.437076749870188;0.93359375;0.15869140625;-0.40576171875;0.5625;18.1875;9.3125;
1441975237760623;-0.83428955078125;0.03936767578125;-0.53631591796875;-0.12200927734375;2.5258401446532726;16.88918634686188;9.439297043451589;0.94580078125;0.17822265625;-0.40673828125;2.9375;18.625;9.25;
1441975237782624;-0.83251953125;0.0401611328125;-0.53912353515625;-0.12139892578125;2.4861342361812873;16.890277927822435;9.437954399174155;0.94384765625;0.19580078125;-0.39892578125;2.125;18.5625;9.0;
1441975237803625;-0.83074951171875;0.040771484375;-0.5419921875;-0.1204833984375;2.4456992423685846;16.89339817105369;9.436623256886621;0.9296875;0.17724609375;-0.3837890625;0.375;17.1875;8.5;
1441975237818626;-0.82904052734375;0.04095458984375;-0.54498291015625;-0.11865234375;2.403730791462252;16.9038190695537;9.433601069692614;0.9404296875;0.16162109375;-0.3623046875;2.4375;15.9375;8.5;
1441975237833627;-0.827392578125;0.04022216796875;-0.548095703125;-0.1160888671875;2.3616935688473055;16.915993302745843;9.435676509801548;0.97412109375;0.1513671875;-0.3505859375;8.0625;15.9375;8.125;
1441975237864629;-0.82598876953125;0.0386962890625;-0.5509033203125;-0.1131591796875;2.3250511676569428;16.92799734308778;9.442639204212021;0.97265625;0.1455078125;-0.3330078125;14.125;15.5625;6.375;
1441975237878630;-0.82476806640625;0.03662109375;-0.55340576171875;-0.11065673828125;2.2943743738854763;16.931984741951567;9.458041819026208;0.94287109375;0.1376953125;-0.318359375;18.6875;14.3125;3.5;
1441975237904631;-0.82373046875;0.0343017578125;-0.55548095703125;-0.10882568359375;2.270610615529344;16.92746094615665;9.480073756022145;0.9169921875;0.14306640625;-0.29296875;18.8125;12.0625;0.0;
1441975237924632;-0.82281494140625;0.03143310546875;-0.5572509765625;-0.10736083984375;2.2524485630772726;16.91506066581203;9.510643736472773;0.8935546875;0.13525390625;-0.2861328125;16.6875;10.25;-3.75;
1441975237938633;-0.82220458984375;0.02789306640625;-0.55865478515625;-0.1058349609375;2.241087204592709;16.8996751507433;9.547174249012373;0.88330078125;0.1337890625;-0.27880859375;16.125;8.4375;-7.6875;
1441975237954634;-0.82177734375;0.023681640625;-0.55987548828125;-0.10394287109375;2.2335215583810375;16.884227430777234;9.588023897784435;0.88134765625;0.13818359375;-0.287109375;19.125;7.1875;-10.75;
1441975237975635;-0.8214111328125;0.01885986328125;-0.5609130859375;-0.1016845703125;2.228886211922526;16.868912196260013;9.632705500181293;0.88916015625;0.1533203125;-0.2861328125;23.25;5.9375;-12.0625;
1441975237998636;-0.82110595703125;0.013671875;-0.56201171875;-0.09942626953125;2.2252023116229056;16.850595563630467;9.681934358183556;0.89453125;0.1748046875;-0.2822265625;27.25;5.0625;-12.75;
1441975238013637;-0.82080078125;0.0084228515625;-0.5628662109375;-0.09735107421875;2.2245911947056953;16.830293280774484;9.732561397106656;0.90966796875;0.2041015625;-0.2734375;29.5625;4.375;-12.625;
1441975238035639;-0.820556640625;0.0035400390625;-0.56353759765625;-0.09588623046875;2.226816030499193;16.806400326903805;9.782721795468314;0.92333984375;0.22021484375;-0.27685546875;28.75;3.0;-12.875;
1441975238059640;-0.8201904296875;-9.1552734375E-4;-0.564208984375;-0.09478759765625;2.2283852057897255;16.78108729854077;9.831000585384539;0.9326171875;0.234375;-0.26953125;25.4375;1.5625;-12.8125;
1441975238073641;-0.8199462890625;-0.0048828125;-0.56475830078125;-0.09405517578125;2.231649960066701;16.756186127834305;9.875348655244608;0.95458984375;0.2294921875;-0.26416015625;21.8125;0.625;-12.5;
1441975238095642;-0.819580078125;-0.00848388671875;-0.565185546875;-0.09417724609375;2.2369207132982556;16.724115137085327;9.921773332760054;0.9501953125;0.22119140625;-0.27001953125;18.5;0.0;-12.5625;
1441975238118643;-0.8192138671875;-0.01153564453125;-0.56549072265625;-0.09527587890625;2.244843438494922;16.68546431455808;9.968460014577118;0.93603515625;0.22509765625;-0.2529296875;13.25;-1.0;-13.0;
1441975238141645;-0.81890869140625;-0.01422119140625;-0.56561279296875;-0.09698486328125;2.2559007216680094;16.64379218501754;10.014113244178011;0.92138671875;0.216796875;-0.2490234375;7.0625;-2.0;-14.75;
1441975238155645;-0.81854248046875;-0.016845703125;-0.56573486328125;-0.09893798828125;2.2676946712206214;16.599938752918387;10.06067556289908;0.90673828125;0.1962890625;-0.2431640625;2.125;-3.125;-16.5;
1441975238178647;-0.81805419921875;-0.01995849609375;-0.5660400390625;-0.100341796875;2.277635349068962;16.557923699084547;10.109696023700101;0.89794921875;0.1826171875;-0.24609375;0.375;-2.5;-18.125;
1441975238193648;-0.81768798828125;-0.02398681640625;-0.5662841796875;-0.10113525390625;2.2905493338513345;16.517507863863386;10.16343154131949;0.90625;0.18212890625;-0.259765625;4.1875;-0.3125;-19.0625;
1441975238215649;-0.81732177734375;-0.02850341796875;-0.56658935546875;-0.10125732421875;2.302948153747153;16.481394296596317;10.217671790291437;0.89892578125;0.19775390625;-0.27197265625;9.9375;0.75;-20.5625;
1441975238238650;-0.8167724609375;-0.0330810546875;-0.56707763671875;-0.10113525390625;2.312651389545964;16.446281411911546;10.272179450498884;0.892578125;0.216796875;-0.2783203125;14.875;2.0625;-20.0625;
1441975238253651;-0.8160400390625;-0.03778076171875;-0.5679931640625;-0.10052490234375;2.3168766024563374;16.413060316166646;10.32737115047161;0.89599609375;0.22998046875;-0.28173828125;16.625;3.875;-18.75;
1441975238275652;-0.8150634765625;-0.04254150390625;-0.5692138671875;-0.09942626953125;2.316069052546209;16.382111047072122;10.382573085549025;0.8974609375;0.2392578125;-0.28369140625;18.8125;6.625;-17.1875;
1441975238299654;-0.81390380859375;-0.04730224609375;-0.57086181640625;-0.09759521484375;2.308237871402442;16.35586658793247;10.436133674367786;0.92236328125;0.24755859375;-0.2861328125;21.5625;8.875;-15.8125;
1441975238313655;-0.8123779296875;-0.052001953125;-0.572998046875;-0.09564208984375;2.29406225344813;16.32652047469182;10.493054200359932;0.943359375;0.23876953125;-0.294921875;24.0625;11.5625;-14.3125;
1441975238335656;-0.8106689453125;-0.05657958984375;-0.57525634765625;-0.09393310546875;2.2789096069478525;16.293151774039924;10.55246178034946;0.94970703125;0.24658203125;-0.26904296875;24.5625;14.0625;-13.125;
1441975238358657;-0.808837890625;-0.060302734375;-0.57757568359375;-0.09320068359375;2.2636546090204654;16.253296895692795;10.610772525700348;0.9404296875;0.25732421875;-0.27392578125;23.0;15.625;-12.625;
1441975238373658;-0.806884765625;-0.062744140625;-0.58001708984375;-0.09326171875;2.2451651086424618;16.211252445072567;10.662693479755061;0.943359375;0.2890625;-0.26611328125;16.375;15.1875;-10.25;
1441975238395659;-0.804931640625;-0.06439208984375;-0.5823974609375;-0.09368896484375;2.2257514567756598;16.170074426457173;10.70894938737708;0.95654296875;0.27587890625;-0.25390625;7.6875;14.875;-8.125;
1441975238418661;-0.802978515625;-0.06561279296875;-0.5849609375;-0.09405517578125;2.2030828868603245;16.130418413710785;10.752184503086491;0.953125;0.24853515625;-0.2548828125;3.0;14.25;-7.3125;
1441975238441662;-0.801025390625;-0.06695556640625;-0.58746337890625;-0.09405517578125;2.1802003667309164;16.093407774474645;10.794780292386557;0.94775390625;0.2275390625;-0.23974609375;1.375;14.5625;-6.5625;
1441975238455663;-0.799072265625;-0.0679931640625;-0.5899658203125;-0.09429931640625;2.157421473874047;16.05495755976766;10.836546398073033;0.9345703125;0.2197265625;-0.2373046875;2.9375;15.25;-6.0625;
1441975238478664;-0.7972412109375;-0.06878662109375;-0.59222412109375;-0.0950927734375;2.139019683633252;16.013922701876144;10.87761460939477;0.90869140625;0.20654296875;-0.2373046875;0.625;15.6875;-6.25;
1441975238493665;-0.79534912109375;-0.06927490234375;-0.594482421875;-0.09619140625;2.120752928222598;15.970505711954283;10.918544920640288;0.89794921875;0.22021484375;-0.251953125;-2.5625;15.375;-6.1875;
1441975238515666;-0.79351806640625;-0.06951904296875;-0.5968017578125;-0.096923828125;2.099620869834939;15.931800839330299;10.955277285091613;0.90673828125;0.22802734375;-0.2529296875;-5.0625;15.5625;-5.625;
1441975238547668;-0.79156494140625;-0.06976318359375;-0.59930419921875;-0.09722900390625;2.074706301765976;15.894603305430753;10.992268073527418;0.90673828125;0.205078125;-0.25341796875;-4.875;16.125;-4.75;
1441975238561669;-0.78973388671875;-0.0704345703125;-0.60174560546875;-0.09661865234375;2.048591044369016;15.864825574179681;11.0273711588083;0.8857421875;0.197265625;-0.23046875;-2.75;16.75;-3.25;
1441975238575669;-0.78778076171875;-0.07098388671875;-0.60430908203125;-0.09613037109375;2.021291917821708;15.831823233442181;11.064689857956981;0.875;0.20166015625;-0.2314453125;2.8125;17.5;-1.875;
1441975238598671;-0.78594970703125;-0.07086181640625;-0.6068115234375;-0.0958251953125;1.9926029664493905;15.801757997133398;11.095557990170537;0.8798828125;0.22021484375;-0.23486328125;1.875;18.4375;0.0625;
1441975238613672;-0.78411865234375;-0.0699462890625;-0.6092529296875;-0.0958251953125;1.9618693712919701;15.773263952400105;11.120333586945778;0.90576171875;0.251953125;-0.26025390625;-1.125;19.4375;3.5;
1441975238635673;-0.7823486328125;-0.06829833984375;-0.6116943359375;-0.0955810546875;1.9261491037647505;15.751949720446326;11.135931434045322;0.92041015625;0.2509765625;-0.267578125;-5.1875;19.0625;6.25;
1441975238658674;-0.78082275390625;-0.06597900390625;-0.61407470703125;-0.0948486328125;1.885560200460431;15.742487958007988;11.138946210387633;0.91552734375;0.244140625;-0.24658203125;-6.6875;17.625;10.0;
1441975238673675;-0.77935791015625;-0.063232421875;-0.6163330078125;-0.0936279296875;1.841030421523057;15.742821068659522;11.13241928425288;0.92138671875;0.21826171875;-0.234375;-7.0;15.625;13.5625;
1441975238695676;-0.77801513671875;-0.0601806640625;-0.61859130859375;-0.09197998046875;1.7929997274247405;15.75155043495705;11.118015406346599;0.92333984375;0.212890625;-0.2255859375;-6.1875;14.9375;16.875;
1441975238718678;-0.77679443359375;-0.05682373046875;-0.6207275390625;-0.09063720703125;1.746401912471728;15.761902977873232;11.09949515292059;0.93310546875;0.2138671875;-0.2275390625;-4.9375;14.625;20.0;
1441975238733679;-0.77569580078125;-0.052734375;-0.62249755859375;-0.08978271484375;1.7016342369092519;15.777538989644643;11.070678217539513;0.93994140625;0.22412109375;-0.21728515625;-7.25;13.125;21.8125;
1441975238755680;-0.7745361328125;-0.04791259765625;-0.6243896484375;-0.08966064453125;1.6557561243076093;15.789642249715724;11.039421078841855;0.94580078125;0.22119140625;-0.2333984375;-12.0;11.6875;22.75;
1441975238786682;-0.77313232421875;-0.0426025390625;-0.62640380859375;-0.09051513671875;1.6104934877637433;15.791187932548866;11.012738678743782;0.94970703125;0.19482421875;-0.22314453125;-18.25;11.5;22.5;
1441975238793682;-0.7716064453125;-0.0369873046875;-0.62841796875;-0.09222412109375;1.5675497343725315;15.78389644152536;10.990164939706217;0.92626953125;0.17724609375;-0.21435546875;-24.5;12.375;20.25;
1441975238815683;-0.77008056640625;-0.03118896484375;-0.63018798828125;-0.0946044921875;1.5288787981135374;15.77223055341767;10.968464827266944;0.8837890625;0.15380859375;-0.205078125;-29.6875;12.875;18.1875;
1441975238838685;-0.768310546875;-0.02520751953125;-0.63214111328125;-0.0975341796875;1.4895983546057077;15.750620257069766;10.95373698492722;0.8544921875;0.13427734375;-0.2119140625;-33.8125;12.9375;15.8125;
1441975238853685;-0.76666259765625;-0.0196533203125;-0.63397216796875;-0.099853515625;1.4507939526554574;15.73576186454012;10.93652097012341;0.84814453125;0.12939453125;-0.19580078125;-36.625;13.375;14.5;
1441975238875687;-0.76495361328125;-0.01519775390625;-0.635986328125;-0.10113525390625;1.4108269507640268;15.721907602006919;10.927064222717606;0.86083984375;0.115234375;-0.2041015625;-32.4375;13.9375;13.875;
1441975238898688;-0.76324462890625;-0.0120849609375;-0.6380615234375;-0.10162353515625;1.3735178756195312;15.704696368447028;10.929700606396064;0.869140625;0.1025390625;-0.205078125;-24.5;15.8125;12.25;
1441975238921689;-0.76165771484375;-0.009765625;-0.639892578125;-0.10174560546875;1.3409019718605943;15.688104597161024;10.936417031467071;0.87255859375;0.11669921875;-0.197265625;-15.6875;16.6875;10.5;
1441975238935690;-0.76019287109375;-0.00762939453125;-0.64166259765625;-0.1021728515625;1.3119893190217227;15.666539490132147;10.947632529342966;0.8681640625;0.126953125;-0.19140625;-10.875;15.6875;9.0;
1441975238958691;-0.7587890625;-0.00482177734375;-0.6431884765625;-0.10308837890625;1.2839993643352576;15.648061871324693;10.950999573501269;0.8720703125;0.14892578125;-0.185546875;-11.125;14.875;8.75;
1441975238974692;-0.75726318359375;-0.001220703125;-0.64471435546875;-0.1048583984375;1.255642096715584;15.62336336772391;10.953860834882871;0.89453125;0.1572265625;-0.193359375;-16.0625;14.125;10.1875;
1441975238995694;-0.7559814453125;0.0028076171875;-0.645751953125;-0.1072998046875;1.233066736759234;15.601957542368885;10.948901200621314;0.91015625;0.14990234375;-0.17724609375;-22.0625;12.5;10.0625;
1441975239020695;-0.75494384765625;0.0072021484375;-0.646484375;-0.11029052734375;1.2146844999132753;15.583102648676594;10.93766278695132;0.92529296875;0.1357421875;-0.166015625;-27.0625;9.0625;8.25;
1441975239041696;-0.754150390625;0.01141357421875;-0.64678955078125;-0.113525390625;1.2027148981152453;15.566957472448536;10.923414171581111;0.94189453125;0.11181640625;-0.15673828125;-30.1875;5.625;5.5;
1441975239057697;-0.75372314453125;0.01519775390625;-0.64666748046875;-0.11663818359375;1.1971367588291926;15.558230930584028;10.90395874671458;0.9521484375;0.0869140625;-0.14697265625;-31.1875;2.625;2.125;
1441975239094699;-0.75372314453125;0.01861572265625;-0.64593505859375;-0.12005615234375;1.2014884761877156;15.55397921237795;10.880206344966055;0.95947265625;0.07080078125;-0.15185546875;-28.75;0.0625;-0.875;
1441975239101700;-0.75408935546875;0.0220947265625;-0.64459228515625;-0.1241455078125;1.2150757386830737;15.552350473906772;10.850757848464397;0.9521484375;0.06982421875;-0.14794921875;-28.25;-4.125;-4.375;
1441975239123701;-0.7547607421875;0.02587890625;-0.642822265625;-0.12872314453125;1.2340245861141894;15.555604651228927;10.813150122975076;0.96142578125;0.09521484375;-0.14208984375;-31.1875;-8.8125;-5.0625;
1441975239138702;-0.75567626953125;0.02947998046875;-0.64056396484375;-0.13372802734375;1.2608491402863806;15.558413076322019;10.774876009758575;0.97021484375;0.076171875;-0.14697265625;-34.625;-11.875;-7.6875;
1441975239161703;-0.7569580078125;0.03253173828125;-0.637939453125;-0.13824462890625;1.2925314810852067;15.570420226549153;10.73158493101208;0.97900390625;0.0771484375;-0.14501953125;-35.4375;-15.0;-10.75;
1441975239175704;-0.75860595703125;0.03521728515625;-0.63494873046875;-0.1422119140625;1.327880407823744;15.593800605785589;10.68060605018205;1.0029296875;0.0869140625;-0.15771484375;-30.875;-17.4375;-11.5;
1441975239207706;-0.7603759765625;0.03759765625;-0.6317138671875;-0.146484375;1.368944465613229;15.61130018610274;10.635423350358138;1.0380859375;0.0712890625;-0.189453125;-27.6875;-18.625;-13.125;
1441975239221706;-0.76251220703125;0.04052734375;-0.6279296875;-0.15081787109375;1.4134101841568822;15.641490870622057;10.574956618729084;1.04345703125;0.1025390625;-0.17041015625;-27.5625;-21.75;-13.8125;
1441975239235707;-0.76470947265625;0.04486083984375;-0.623779296875;-0.15570068359375;1.4566223871638682;15.6798047467746;10.498266104564577;1.03759765625;0.13330078125;-0.189453125;-29.5;-24.875;-10.8125;
1441975239267709;-0.76678466796875;0.0494384765625;-0.61956787109375;-0.16070556640625;1.4994640186454546;15.71492725082638;10.423141788685616;1.037109375;0.08935546875;-0.20068359375;-37.1875;-27.75;-10.0;
1441975239281710;-0.76885986328125;0.05322265625;-0.61541748046875;-0.16552734375;1.545344202158317;15.740983071008646;10.361027809035805;1.00927734375;0.05029296875;-0.18798828125;-39.375;-28.9375;-11.75;
1441975239295711;-0.77093505859375;0.05682373046875;-0.6112060546875;-0.170166015625;1.5920344191810465;15.765718303569816;10.30163569479502;0.9814453125;0.0595703125;-0.18408203125;-35.8125;-28.125;-14.0;
1441975239326712;-0.772705078125;0.060791015625;-0.607177734375;-0.17498779296875;1.6349595328712643;15.78509589617014;10.245262680454289;0.95458984375;0.07763671875;-0.20068359375;-33.9375;-27.3125;-12.9375;
1441975239341713;-0.77423095703125;0.06500244140625;-0.603515625;-0.17950439453125;1.671438807023278;15.804303910558122;10.189353250759392;0.9296875;0.08984375;-0.2001953125;-36.3125;-26.3125;-10.625;
1441975239355714;-0.775634765625;0.06842041015625;-0.600341796875;-0.18280029296875;1.70215471089631;15.826419222568212;10.138892019720842;0.91845703125;0.076171875;-0.19091796875;-35.75;-24.875;-8.875;
1441975239378715;-0.7767333984375;0.07135009765625;-0.59783935546875;-0.18524169921875;1.7247755599794776;15.847185255094871;10.095442735529149;0.90966796875;0.076171875;-0.19287109375;-27.9375;-21.5625;-7.6875;
1441975239401717;-0.77764892578125;0.07366943359375;-0.59588623046875;-0.1866455078125;1.740724952126785;15.870256189002427;10.056591407248742;0.90771484375;0.0712890625;-0.19580078125;-22.3125;-17.9375;-6.6875;
1441975239417718;-0.778564453125;0.075439453125;-0.5943603515625;-0.1871337890625;1.7522349494150826;15.897092281299855;10.020194634887371;0.9248046875;0.08447265625;-0.1962890625;-15.5;-15.0;-4.4375;
1441975239439719;-0.77899169921875;0.07720947265625;-0.59344482421875;-0.18731689453125;1.7550561963885638;15.920234210870143;9.988812789564145;0.9375;0.09130859375;-0.1953125;-9.3125;-13.1875;-3.125;
1441975239461720;-0.77886962890625;0.07928466796875;-0.593017578125;-0.1883544921875;1.7528720740018264;15.92768952319359;9.968402126813668;0.94384765625;0.1044921875;-0.1708984375;-7.4375;-11.0625;-0.1875;
1441975239483721;-0.7783203125;0.0823974609375;-0.59271240234375;-0.1903076171875;1.746326239850669;15.928861044800566;9.946180300395834;0.9365234375;0.14990234375;-0.1357421875;-11.625;-9.125;2.375;
1441975239498722;-0.77752685546875;0.08612060546875;-0.59246826171875;-0.19256591796875;1.7364452379016813;15.929713499401796;9.920455707340148;0.912109375;0.14599609375;-0.11279296875;-19.1875;-8.625;4.375;
1441975239524724;-0.77630615234375;0.08978271484375;-0.59283447265625;-0.194580078125;1.7184789825278808;15.92660929586087;9.900070987380598;0.869140625;0.09521484375;-0.11083984375;-23.75;-7.6875;3.375;
1441975239543725;-0.77508544921875;0.09222412109375;-0.59375;-0.195556640625;1.6973128748079604;15.922544062848973;9.890173910338891;0.841796875;0.044921875;-0.083984375;-23.3125;-4.8125;2.0;
1441975239558726;-0.7738037109375;0.09375;-0.59503173828125;-0.19610595703125;1.67508071577154;15.912535475451518;9.891866509173411;0.81884765625;0.044921875;-0.09375;-13.875;-0.4375;1.125;
1441975239589727;-0.7724609375;0.09527587890625;-0.5963134765625;-0.19671630859375;1.652727797040844;15.90105063520131;9.894743982190604;0.80859375;0.08349609375;-0.10498046875;-8.6875;3.3125;1.8125;
1441975239603728;-0.77081298828125;0.09661865234375;-0.59814453125;-0.19720458984375;1.6245007057386287;15.88319015073845;9.905432702142944;0.8359375;0.11962890625;-0.11572265625;-8.625;4.25;3.625;
1441975239619729;-0.76885986328125;0.09661865234375;-0.60076904296875;-0.19659423828125;1.5897680293484249;15.858671924224426;9.932968388259422;0.88134765625;0.10400390625;-0.11279296875;-7.5;7.4375;2.5;
1441975239633730;-0.76708984375;0.09503173828125;-0.6038818359375;-0.19488525390625;1.5550080753869737;15.830032424356798;9.975934873107445;0.90185546875;0.07373046875;-0.09228515625;1.625;11.375;-0.5;
1441975239663732;-0.76519775390625;0.09332275390625;-0.607177734375;-0.19287109375;1.5176638716538067;15.800529885808897;10.0215117589285;0.91162109375;0.1162109375;-0.095703125;13.0;14.8125;-0.5625;
1441975239679733;-0.76336669921875;0.09161376953125;-0.6104736328125;-0.19061279296875;1.4799118471507786;15.773401606797092;10.065727444389996;0.97021484375;0.1728515625;-0.11328125;15.3125;16.625;3.1875;
1441975239701734;-0.7615966796875;0.08984375;-0.61383056640625;-0.1876220703125;1.4394404081185215;15.755087419546538;10.104388048811444;1.03564453125;0.18701171875;-0.125;16.25;16.5;4.9375;
1441975239717735;-0.7601318359375;0.0877685546875;-0.61688232421875;-0.18450927734375;1.4040723079408808;15.739140126156084;10.142374681849502;1.07470703125;0.173828125;-0.12158203125;19.8125;16.0625;5.6875;
1441975239746736;-0.7587890625;0.08599853515625;-0.61956787109375;-0.181884765625;1.372969698334852;15.7222610353998;10.177907780633156;1.0751953125;0.18310546875;-0.12158203125;21.75;14.5;5.3125;
1441975239761737;-0.7576904296875;0.08551025390625;-0.62139892578125;-0.1802978515625;1.34824610482432;15.713638459508593;10.195410715562483;1.06591796875;0.20654296875;-0.09716796875;18.6875;11.1875;6.5;
1441975239791739;-0.756591796875;0.08648681640625;-0.6229248046875;-0.17926025390625;1.3212675819154718;15.71665568520102;10.19296768751045;1.04296875;0.2265625;-0.09521484375;10.0625;6.125;9.5;
1441975239806740;-0.75543212890625;0.08770751953125;-0.62432861328125;-0.1785888671875;1.2953135778967177;15.717315416856877;10.190296938916962;1.0185546875;0.18310546875;-0.095703125;1.4375;4.0625;10.5625;
1441975239821741;-0.75445556640625;0.08892822265625;-0.6256103515625;-0.177734375;1.2705206269042992;15.724369714530146;10.182012655125112;1.015625;0.19140625;-0.09375;-1.0;3.9375;11.5625;
1441975239837742;-0.75347900390625;0.08966064453125;-0.6268310546875;-0.1771240234375;1.2495800295867951;15.721588741705036;10.184493930582176;1.01708984375;0.189453125;-0.123046875;-0.3125;4.4375;11.75;
1441975239858743;-0.75238037109375;0.0909423828125;-0.62799072265625;-0.1771240234375;1.2284802137090955;15.71472031492315;10.186281841402703;1.0390625;0.2626953125;-0.14111328125;1.125;6.625;14.0;
1441975239881744;-0.7510986328125;0.09283447265625;-0.62908935546875;-0.17779541015625;1.2068510847762854;15.702736605820899;10.187871956204354;1.0576171875;0.30029296875;-0.14404296875;-3.6875;6.5;16.4375;
1441975239912746;-0.74920654296875;0.09619140625;-0.6304931640625;-0.1788330078125;1.1740596230072011;15.694157833271385;10.178505131628196;1.076171875;0.31298828125;-0.1396484375;-8.6875;6.3125;18.0625;
1441975239918746;-0.74688720703125;0.1007080078125;-0.632080078125;-0.1805419921875;1.134866456963011;15.682922898584616;10.16430071498889;1.06787109375;0.2509765625;-0.1298828125;-16.625;8.0625;19.375;
1441975239941748;-0.7447509765625;0.1055908203125;-0.63323974609375;-0.1826171875;1.0997698224482808;15.677602587038871;10.141079764602825;1.03759765625;0.220703125;-0.10400390625;-24.0625;8.875;20.875;
1441975239955748;-0.7425537109375;0.11163330078125;-0.6337890625;-0.1859130859375;1.0687121690011656;15.673520970366166;10.106596168401733;1.00634765625;0.21484375;-0.11083984375;-27.3125;7.125;20.9375;
1441975239978750;-0.74041748046875;0.11846923828125;-0.63397216796875;-0.1895751953125;1.0386117424428603;15.681193355376003;10.05550386811726;0.99072265625;0.21484375;-0.10107421875;-36.8125;3.9375;21.125;
1441975240001751;-0.73846435546875;0.1248779296875;-0.63397216796875;-0.1929931640625;1.0119605271392975;15.693026135593588;10.002935102919409;0.97216796875;0.1611328125;-0.10986328125;-42.5;2.9375;19.5;
1441975240017752;-0.7366943359375;0.130859375;-0.63385009765625;-0.19610595703125;0.9880785477231335;15.709503178684807;9.94869463950863;0.9365234375;0.13232421875;-0.10986328125;-39.625;2.0625;17.1875;
1441975240038753;-0.7352294921875;0.13629150390625;-0.63330078125;-0.19970703125;0.9738403848587841;15.715883577760632;9.904687936954288;0.91259765625;0.125;-0.123046875;-37.0625;2.3125;15.5625;
1441975240069755;-0.73358154296875;0.1427001953125;-0.632568359375;-0.2034912109375;0.956367243559389;15.737006951484986;9.841013219844397;0.921875;0.17529296875;-0.1337890625;-36.8125;1.3125;14.8125;
1441975240083756;-0.73187255859375;0.14886474609375;-0.632080078125;-0.20697021484375;0.9366548592643902;15.75838155993371;9.779447544153959;0.91650390625;0.1298828125;-0.123046875;-41.4375;-0.5;14.9375;
1441975240099757;-0.7301025390625;0.154052734375;-0.6319580078125;-0.2095947265625;0.9146980282238627;15.777261926367252;9.72790259488633;0.92919921875;0.12646484375;-0.10693359375;-39.375;-0.4375;15.5625;
1441975240120758;-0.72821044921875;0.1585693359375;-0.63238525390625;-0.21148681640625;0.8878392355626289;15.793796087441477;9.684672712775596;0.94091796875;0.130859375;-0.10400390625;-31.5625;1.5625;15.4375;
1441975240135759;-0.72650146484375;0.162353515625;-0.6328125;-0.21331787109375;0.8649673168854962;15.80029230176519;9.654796163473204;0.962890625;0.1220703125;-0.08154296875;-25.9375;3.25;15.5625;
1441975240158760;-0.72467041015625;0.1661376953125;-0.633056640625;-0.2158203125;0.8451935175655281;15.790817708063525;9.637938109490161;0.98779296875;0.1484375;-0.0849609375;-22.4375;3.3125;14.25;
1441975240180761;-0.72174072265625;0.170166015625;-0.63421630859375;-0.218994140625;0.8127529721989314;15.741511275381969;9.657138913381493;1.009765625;0.17822265625;-0.08447265625;-25.3125;3.8125;13.75;
1441975240195762;-0.718505859375;0.1746826171875;-0.63592529296875;-0.22119140625;0.7685017393947265;15.71597384517364;9.654764131794632;1.04443359375;0.17626953125;-0.0341796875;-29.5625;8.375;14.5;
1441975240226764;-0.7154541015625;0.17877197265625;-0.63763427734375;-0.2230224609375;0.7258065441471169;15.691883257825875;9.654258132943259;1.07470703125;0.12255859375;-0.04052734375;-27.25;10.9375;17.125;
1441975240240765;-0.7120361328125;0.18157958984375;-0.63970947265625;-0.2254638671875;0.6858916308238654;15.599717425513273;9.724450075352493;1.0947265625;0.11669921875;-0.05810546875;-24.375;12.25;16.5;
1441975240255766;-0.70843505859375;0.1839599609375;-0.64154052734375;-0.2296142578125;0.6565933788005435;15.432718721339144;9.864001042657755;1.142578125;0.15771484375;-0.015625;-21.8125;14.4375;12.6875;
1441975240278767;-0.7044677734375;0.18780517578125;-0.64300537109375;-0.2347412109375;0.6269090518340105;15.261103639207874;9.997835924712824;1.18212890625;0.244140625;0.0068359375;-27.0;15.5;10.5;
1441975240300768;-0.6998291015625;0.19219970703125;-0.64508056640625;-0.2393798828125;0.5858323534316994;15.072757166633235;10.148106688819754;1.21044921875;0.19189453125;0.0087890625;-37.6875;14.75;8.5625;
1441975240323769;-0.6956787109375;0.19598388671875;-0.64703369140625;-0.2430419921875;0.5485958528190262;14.89219046353426;10.297193412547182;1.2333984375;0.13232421875;0.0322265625;-38.1875;17.5625;10.3125;
1441975240339770;-0.69207763671875;0.19976806640625;-0.64794921875;-0.2476806640625;0.5279719485913705;14.70904848934164;10.444482095022948;1.2275390625;0.13427734375;-0.0078125;-32.25;18.9375;11.0625;
1441975240369772;-0.68878173828125;0.20501708984375;-0.64715576171875;-0.2545166015625;0.5242278191677799;14.553980637597245;10.54780813786931;1.22412109375;0.19189453125;-0.03564453125;-35.75;16.125;9.4375;
1441975240375772;-0.68609619140625;0.21160888671875;-0.64404296875;-0.26416015625;0.5455556569892082;14.449331138054735;10.58253887263538;1.2421875;0.2138671875;-0.0439453125;-52.1875;9.75;5.5625;
1441975240406774;-0.684326171875;0.22222900390625;-0.637939453125;-0.274658203125;0.5674368328895332;14.545266649073215;10.395188087680822;1.15966796875;0.34130859375;-0.08251953125;-69.75;2.8125;5.625;
1441975240420775;-0.681640625;0.2330322265625;-0.63226318359375;-0.28521728515625;0.5823705393301832;14.594524957358974;10.252874403605398;1.10302734375;0.251953125;-0.21728515625;-91.375;-8.0625;6.125;
1441975240435776;-0.6798095703125;0.24163818359375;-0.62786865234375;-0.292236328125;0.5877692110377855;14.677098100566534;10.102072201524786;1.15576171875;0.17626953125;-0.1748046875;-93.125;-6.8125;2.75;
1441975240460777;-0.677978515625;0.25482177734375;-0.62054443359375;-0.30059814453125;0.5953733594103011;14.914317436155237;9.769887618729332;1.19384765625;0.12060546875;-0.2392578125;-68.9375;-2.0;4.125;
1441975240480778;-0.6778564453125;0.26275634765625;-0.61383056640625;-0.307861328125;0.6348960919234776;15.050102683335306;9.566497409279858;1.19775390625;0.029296875;-0.291015625;-94.875;-16.1875;5.625;
1441975240495779;-0.680419921875;0.253173828125;-0.6109619140625;-0.31585693359375;0.7586202015223986;14.707746320381343;9.914246655646988;1.224609375;0.0517578125;-0.0751953125;-66.625;-28.375;-11.25;
1441975240518781;-0.6649169921875;0.266845703125;-0.620361328125;-0.3193359375;0.5580676143825826;14.29046773626652;10.257884107379594;1.30810546875;0.36669921875;0.23193359375;5.875;-12.875;-59.625;
1441975240540782;-0.68194580078125;0.25653076171875;-0.60931396484375;-0.31298828125;0.7459062009080891;14.917073878504523;9.70290521487136;1.4287109375;-0.458984375;0.59765625;-72.625;25.8125;39.1875;
1441975240555783;-0.68634033203125;0.2537841796875;-0.595703125;-0.33123779296875;0.967170791396211;14.747822357734288;9.799361756779824;1.2529296875;0.62939453125;-0.75;71.6875;-46.6875;-28.125;
1441975240578784;-0.6988525390625;0.244140625;-0.58392333984375;-0.33331298828125;1.180741567649931;14.897857401461629;9.678608640285624;1.54736328125;0.5732421875;0.17724609375;-69.625;-56.875;-81.5;
1441975240600785;-0.710693359375;0.23529052734375;-0.57025146484375;-0.33837890625;1.4151437586158016;14.979755253852971;9.607728959820783;1.0771484375;0.1748046875;-0.36083984375;28.1875;-49.875;-87.125;
1441975240615786;-0.7215576171875;0.224609375;-0.560302734375;-0.339111328125;1.607762956261691;15.044215660862198;9.5819503657358;1.14892578125;0.46240234375;-0.2734375;12.6875;-61.5625;-80.75;
1441975240654788;-0.73345947265625;0.21209716796875;-0.54888916015625;-0.34033203125;1.8287801382674838;15.095162945956515;9.574224142453401;1.25732421875;0.326171875;-0.29736328125;37.875;-46.6875;-78.8125;
1441975240660789;-0.74468994140625;0.197265625;-0.53912353515625;-0.3404541015625;2.040656819788805;15.120723652520311;9.606660136973016;1.232421875;0.4921875;-0.427734375;41.375;-45.4375;-83.1875;
1441975240675790;-0.75286865234375;0.18359375;-0.53271484375;-0.3402099609375;2.2027033102409717;15.120200079578145;9.662983886558383;1.23486328125;0.46875;-0.36669921875;54.625;-39.1875;-89.75;
1441975240698791;-0.75830078125;0.1695556640625;-0.52996826171875;-0.33978271484375;2.323505599114425;15.086122918992311;9.756659009602867;1.1953125;0.40380859375;-0.32666015625;50.5;-21.8125;-79.5625;
1441975240720792;-0.76165771484375;0.15704345703125;-0.52880859375;-0.340087890625;2.4177175780735363;15.0380235930708;9.855138873650645;1.189453125;0.470703125;-0.2490234375;53.5;-3.125;-67.9375;
1441975240735793;-0.762939453125;0.150146484375;-0.52825927734375;-0.34124755859375;2.471245114870351;15.000425199060984;9.916032612219842;1.1240234375;0.5087890625;-0.2177734375;44.25;6.8125;-56.1875;
1441975240758794;-0.7642822265625;0.144775390625;-0.5279541015625;-0.341064453125;2.509125115925764;14.984151958207557;9.955381313442304;1.0712890625;0.4423828125;-0.193359375;19.125;4.875;-35.0;
1441975240780796;-0.76605224609375;0.1392822265625;-0.52862548828125;-0.3382568359375;2.5304757699887483;14.989452438114464;9.985908940804624;1.0673828125;0.38232421875;-0.23974609375;18.9375;4.5;-27.6875;
1441975240795796;-0.76763916015625;0.13323974609375;-0.5308837890625;-0.33343505859375;2.5328146190699115;15.000748619188592;10.022463706657485;1.087890625;0.2685546875;-0.2216796875;31.1875;4.0625;-27.1875;
1441975240834799;-0.76995849609375;0.124755859375;-0.5328369140625;-0.3282470703125;2.5528546392990155;15.009566490799081;10.073094929087468;1.12890625;0.26318359375;-0.2080078125;42.6875;9.0625;-21.5625;
1441975240840799;-0.77130126953125;0.11419677734375;-0.5345458984375;-0.326171875;2.5970331400153577;14.976263740347484;10.160179911894716;1.16748046875;0.29736328125;-0.216796875;53.3125;9.75;-31.375;
1441975240856800;-0.77325439453125;0.1021728515625;-0.53424072265625;-0.32598876953125;2.6774860712650725;14.93744024206912;10.249367912171952;1.103515625;0.28076171875;-0.19970703125;43.8125;17.625;-49.9375;
1441975240878801;-0.77691650390625;0.08892822265625;-0.53350830078125;-0.32244873046875;2.7596319856736335;14.93796182969737;10.31919312246284;0.9443359375;0.42529296875;-0.2958984375;39.4375;19.25;-53.875;
1441975240910803;-0.7786865234375;0.078125;-0.53692626953125;-0.315185546875;2.770360695305001;14.945899533243587;10.38966456374058;0.8291015625;0.31201171875;-0.259765625;60.25;11.5;-55.625;
1441975240916803;-0.7813720703125;0.06475830078125;-0.54034423828125;-0.3056640625;2.7885249826237204;14.967926376068508;10.466475115220286;0.92431640625;0.17822265625;-0.11083984375;69.8125;18.75;-35.9375;
1441975240938805;-0.78460693359375;0.05023193359375;-0.54071044921875;-0.2994384765625;2.8546405924946883;14.980148577060813;10.541846066203197;1.02294921875;0.40380859375;-0.19921875;90.875;22.5625;-29.625;
1441975240960806;-0.78692626953125;0.038330078125;-0.540283203125;-0.29571533203125;2.919911165614225;14.982585774300796;10.604679874373621;0.9345703125;0.50146484375;-0.22607421875;80.25;13.0625;-42.6875;
1441975240977807;-0.78955078125;0.027099609375;-0.53900146484375;-0.292236328125;2.9895701569121518;14.993212078857512;10.655243569029894;0.82373046875;0.40087890625;-0.1494140625;60.0;5.3125;-43.5;
1441975240997808;-0.79248046875;0.015625;-0.5377197265625;-0.28753662109375;3.0551408694177384;15.01480199388337;10.701317540526603;0.765625;0.37646484375;-0.158203125;56.3125;0.625;-42.8125;
1441975241020809;-0.79541015625;0.00439453125;-0.53662109375;-0.28192138671875;3.1126620243134075;15.043402301470422;10.743500770549657;0.7255859375;0.37841796875;-0.1611328125;63.25;0.375;-39.5625;
1441975241045811;-0.79638671875;-0.00341796875;-0.53680419921875;-0.27880859375;3.1462149854719543;15.04678271790219;10.78610197957062;0.68994140625;0.42041015625;-0.1767578125;66.875;1.625;-31.8125;
1441975241066812;-0.796142578125;-0.00982666015625;-0.5380859375;-0.27685546875;3.165334375207223;15.033721840225896;10.834528865142962;0.67578125;0.39697265625;-0.15625;42.25;7.0;-23.6875;
1441975241082813;-0.7974853515625;-0.0177001953125;-0.53826904296875;-0.2720947265625;3.1914743814569304;15.051460083206607;10.870254495233661;0.615234375;0.39453125;-0.09765625;32.625;10.9375;-16.9375;
1441975241096814;-0.7984619140625;-0.02362060546875;-0.53863525390625;-0.26806640625;3.2067625084517806;15.066672740045693;10.897296830145079;0.56787109375;0.3720703125;-0.1806640625;49.4375;9.1875;-16.625;
1441975241126815;-0.79779052734375;-0.0289306640625;-0.54071044921875;-0.26544189453125;3.208348255759642;15.05552818805865;10.942407000946941;0.63916015625;0.3984375;-0.17822265625;40.125;6.6875;-10.8125;
1441975241148817;-0.7967529296875;-0.03692626953125;-0.54376220703125;-0.26129150390625;3.210434326951664;15.0403843763374;11.009449590157983;0.79296875;0.43310546875;-0.1123046875;31.625;11.25;-12.6875;
1441975241164818;-0.796142578125;-0.04388427734375;-0.5460205078125;-0.25732421875;3.2142098760204;15.033508678466674;11.062901125741384;0.7001953125;0.31298828125;-0.14111328125;43.4375;25.3125;-23.125;
1441975241180818;-0.79669189453125;-0.05035400390625;-0.54632568359375;-0.25360107421875;3.2335126116194557;15.04362424104731;11.09581371810233;0.55810546875;0.26416015625;-0.1826171875;37.5;23.375;-18.3125;
1441975241200820;-0.79791259765625;-0.0577392578125;-0.5455322265625;-0.25;3.2688719515123044;15.060562150915155;11.125006397621632;0.56591796875;0.333984375;-0.1943359375;38.0;10.75;-15.75;
1441975241216821;-0.799072265625;-0.06561279296875;-0.54425048828125;-0.2471923828125;3.3150126672607803;15.073465581149893;11.156721955669028;0.62353515625;0.39111328125;-0.1865234375;43.0;2.9375;-20.4375;
1441975241240822;-0.7996826171875;-0.07525634765625;-0.54266357421875;-0.2459716796875;3.3821286976466487;15.070800167115838;11.204421076366431;0.650390625;0.42333984375;-0.2021484375;41.4375;1.5625;-25.3125;
1441975241260823;-0.7999267578125;-0.08563232421875;-0.54083251953125;-0.24566650390625;3.460132751644392;15.061036408990692;11.25829654341355;0.65869140625;0.52294921875;-0.19140625;41.375;2.6875;-33.4375;
1441975241277824;-0.8001708984375;-0.093994140625;-0.53900146484375;-0.24591064453125;3.5286453990824524;15.05326276901365;11.299537282391759;0.6259765625;0.5693359375;-0.205078125;39.6875;4.375;-37.5625;
1441975241298825;-0.80010986328125;-0.10003662109375;-0.53778076171875;-0.246337890625;3.5784499715884754;15.044904663042985;11.331033050478869;0.58837890625;0.50439453125;-0.19580078125;29.6875;1.4375;-33.4375;
1441975241320827;-0.8006591796875;-0.10711669921875;-0.536376953125;-0.24468994140625;3.6253659250223897;15.051983789076793;11.360543373924518;0.5859375;0.44873046875;-0.17822265625;20.5;0.25;-25.75;
1441975241336827;-0.8017578125;-0.11614990234375;-0.5340576171875;-0.24200439453125;3.686224713034799;15.069689278120672;11.392084563212057;0.60791015625;0.4560546875;-0.22021484375;32.875;2.1875;-24.9375;
1441975241358829;-0.80328369140625;-0.12579345703125;-0.53057861328125;-0.2398681640625;3.7631652351836875;15.091343752621484;11.41984012494327;0.60888671875;0.51025390625;-0.24658203125;45.375;0.625;-28.9375;
1441975241380830;-0.80352783203125;-0.13409423828125;-0.5283203125;-0.23956298828125;3.830949813002942;15.092237351368254;11.454983565547098;0.5986328125;0.56884765625;-0.2939453125;46.0;-2.9375;-31.75;
1441975241396831;-0.80316162109375;-0.13983154296875;-0.52703857421875;-0.24017333984375;3.879718458910755;15.084471626843577;11.484142639801625;0.5888671875;0.548828125;-0.2431640625;32.125;0.375;-31.8125;
1441975241417832;-0.80328369140625;-0.14453125;-0.5245361328125;-0.24249267578125;3.9418025292372345;15.077163806065418;11.500894452939686;0.57958984375;0.49169921875;-0.2236328125;17.75;1.375;-25.0;
1441975241440833;-0.8035888671875;-0.150634765625;-0.52093505859375;-0.2454833984375;4.0251417607686415;15.070708665094344;11.519697699453836;0.5771484375;0.54248046875;-0.29736328125;7.25;-4.8125;-24.5625;
1441975241464835;-0.80364990234375;-0.1563720703125;-0.51763916015625;-0.24871826171875;4.105073809585875;15.061286806927896;11.538917479393476;0.5791015625;0.5751953125;-0.27880859375;10.875;-10.3125;-33.375;
1441975241477835;-0.80450439453125;-0.16131591796875;-0.5133056640625;-0.251708984375;4.187208948222173;15.06306848937691;11.544534950157024;0.5517578125;0.55224609375;-0.2373046875;8.75;-10.875;-33.375;
1441975241500837;-0.80560302734375;-0.1644287109375;-0.50860595703125;-0.2557373046875;4.266881435880014;15.064020959522773;11.538538188786626;0.541015625;0.529296875;-0.330078125;5.625;-14.125;-31.0625;
1441975241516838;-0.80682373046875;-0.166015625;-0.50384521484375;-0.26031494140625;4.340729517923219;15.064245367528885;11.52423507796584;0.544921875;0.57373046875;-0.35986328125;-4.0625;-19.0;-24.4375;
1441975241538839;-0.808349609375;-0.16680908203125;-0.4986572265625;-0.264892578125;4.413119487719606;15.068153291252615;11.502678614355757;0.58740234375;0.54931640625;-0.37158203125;-11.5625;-23.0625;-22.75;
1441975241560840;-0.81024169921875;-0.16717529296875;-0.4931640625;-0.2691650390625;4.4838433129971484;15.076538442131659;11.476041472925425;0.58984375;0.51318359375;-0.40380859375;-15.6875;-26.3125;-21.875;
1441975241576841;-0.81256103515625;-0.166748046875;-0.4873046875;-0.2730712890625;4.550914401491684;15.090381656523089;11.442005320447894;0.58837890625;0.50830078125;-0.41259765625;-14.875;-29.125;-20.1875;
1441975241598842;-0.81488037109375;-0.16534423828125;-0.48187255859375;-0.2767333984375;4.607473510863665;15.104018845512272;11.40502402779965;0.60888671875;0.52392578125;-0.4423828125;-14.875;-32.1875;-15.875;
1441975241620844;-0.81689453125;-0.16351318359375;-0.47698974609375;-0.2802734375;4.6562931929621705;15.114639688458093;11.369719234573608;0.6748046875;0.50439453125;-0.43212890625;-17.25;-34.6875;-14.375;
1441975241642845;-0.8194580078125;-0.15972900390625;-0.4720458984375;-0.28326416015625;4.691436995837192;15.132052529589519;11.321563189086818;0.6630859375;0.47412109375;-0.39306640625;-17.8125;-33.75;-13.0;
1441975241659846;-0.82171630859375;-0.154296875;-0.4686279296875;-0.285400390625;4.699800981245263;15.148191476384019;11.271654138297334;0.63623046875;0.40869140625;-0.4384765625;-23.0625;-35.875;-3.5625;
1441975241680847;-0.82476806640625;-0.15087890625;-0.46441650390625;-0.285400390625;4.716785321606521;15.179924351414792;11.224371870658327;0.69970703125;0.380859375;-0.412109375;-25.0;-32.625;4.125;
1441975241704848;-0.82757568359375;-0.1494140625;-0.46014404296875;-0.2850341796875;4.744419495888594;15.210526389440531;11.188262013455965;0.7080078125;0.44140625;-0.48681640625;-8.75;-30.5;2.5;
1441975241718849;-0.8299560546875;-0.14862060546875;-0.4560546875;-0.284912109375;4.775733528685915;15.236329002384025;11.158708136931862;0.70556640625;0.5;-0.49658203125;-0.625;-26.9375;-3.0625;
1441975241740851;-0.83251953125;-0.14837646484375;-0.45166015625;-0.28460693359375;4.812516784106723;15.263994826327377;11.130455420140429;0.6875;0.52001953125;-0.49658203125;-0.125;-23.6875;-5.375;
1441975241765852;-0.83489990234375;-0.14801025390625;-0.4478759765625;-0.2838134765625;4.841143061086036;15.291261021846736;11.104418569483457;0.67138671875;0.513671875;-0.50634765625;2.8125;-24.3125;-7.8125;
1441975241778853;-0.83740234375;-0.148193359375;-0.4443359375;-0.28192138671875;4.86589170717037;15.323337905833935;11.081031125768781;0.6640625;0.47705078125;-0.45556640625;5.1875;-23.3125;-6.25;
1441975241800854;-0.83990478515625;-0.14892578125;-0.44061279296875;-0.2799072265625;4.895095934262502;15.355832462172723;11.060132311747147;0.662109375;0.49072265625;-0.44921875;12.6875;-21.1875;-5.0625;
1441975241823855;-0.84197998046875;-0.1494140625;-0.4373779296875;-0.278564453125;4.9217872078479425;15.381363847101166;11.042191644715672;0.65625;0.52392578125;-0.46630859375;16.125;-21.0625;-5.6875;
1441975241840856;-0.84375;-0.1497802734375;-0.4345703125;-0.27728271484375;4.944188387582142;15.40394664245602;11.026456714173253;0.662109375;0.5537109375;-0.4521484375;12.6875;-19.625;-5.125;
1441975241860857;-0.8455810546875;-0.14996337890625;-0.43212890625;-0.27545166015625;4.9600260833305665;15.428687375299287;11.01039002081303;0.66796875;0.5458984375;-0.44775390625;11.5;-17.75;-4.4375;
1441975241883859;-0.84722900390625;-0.14959716796875;-0.43048095703125;-0.27325439453125;4.964110856823638;15.452780123903457;10.994430872851254;0.65966796875;0.53857421875;-0.45166015625;13.4375;-16.125;-1.8125;
1441975241899860;-0.848388671875;-0.14910888671875;-0.4295654296875;-0.27130126953125;4.961749531054817;15.471494560332303;10.982328658454943;0.68310546875;0.52734375;-0.45166015625;12.6875;-13.1875;1.5;
1441975241920861;-0.8494873046875;-0.14825439453125;-0.42901611328125;-0.26904296875;4.952747192311021;15.490998651692882;10.969292646438324;0.68701171875;0.5400390625;-0.4404296875;11.0;-9.75;2.8125;
1441975241942862;-0.85028076171875;-0.14727783203125;-0.4290771484375;-0.26702880859375;4.938557543539025;15.506275631632278;10.958980167891822;0.68212890625;0.52197265625;-0.46435546875;9.8125;-6.875;5.5;
1441975241959863;-0.8509521484375;-0.1468505859375;-0.42926025390625;-0.264892578125;4.925571521741065;15.520792311655574;10.952401476726688;0.68701171875;0.49853515625;-0.45849609375;7.125;-4.125;5.3125;
1441975241980864;-0.8514404296875;-0.146728515625;-0.42962646484375;-0.2626953125;4.912063654037592;15.534072238885729;10.948675499275613;0.681640625;0.4853515625;-0.455078125;8.25;-2.5625;2.875;
1441975241996865;-0.85205078125;-0.14654541015625;-0.42987060546875;-0.260498046875;4.899546621698787;15.548298879563863;10.943722290471086;0.66796875;0.4619140625;-0.4541015625;8.875;-0.0625;1.25;
1441975242019866;-0.8525390625;-0.146484375;-0.42987060546875;-0.25885009765625;4.892242570567025;15.55958913085635;10.939659712623406;0.67236328125;0.46337890625;-0.48779296875;7.4375;0.4375;1.5;
1441975242041868;-0.8531494140625;-0.14617919921875;-0.42950439453125;-0.25775146484375;4.8897083315446235;15.569662178919858;10.93319903794758;0.67724609375;0.51708984375;-0.50537109375;6.5625;-0.375;1.75;
1441975242056869;-0.85345458984375;-0.144775390625;-0.42962646484375;-0.2572021484375;4.879082964014543;15.575403359151014;10.923835700836904;0.68310546875;0.5322265625;-0.55224609375;2.4375;-1.0;1.75;
1441975242085870;-0.853759765625;-0.14337158203125;-0.429931640625;-0.25640869140625;4.865727683303843;15.582009101922734;10.914763472525806;0.701171875;0.51025390625;-0.56640625;-4.875;-0.125;4.3125;
1441975242100871;-0.85418701171875;-0.1427001953125;-0.43017578125;-0.25506591796875;4.85448707477019;15.591464962483707;10.908541508151215;0.69384765625;0.4716796875;-0.57568359375;-5.625;1.5625;3.9375;
1441975242118872;-0.85467529296875;-0.14300537109375;-0.42999267578125;-0.25360107421875;4.851751385583406;15.601876036396925;10.90608383377813;0.67919921875;0.4501953125;-0.568359375;-1.375;2.6875;1.5625;
1441975242146874;-0.85528564453125;-0.14385986328125;-0.42950439453125;-0.25189208984375;4.853704997474742;15.614347392852878;10.905008768269523;0.658203125;0.4521484375;-0.58544921875;1.8125;3.6875;-2.25;
1441975242160875;-0.85589599609375;-0.1453857421875;-0.4288330078125;-0.24993896484375;4.85965794763308;15.62787724196883;10.906866207061844;0.6376953125;0.43798828125;-0.59228515625;4.0;3.6875;-4.75;
1441975242176875;-0.8565673828125;-0.14794921875;-0.42803955078125;-0.24755859375;4.870230905196775;15.643039623122013;10.91357186434691;0.626953125;0.42919921875;-0.58935546875;7.25;3.9375;-7.5;
1441975242199877;-0.85711669921875;-0.1512451171875;-0.42718505859375;-0.24505615234375;4.88429028529886;15.657656131222295;10.9245723072652;0.607421875;0.4365234375;-0.578125;12.9375;5.1875;-10.75;
1441975242228878;-0.8577880859375;-0.15478515625;-0.42608642578125;-0.24237060546875;4.901063976285136;15.674199780249705;10.93553518029027;0.59521484375;0.44970703125;-0.5634765625;16.375;5.75;-12.75;
1441975242242879;-0.8583984375;-0.15850830078125;-0.4246826171875;-0.24029541015625;4.924162532638502;15.687703168985578;10.947571243388323;0.6015625;0.4638671875;-0.58642578125;18.3125;5.3125;-13.75;
1441975242259880;-0.85906982421875;-0.1622314453125;-0.4232177734375;-0.2381591796875;4.947543908261606;15.701976430637103;10.959155354689155;0.61572265625;0.49072265625;-0.578125;17.1875;2.5625;-15.6875;
1441975242280881;-0.85968017578125;-0.1661376953125;-0.421630859375;-0.23602294921875;4.972732472670398;15.71619543913119;10.971611305090988;0.626953125;0.46923828125;-0.56787109375;17.25;0.6875;-17.3125;
1441975242302883;-0.86029052734375;-0.17022705078125;-0.41986083984375;-0.23394775390625;5.000676267645104;15.730416525536274;10.9846236880732;0.63037109375;0.4677734375;-0.55126953125;18.8125;-0.375;-18.4375;
1441975242319884;-0.86077880859375;-0.1741943359375;-0.41827392578125;-0.2320556640625;5.026917496403805;15.742788190797922;10.998195811009722;0.64013671875;0.50244140625;-0.56201171875;19.75;-1.6875;-18.6875;
1441975242340885;-0.86126708984375;-0.17779541015625;-0.4166259765625;-0.23046875;5.053210724425784;15.75409443816954;11.0098723039034;0.671875;0.55029296875;-0.56982421875;20.5;-1.875;-17.625;
1441975242363886;-0.86181640625;-0.18096923828125;-0.414794921875;-0.2293701171875;5.081355118015353;15.76393275718653;11.018942545702284;0.66552734375;0.5595703125;-0.5595703125;18.6875;-3.5625;-16.3125;
1441975242379887;-0.8624267578125;-0.18389892578125;-0.41253662109375;-0.228759765625;5.11447538605995;15.77282147826658;11.02566082482139;0.64111328125;0.5302734375;-0.5283203125;15.8125;-6.25;-16.0;
1441975242400888;-0.86309814453125;-0.1866455078125;-0.41009521484375;-0.2283935546875;5.149558421881068;15.781309052257072;11.030885211329641;0.5947265625;0.4892578125;-0.49169921875;13.375;-9.8125;-16.625;
1441975242422890;-0.8638916015625;-0.18902587890625;-0.4073486328125;-0.22845458984375;5.187775973177272;15.789124468454187;11.033224236684244;0.5771484375;0.48583984375;-0.46923828125;13.0;-11.875;-16.125;
1441975242439891;-0.864501953125;-0.190673828125;-0.4046630859375;-0.2293701171875;5.225534670476176;15.792159961939461;11.033201804663632;0.57861328125;0.53857421875;-0.50634765625;10.9375;-13.3125;-13.6875;
1441975242460892;-0.86492919921875;-0.19158935546875;-0.40252685546875;-0.2308349609375;5.257016085654164;15.79067103396593;11.031974545964088;0.60546875;0.5849609375;-0.51953125;6.1875;-15.625;-11.125;
1441975242483893;-0.86529541015625;-0.1922607421875;-0.40057373046875;-0.2322998046875;5.285524796156495;15.78870749746246;11.030128063220008;0.62158203125;0.587890625;-0.5224609375;1.0625;-14.375;-9.625;
1441975242499894;-0.8656005859375;-0.19256591796875;-0.39892578125;-0.23382568359375;5.309645894464866;15.785692409100216;11.027425600888645;0.6142578125;0.5673828125;-0.53271484375;-1.25;-13.1875;-8.75;
1441975242520895;-0.86572265625;-0.19287109375;-0.3974609375;-0.23553466796875;5.33267669022059;15.780532736246137;11.0260263491285;0.59765625;0.53564453125;-0.54638671875;-4.625;-11.375;-7.75;
1441975242542896;-0.865966796875;-0.193115234375;-0.39569091796875;-0.2373046875;5.358635886858695;15.776386814934682;11.023017209175485;0.560546875;0.52490234375;-0.5576171875;-6.6875;-8.1875;-7.125;
1441975242559897;-0.866455078125;-0.1937255859375;-0.3929443359375;-0.23956298828125;5.397931460995398;15.772766361638986;11.01879055670293;0.51171875;0.51318359375;-0.599609375;-9.0625;-6.6875;-6.5625;
1441975242580899;-0.86724853515625;-0.19482421875;-0.38922119140625;-0.24188232421875;5.449250812629192;15.77207793722192;11.013434505260358;0.43115234375;0.48828125;-0.60302734375;-10.375;-8.75;-8.1875;
1441975242611900;-0.86846923828125;-0.197021484375;-0.38446044921875;-0.2432861328125;5.511801830507347;15.779610063940865;11.008920341205378;0.35791015625;0.4248046875;-0.5810546875;-9.75;-12.25;-11.9375;
1441975242619901;-0.86993408203125;-0.19989013671875;-0.37896728515625;-0.24444580078125;5.5835834401050315;15.790549438490164;11.005129441025563;0.3212890625;0.45654296875;-0.59765625;-0.5;-14.1875;-14.125;
1441975242641902;-0.87139892578125;-0.20208740234375;-0.373779296875;-0.245361328125;5.6481652264027336;15.802420063695445;10.9985388842976;0.31640625;0.572265625;-0.6142578125;7.625;-16.8125;-12.9375;
1441975242662903;-0.87274169921875;-0.20361328125;-0.3682861328125;-0.24755859375;5.718049427005346;15.808168124312255;10.989029869686846;0.37646484375;0.654296875;-0.6181640625;10.75;-19.0;-8.375;
1441975242695905;-0.8743896484375;-0.2037353515625;-0.36224365234375;-0.25067138671875;5.790814434083393;15.812251632455244;10.97038833846598;0.3857421875;0.7333984375;-0.64208984375;5.5625;-22.9375;-6.375;
1441975242700905;-0.87615966796875;-0.2021484375;-0.3560791015625;-0.2545166015625;5.859952356448275;15.814060972189226;10.942587624512665;0.3701171875;0.7314453125;-0.65576171875;-1.5;-28.3125;-1.875;
1441975242722907;-0.8780517578125;-0.1998291015625;-0.35015869140625;-0.258056640625;5.922128667949584;15.817394950005376;10.911177936159358;0.3818359375;0.650390625;-0.65576171875;-11.8125;-34.0625;1.1875;
1441975242739908;-0.88031005859375;-0.19696044921875;-0.34393310546875;-0.26080322265625;5.981618314569077;15.826807395104687;10.874672582146811;0.39111328125;0.56201171875;-0.62744140625;-14.4375;-35.75;2.0;
1441975242760909;-0.88232421875;-0.1923828125;-0.33935546875;-0.26348876953125;6.017093452816222;15.832621774995689;10.834272902030769;0.3955078125;0.59130859375;-0.65087890625;-10.5;-37.5625;6.6875;
1441975242782910;-0.88409423828125;-0.186767578125;-0.33673095703125;-0.264892578125;6.023610487688523;15.84052383034927;10.79331912817618;0.4287109375;0.529296875;-0.60986328125;-16.25;-34.4375;13.625;
1441975242799911;-0.88604736328125;-0.18011474609375;-0.33636474609375;-0.26348876953125;5.992658506032634;15.85970367324862;10.750117518789038;0.439453125;0.45166015625;-0.529296875;-14.6875;-28.1875;21.1875;
1441975242821912;-0.887939453125;-0.17230224609375;-0.33856201171875;-0.2596435546875;5.922372692766571;15.887534324166776;10.70514003904937;0.46533203125;0.43798828125;-0.50244140625;-3.5;-17.3125;33.875;
1441975242842914;-0.88909912109375;-0.16278076171875;-0.343994140625;-0.25457763671875;5.807984904809418;15.915155547132851;10.659094858275578;0.52783203125;0.43896484375;-0.49853515625;4.625;-5.875;47.0;
1441975242859915;-0.88922119140625;-0.15167236328125;-0.3529052734375;-0.24859619140625;5.648346239498781;15.94015710208074;10.613664793928328;0.60791015625;0.43505859375;-0.46142578125;4.6875;6.375;59.5625;
1441975242881916;-0.8883056640625;-0.13897705078125;-0.3643798828125;-0.24267578125;5.45585624345318;15.959818916194719;10.56695910574775;0.6728515625;0.40771484375;-0.41357421875;2.625;20.75;71.0;
1441975242902917;-0.88623046875;-0.12432861328125;-0.37811279296875;-0.2371826171875;5.232658441341819;15.973429399576721;10.516505977346855;0.71630859375;0.39501953125;-0.3974609375;-4.3125;32.5;81.75;
1441975242919918;-0.88275146484375;-0.1082763671875;-0.394287109375;-0.2315673828125;4.976456525194627;15.98288274166818;10.46566726379941;0.77197265625;0.38134765625;-0.38232421875;-14.1875;42.3125;91.75;
1441975242941919;-0.8790283203125;-0.0928955078125;-0.4091796875;-0.22662353515625;4.73759990807395;15.992792836045682;10.414546268751637;0.83837890625;0.32763671875;-0.34423828125;-20.75;53.0;99.0625;
1441975242963920;-0.87408447265625;-0.07696533203125;-0.42523193359375;-0.2220458984375;4.4834592828822215;15.99792535711367;10.364953912757471;0.89990234375;0.2998046875;-0.32470703125;-23.5625;61.3125;102.625;
1441975242979921;-0.86810302734375;-0.05987548828125;-0.44171142578125;-0.2186279296875;4.221312428145279;15.996911431861253;10.31202167023389;0.93505859375;0.29833984375;-0.32421875;-29.125;69.3125;105.375;
1441975243033924;-0.861328125;-0.04107666015625;-0.4581298828125;-0.21612548828125;3.9527757205613;15.995442717481795;10.248843146142537;0.93505859375;0.2509765625;-0.3076171875;-39.5;72.8125;108.5;
1441975243035925;-0.85400390625;-0.02203369140625;-0.47412109375;-0.2132568359375;3.6837142630907773;16.001688313640773;10.178998855081874;0.9169921875;0.193359375;-0.267578125;-49.3125;71.6875;114.1875;
1441975243048925;-0.8463134765625;-0.00335693359375;-0.4898681640625;-0.20953369140625;3.4142194585466554;16.019003910199928;10.103823350858042;0.94970703125;0.18017578125;-0.2568359375;-49.0625;71.25;115.9375;
1441975243070927;-0.83819580078125;0.01458740234375;-0.50506591796875;-0.20550537109375;3.1505403680756587;16.043880815841373;10.025598978152232;0.97607421875;0.19189453125;-0.2392578125;-44.0;71.625;116.3125;
1441975243091928;-0.82940673828125;0.03253173828125;-0.5198974609375;-0.2021484375;2.890165997138063;16.070494336485424;9.942848405810649;1.033203125;0.22900390625;-0.251953125;-40.625;71.6875;114.25;
1441975243100928;-0.82000732421875;0.05059814453125;-0.5341796875;-0.1995849609375;2.6347149561418193;16.100105333766468;9.853169955673764;1.10693359375;0.25537109375;-0.2392578125;-44.3125;71.5;112.0625;
1441975243127930;-0.81011962890625;0.06903076171875;-0.547607421875;-0.19793701171875;2.3867998239934103;16.13613256007845;9.751460721771407;1.16650390625;0.26904296875;-0.2265625;-49.4375;70.875;110.4375;
1441975243151931;-0.79974365234375;0.087890625;-0.56024169921875;-0.1971435546875;2.1454840787804788;16.18210073454602;9.63419222930845;1.18603515625;0.27685546875;-0.22705078125;-55.5625;68.8125;109.125;
1441975243159932;-0.78900146484375;0.10687255859375;-0.57220458984375;-0.19671630859375;1.910321586901472;16.24586552290168;9.496847720190404;1.19677734375;0.26416015625;-0.2138671875;-61.625;66.6875;108.3125;
1441975243183933;-0.7779541015625;0.1263427734375;-0.58355712890625;-0.19610595703125;1.6793906368063278;16.346726012145187;9.320878463824727;1.16259765625;0.23291015625;-0.1953125;-64.5;65.625;107.4375;
1441975243202934;-0.7666015625;0.14703369140625;-0.593505859375;-0.1964111328125;1.4623944508544717;16.495347169130838;9.08748498006423;1.1513671875;0.2890625;-0.1953125;-66.0;63.5625;111.125;
1441975243225935;-0.75469970703125;0.1683349609375;-0.6029052734375;-0.19671630859375;1.2537182218541991;16.71795425049094;8.776998440632227;1.171875;0.302734375;-0.16552734375;-75.4375;57.6875;113.25;
1441975243258937;-0.74237060546875;0.188720703125;-0.61236572265625;-0.19586181640625;1.0564496608045055;17.050387195464907;8.364794529343847;1.21484375;0.234375;-0.1435546875;-78.625;56.5;115.25;
1441975243262938;-0.7294921875;0.2083740234375;-0.6221923828125;-0.193359375;0.8787262983122379;17.570666448871656;7.774088992350596;1.2294921875;0.236328125;-0.201171875;-71.125;59.5;116.4375;
1441975243279939;-0.71588134765625;0.22857666015625;-0.6319580078125;-0.189697265625;0.7499486925037353;0.38081798133546413;6.895117686924987;1.123046875;0.26611328125;-0.2333984375;-61.4375;63.0;121.125;
1441975243302940;-0.70172119140625;0.2490234375;-0.64166259765625;-0.18426513671875;0.7160815517017488;1.4639994902904192;5.748366635226184;1.0908203125;0.20458984375;-0.19091796875;-59.5;63.375;128.375;
1441975243323941;-0.68658447265625;0.2691650390625;-0.651611328125;-0.177734375;0.7938183205575985;2.5300280512837205;4.623263354898735;1.158203125;0.2197265625;-0.18017578125;-53.8125;62.8125;137.8125;
1441975243354943;-0.67041015625;0.28851318359375;-0.6622314453125;-0.16986083984375;0.9647978214327075;3.353786109916834;3.7481024315018656;1.1796875;0.173828125;-0.19140625;-49.0;66.75;142.375;
1441975243361943;-0.6534423828125;0.30712890625;-0.67291259765625;-0.16094970703125;1.1970855307902224;3.9074283114829362;3.1487474959316115;1.138671875;0.15380859375;-0.19384765625;-40.5625;72.375;146.875;
1441975243382944;-0.63629150390625;0.3265380859375;-0.6822509765625;-0.15191650390625;1.467094688061636;4.240070378691531;2.7655169448844843;1.09716796875;0.19140625;-0.2451171875;-34.5;76.0625;150.8125;
1441975243399945;-0.61871337890625;0.34832763671875;-0.68927001953125;-0.1441650390625;1.757166232672343;4.421594366165686;2.5151283720644684;1.10400390625;0.20361328125;-0.2021484375;-39.5;70.25;154.5625;
1441975243421947;-0.60028076171875;0.37042236328125;-0.695556640625;-0.13665771484375;2.0564373274395162;4.540164628905305;2.3227222674903274;1.15625;0.14013671875;-0.2236328125;-57.75;64.375;157.125;
1441975243442948;-0.58172607421875;0.3902587890625;-0.70220947265625;-0.12744140625;2.359256555536552;4.633409344745933;2.1705947124777385;1.09716796875;0.05224609375;-0.2294921875;-62.1875;65.875;157.5;
1441975243459949;-0.564208984375;0.40673828125;-0.70892333984375;-0.1171875;2.6462558468486552;4.709349865731859;2.053811031504453;1.00244140625;-0.041015625;-0.1943359375;-46.25;65.125;155.8125;
1441975243504951;-0.5479736328125;0.421142578125;-0.71478271484375;-0.10736083984375;2.910550927567792;4.76423236827035;1.9646826149540642;0.93505859375;0.0234375;-0.1708984375;-28.9375;61.125;147.75;
1441975243508952;-0.5330810546875;0.43597412109375;-0.71826171875;-0.09942626953125;3.15209859091799;4.782849254636961;1.9007328815431916;0.89990234375;0.150390625;-0.154296875;-22.6875;55.1875;138.0625;
1441975243519952;-0.5196533203125;0.4505615234375;-0.71990966796875;-0.09332275390625;3.3666133354542302;4.779154465786847;1.8517983201487573;0.859375;0.10302734375;-0.14599609375;-35.25;46.875;126.3125;
1441975243541954;-0.5107421875;0.4608154296875;-0.72027587890625;-0.08978271484375;3.507081839078826;4.7678601575402855;1.822383589730577;0.81884765625;0.00634765625;-0.1015625;-44.125;39.0;112.1875;
1441975243563955;-0.50408935546875;0.46795654296875;-0.7208251953125;-0.08642578125;3.614874723535267;4.762430241717728;1.8024733684372902;0.78466796875;-0.029296875;-0.10302734375;-31.5625;32.25;97.875;
1441975243579956;-0.49920654296875;0.47283935546875;-0.72125244140625;-0.08416748046875;3.6903830641906503;4.760376236757911;1.7864695146470635;0.71728515625;0.02490234375;-0.11083984375;-17.0;25.5625;83.25;
1441975243601957;-0.49603271484375;0.47705078125;-0.720703125;-0.083740234375;3.7359802214448985;4.749569253849801;1.7759429740214165;0.67626953125;0.10498046875;-0.08203125;-11.9375;20.0625;70.4375;
1441975243623958;-0.49420166015625;0.4796142578125;-0.72021484375;-0.084228515625;3.7570614905602606;4.742421523321207;1.7670762141799108;0.67822265625;0.0263671875;-0.04052734375;-17.4375;13.375;52.375;
1441975243639959;-0.49371337890625;0.47998046875;-0.72021484375;-0.084716796875;3.7583250828696504;4.743369880739087;1.7619311563680646;0.6689453125;-0.02392578125;-0.01904296875;-13.625;9.5;36.9375;
1441975243678961;-0.4942626953125;0.47735595703125;-0.7216796875;-0.0841064453125;3.747219515072406;4.762785574340669;1.75869735526763;0.64697265625;-0.1025390625;-0.033203125;-1.3125;7.25;22.125;
1441975243707963;-0.49591064453125;0.4718017578125;-0.72430419921875;-0.083251953125;3.7166811023498645;4.799375856289373;1.7546310111279408;0.63037109375;-0.1650390625;-0.01953125;18.1875;5.0625;11.75;
1441975243710963;-0.4971923828125;0.466064453125;-0.72723388671875;-0.08221435546875;3.6893864140964756;4.8406094241104745;1.7471821874404143;0.5869140625;-0.03466796875;-0.044921875;35.5625;5.9375;7.0;
1441975243721964;-0.497314453125;0.460693359375;-0.730712890625;-0.08123779296875;3.672079640358759;4.8891593597364595;1.7296433705123246;0.5;0.1103515625;-0.107421875;39.1875;11.25;12.875;
1441975243744965;-0.49774169921875;0.4521484375;-0.73577880859375;-0.0804443359375;3.6372395403125566;4.964109596367095;1.7005837301137563;0.419921875;-0.00390625;-0.0732421875;37.5;15.375;7.5;
1441975243759966;-0.50018310546875;0.44122314453125;-0.74053955078125;-0.0823974609375;3.5562451369034465;5.046734361430058;1.6651514378605814;0.34814453125;-0.015625;-0.0458984375;53.4375;19.375;-6.8125;
1441975243781967;-0.50506591796875;0.4329833984375;-0.741455078125;-0.08795166015625;3.440306313999135;5.086767116011247;1.64517335861066;0.322265625;0.17333984375;0.0126953125;52.3125;14.6875;-21.1875;
1441975243804969;-0.51104736328125;0.42681884765625;-0.73992919921875;-0.09588623046875;3.305975764819733;5.0995880832316525;1.6327111633004632;0.4423828125;0.08544921875;0.03271484375;21.6875;1.4375;-36.875;
1441975243819969;-0.51983642578125;0.41845703125;-0.737548828125;-0.103759765625;3.139692737152836;5.106100418794275;1.63849240106958;0.57080078125;-0.13427734375;0.07373046875;0.625;-6.75;-54.0;
1441975243841971;-0.532958984375;0.405029296875;-0.7344970703125;-0.11187744140625;2.913716190175582;5.116045134362715;1.6652434636594167;0.634765625;-0.2177734375;0.0341796875;12.0;-17.5625;-71.0625;
1441975243864972;-0.54913330078125;0.39019775390625;-0.72900390625;-0.1217041015625;2.641903192041522;5.099635579481149;1.7177237179167135;0.70703125;-0.15576171875;0.0048828125;33.75;-32.5625;-93.5;
1441975243880973;-0.5703125;0.3751220703125;-0.71795654296875;-0.1365966796875;2.2881027684997353;5.004663899444996;1.8289682619255978;0.8388671875;0.02294921875;-9.765625E-4;30.1875;-51.25;-121.0625;
1441975243901974;-0.5931396484375;0.36199951171875;-0.7017822265625;-0.15716552734375;1.8872109305186158;4.804707749390733;2.0105896852923255;1.14990234375;0.111328125;0.01708984375;5.6875;-78.4375;-155.5;
1441975243925976;-0.616943359375;0.34429931640625;-0.68511962890625;-0.17767333984375;1.4626700189540789;4.52036839927535;2.2951391567726276;1.2939453125;-0.05712890625;-0.015625;-30.125;-91.25;-182.9375;
1441975243940976;-0.64251708984375;0.3218994140625;-0.66650390625;-0.19842529296875;1.0205202174345858;3.965814291965943;2.8664457254222575;1.2802734375;-0.142578125;-0.1142578125;-11.1875;-92.125;-203.9375;
1441975243970978;-0.66949462890625;0.29815673828125;-0.6431884765625;-0.22198486328125;0.6533040040333375;2.466595570284533;4.3718439912625024;1.37255859375;0.2470703125;-0.13720703125;4.3125;-100.875;-222.125;
1441975243983979;-0.69659423828125;0.27392578125;-0.6153564453125;-0.24737548828125;0.6928954474417567;17.821410844159516;7.011558083538455;1.7568359375;0.19677734375;-0.2783203125;-7.6875;-115.9375;-247.625;
1441975244007980;-0.7244873046875;0.24505615234375;-0.583740234375;-0.272705078125;1.1642186276820816;16.364688987431844;8.476078481239485;2.03564453125;0.04345703125;-0.19677734375;-21.3125;-133.625;-268.125;
1441975244021981;-0.75335693359375;0.211669921875;-0.546630859375;-0.29815673828125;1.823390673303802;15.794164192329308;9.064433714291429;2.0341796875;-0.0888671875;-0.17626953125;-10.1875;-147.125;-299.0625;
1441975244043982;-0.7803955078125;0.17828369140625;-0.5029296875;-0.32598876953125;2.5684165512509782;15.526003148091714;9.328801684939796;1.95703125;0.26708984375;-0.23095703125;-0.875;-166.9375;-326.125;
1441975244066984;-0.80224609375;0.1475830078125;-0.4542236328125;-0.35833740234375;3.3438245861805056;15.343478661851474;9.46329195978543;2.0654296875;0.7099609375;-0.279296875;-20.875;-188.625;-340.1875;
1441975244088985;-0.81884765625;0.12005615234375;-0.40838623046875;-0.38525390625;4.042800926363295;15.237717884536718;9.52435460295242;2.18310546875;0.8564453125;-0.41845703125;-63.75;-197.625;-348.8125;
1441975244103986;-0.83251953125;0.09393310546875;-0.37054443359375;-0.40118408203125;4.619339804512234;15.200170218283978;9.5628836154801;2.21630859375;0.71923828125;-0.59423828125;-57.9375;-181.5;-316.3125;
1441975244126987;-0.84295654296875;0.06976318359375;-0.33917236328125;-0.411865234375;5.100815507330646;15.182688340672991;9.60059250589944;2.19287109375;0.16162109375;-0.84423828125;-9.5;-141.125;-253.125;
1441975244141988;-0.85357666015625;0.03887939453125;-0.31890869140625;-0.4102783203125;5.48127448883917;15.212694576628651;9.691213083758619;2.3876953125;-0.0185546875;-0.60791015625;7.375;-110.5625;-215.6875;
1441975244163989;-0.86932373046875;-0.00457763671875;-0.3062744140625;-0.3880615234375;5.807044886283163;15.352187045947565;9.841163724294004;2.4912109375;-0.34814453125;-0.40234375;84.625;-46.375;-198.3125;
