1441975532635489;0.0479736328125;-0.77178955078125;-0.56280517578125;-0.292236328125;12.03335285617111;14.155559150535584;17.141254765738584;-2.2099609375;-0.0224609375;0.20361328125;282.0625;22.9375;314.8125;
1441975532658490;0.018310546875;-0.78277587890625;-0.5650634765625;-0.26031494140625;11.535163193373332;14.224066201505787;17.14578310840629;-2.08154296875;0.234375;0.2373046875;243.0;51.625;268.1875;
1441975532679491;-0.001953125;-0.7772216796875;-0.5877685546875;-0.22479248046875;11.03102317048944;14.140886032677233;17.172103393259714;-1.8935546875;0.11474609375;0.28955078125;66.3125;63.0625;241.0;
1441975532695492;-0.01239013671875;-0.7579345703125;-0.62396240234375;-0.1900634765625;10.582082121612101;13.945918212490222;17.228604342205767;-1.7255859375;-0.05859375;0.373046875;-93.5;83.1875;239.25;
1441975532718493;-0.01715087890625;-0.72607421875;-0.6695556640625;-0.15606689453125;10.174971819730466;13.660459422046369;17.309009910833332;-1.47265625;0.02685546875;0.224609375;-208.875;101.0;234.625;
1441975532739495;-0.01910400390625;-0.6903076171875;-0.712158203125;-0.12652587890625;9.847995712778472;13.365887459313138;17.39722958749135;-1.27587890625;-0.0556640625;0.1123046875;-302.8125;102.1875;215.9375;
1441975532755496;-0.021728515625;-0.66448974609375;-0.74017333984375;-0.10101318359375;9.585842029381533;13.165084273143254;17.483452030148396;-1.24755859375;-0.30908203125;0.1064453125;-308.0625;88.25;185.25;
1441975532778497;-0.02313232421875;-0.6527099609375;-0.7532958984375;-0.07794189453125;9.38353539680789;13.076533041048469;17.574617915206428;-1.1650390625;-0.38818359375;0.12109375;-208.625;73.375;158.125;
1441975532799498;-0.0167236328125;-0.6510009765625;-0.7562255859375;-0.064453125;9.336047747962606;13.06229568475339;17.65698685770902;-0.92041015625;-0.1259765625;0.04443359375;-95.0;74.75;128.1875;
1441975532815499;-0.004638671875;-0.654052734375;-0.75439453125;-0.0562744140625;9.381921179952759;13.083770821404354;17.738457220412737;-0.74951171875;0.0595703125;-0.00390625;-19.625;70.0625;86.5625;
1441975532838500;0.0146484375;-0.65869140625;-0.75018310546875;-0.0570068359375;9.557029077348163;13.119161613211;17.809235329793434;-0.6943359375;0.369140625;-0.0625;9.125;76.4375;35.3125;
1441975532859502;0.04083251953125;-0.66058349609375;-0.74664306640625;-0.06756591796875;9.864017721412754;13.1397589514235;17.863917620544786;-0.79296875;0.62841796875;-0.0869140625;18.4375;73.8125;-26.3125;
1441975532874502;0.06781005859375;-0.65899658203125;-0.7447509765625;-0.08111572265625;10.199876642939952;13.14073551017185;17.907887509558275;-0.9111328125;0.79296875;-0.0234375;5.875;65.5;-91.0;
1441975532889503;0.10040283203125;-0.65496826171875;-0.7421875;-0.10076904296875;10.632105552012801;13.135057345088493;17.94609635761918;-0.89990234375;0.87890625;0.0732421875;-7.625;62.1875;-149.0625;
1441975532911505;0.1390380859375;-0.65130615234375;-0.73529052734375;-0.12628173828125;11.164870369189252;13.150682814097754;17.98583967916136;-0.8115234375;0.9365234375;0.13232421875;-14.75;63.1875;-201.1875;
1441975532934506;0.18231201171875;-0.65020751953125;-0.7208251953125;-0.156494140625;11.77941947396186;13.21433872189192;0.03714705064399263;-0.76123046875;0.8994140625;0.1943359375;4.0625;70.0625;-253.1875;
1441975532949507;0.227294921875;-0.65203857421875;-0.697265625;-0.19256591796875;12.46140951276592;13.33825973836755;0.09702752834888784;-0.84033203125;0.830078125;0.26904296875;45.125;81.125;-294.5625;
1441975532971508;0.27313232421875;-0.65240478515625;-0.66650390625;-0.23577880859375;13.219831388971329;13.50160151027738;0.1628450082664312;-1.0556640625;0.84619140625;0.1865234375;94.875;78.375;-329.9375;
1441975532994509;0.31939697265625;-0.6431884765625;-0.63787841796875;-0.27825927734375;13.99427361463125;13.63977987480072;0.24903086201429303;-1.28173828125;0.72216796875;-0.03271484375;122.0625;62.0;-370.0625;
1441975533017511;0.3638916015625;-0.6220703125;-0.61651611328125;-0.31707763671875;14.747567842499437;13.706689962527175;0.32982504597714807;-1.61376953125;0.85400390625;-0.2421875;73.625;48.0;-382.5;
1441975533031511;0.4061279296875;-0.59649658203125;-0.59649658203125;-0.3514404296875;15.465058979149735;13.777632628138525;0.4382295785844884;-1.79443359375;0.66943359375;-0.0771484375;1.375;25.0625;-372.5625;
1441975533054513;0.44189453125;-0.5762939453125;-0.56854248046875;-0.3865966796875;16.14379676764937;13.994570710391963;0.6325954482544692;-1.64404296875;0.330078125;0.08447265625;-22.6875;24.4375;-355.3125;
1441975533069514;0.467529296875;-0.56280517578125;-0.5338134765625;-0.4239501953125;16.750801313118725;14.453077073575393;0.9951163256230011;-1.7529296875;0.087890625;0.171875;37.375;31.0;-338.4375;
1441975533091515;0.48712158203125;-0.54852294921875;-0.50018310546875;-0.46014404296875;17.27564764611195;15.360315262698588;1.7989955966680347;-1.712890625;0.15771484375;0.07275390625;109.5625;21.5;-314.5;
1441975533114516;0.50555419921875;-0.53033447265625;-0.4725341796875;-0.4898681640625;17.57672303658537;17.77106839092423;4.1503346210671666;-1.5986328125;0.23193359375;-0.021484375;114.625;0.1875;-295.125;
1441975533129517;0.5238037109375;-0.5096435546875;-0.45013427734375;-0.51312255859375;17.402138134337044;2.455230484491977;6.8151452308428375;-1.513671875;0.22216796875;-0.0234375;69.4375;-9.9375;-271.0;
1441975533151518;0.54241943359375;-0.48748779296875;-0.43218994140625;-0.53045654296875;17.04026131897577;3.377115932318858;7.752526115930109;-1.45263671875;0.197265625;-0.00390625;28.5625;-12.8125;-246.75;
1441975533174520;0.55975341796875;-0.46588134765625;-0.4169921875;-0.5438232421875;16.6791288883522;3.729166254581891;8.134110388232884;-1.37744140625;0.1201171875;-0.0166015625;-7.375;-12.5625;-224.375;
1441975533189520;0.57293701171875;-0.4473876953125;-0.402099609375;-0.5567626953125;16.35071235785185;3.923564709880101;8.339288903213175;-1.3310546875;-0.0478515625;-0.01513671875;-22.25;-11.875;-199.25;
1441975533211522;0.5810546875;-0.43353271484375;-0.38671875;-0.57000732421875;16.06669585165653;4.055915861231952;8.451972448871599;-1.21923828125;-0.09228515625;0.015625;-4.0625;-11.4375;-176.4375;
1441975533234523;0.58685302734375;-0.4224853515625;-0.3731689453125;-0.581298828125;15.829823818619449;4.1448460014488635;8.517187024803711;-1.09716796875;0.00439453125;0.009765625;24.9375;-7.6875;-152.0625;
1441975533249524;0.59210205078125;-0.41259765625;-0.36328125;-0.5892333984375;15.641107496250001;4.2012710194765415;8.565324702086928;-1.00390625;0.06494140625;-0.04296875;28.375;-6.1875;-127.8125;
1441975533271525;0.5946044921875;-0.40606689453125;-0.35858154296875;-0.59417724609375;15.535573541503517;4.2467421045673905;8.608743342971982;-0.95068359375;0.0693359375;-0.07080078125;12.1875;-8.125;-103.5625;
1441975533294526;0.5947265625;-0.4017333984375;-0.3553466796875;-0.598876953125;15.466657205147975;4.29787678811797;8.649471607532911;-0.88916015625;0.03125;-0.04541015625;7.3125;-13.125;-82.4375;
1441975533309527;0.59259033203125;-0.400146484375;-0.353759765625;-0.60296630859375;15.439881291265264;4.350320746993737;8.68353920614196;-0.81640625;0.03955078125;-0.02978515625;15.375;-14.5625;-62.5;
1441975533331529;0.5885009765625;-0.4010009765625;-0.3544921875;-0.60601806640625;15.45837325363167;4.40512135051791;8.717066360752277;-0.783203125;0.0478515625;-0.025390625;22.625;-14.125;-40.9375;
1441975533363530;0.583251953125;-0.40338134765625;-0.35797119140625;-0.60748291015625;15.51755439552781;4.460967873812679;8.756650670575558;-0.78515625;0.046875;-0.029296875;25.375;-15.6875;-18.0;
1441975533369531;0.5767822265625;-0.40716552734375;-0.3642578125;-0.60736083984375;15.617137980946197;4.522048610376934;8.806843632207082;-0.82666015625;-0.0087890625;-0.02294921875;20.9375;-18.625;5.375;
1441975533391532;0.56878662109375;-0.41278076171875;-0.3729248046875;-0.60589599609375;15.757075269441001;4.592186550589526;8.867357349781644;-0.85693359375;-0.05859375;0.00537109375;14.875;-20.75;29.25;
1441975533414533;0.559326171875;-0.42010498046875;-0.38323974609375;-0.6031494140625;15.930713478185956;4.673018434722756;8.937975816960062;-0.86669921875;-0.0732421875;0.01513671875;14.1875;-22.0;51.625;
1441975533430534;0.54876708984375;-0.4290771484375;-0.39483642578125;-0.59912109375;16.133310616823792;4.765197100677004;9.01953597832244;-0.88916015625;-0.05615234375;0.0244140625;14.6875;-21.5625;69.8125;
1441975533451535;0.5379638671875;-0.43829345703125;-0.40667724609375;-0.59429931640625;16.342145793882228;4.873234857155852;9.118538675993785;-0.9306640625;-0.06884765625;0.01220703125;15.375;-20.8125;86.75;
1441975533474537;0.52642822265625;-0.4483642578125;-0.4197998046875;-0.58795166015625;16.57307349922005;5.011308715567168;9.251132508415598;-0.9853515625;-0.06201171875;0.02490234375;13.75;-18.625;103.125;
1441975533489538;0.5152587890625;-0.45843505859375;-0.43463134765625;-0.5792236328125;16.821210605505396;5.190251609794824;9.437402333898971;-0.986328125;-0.01708984375;0.0185546875;9.75;-17.4375;115.6875;
1441975533520539;0.50531005859375;-0.4676513671875;-0.4512939453125;-0.5677490234375;17.077387153278735;5.445620772838572;9.719097784329072;-0.95458984375;0.046875;0.03076171875;-2.4375;-15.5;125.9375;
1441975533534540;0.4964599609375;-0.47576904296875;-0.4696044921875;-0.55377197265625;17.33117061677336;5.891194572632711;10.209008596466012;-0.93896484375;0.07275390625;0.03515625;-22.0;-13.4375;133.625;
1441975533549541;0.48785400390625;-0.48309326171875;-0.48858642578125;-0.53851318359375;17.550807672711493;6.852606209100051;11.223110677405806;-0.92529296875;0.060546875;0.03955078125;-40.125;-12.4375;140.1875;
1441975533580543;0.47869873046875;-0.49005126953125;-0.50714111328125;-0.5230712890625;17.646832481580255;8.826125063960982;13.247930128430463;-0.91845703125;0.0419921875;0.04833984375;-48.1875;-12.5;143.9375;
1441975533594544;0.46905517578125;-0.496826171875;-0.524658203125;-0.50787353515625;17.540539258904882;10.703881845825842;15.172383658739136;-0.931640625;0.04443359375;0.046875;-46.875;-13.375;144.25;
1441975533609544;0.4591064453125;-0.50335693359375;-0.540771484375;-0.493408203125;17.333022754807875;11.592821431152665;16.101753911780467;-0.95849609375;0.080078125;0.0390625;-42.25;-13.8125;142.0;
1441975533631546;0.44915771484375;-0.509521484375;-0.55517578125;-0.4801025390625;17.10762251080132;12.004306693499256;16.54657316136283;-0.99853515625;0.13916015625;0.01513671875;-36.25;-13.75;135.125;
1441975533655547;0.4393310546875;-0.51507568359375;-0.56817626953125;-0.46783447265625;16.886276182726277;12.221374628032942;16.79217596452809;-1.02880859375;0.18017578125;0.0;-29.625;-14.5;126.25;
1441975533669548;0.4296875;-0.52008056640625;-0.58026123046875;-0.456298828125;16.6720260347944;12.349444024770476;16.9462658016398;-1.009765625;0.16845703125;-0.0107421875;-25.0625;-15.25;118.0625;
1441975533691549;0.42022705078125;-0.5247802734375;-0.59130859375;-0.44549560546875;16.467636925772762;12.433591819700442;17.052859920766785;-0.95556640625;0.14208984375;0.00732421875;-22.8125;-15.6875;112.125;
1441975533714550;0.41094970703125;-0.52935791015625;-0.6011962890625;-0.4354248046875;16.27439670915696;12.495257458846888;17.13250050009882;-0.900390625;0.09814453125;0.01416015625;-19.3125;-15.5;106.875;
1441975533729551;0.40301513671875;-0.53350830078125;-0.60870361328125;-0.42724609375;16.115690070216196;12.542079370617056;17.190086097278378;-0.85107421875;0.0751953125;0.02001953125;-14.75;-14.625;100.875;
1441975533751553;0.395263671875;-0.53759765625;-0.61505126953125;-0.42022705078125;15.970599264092575;12.578765963895737;17.23153744754013;-0.8330078125;0.07763671875;0.02294921875;-8.125;-14.5;93.375;
1441975533774554;0.3878173828125;-0.54150390625;-0.62042236328125;-0.41412353515625;15.83838603220636;12.608581610878833;17.262041181168367;-0.8154296875;0.0966796875;0.03515625;-2.375;-14.1875;85.625;
1441975533789555;0.38116455078125;-0.5447998046875;-0.6251220703125;-0.408935546875;15.722517927557856;12.628919270089757;17.282501465452025;-0.8037109375;0.13134765625;0.041015625;1.375;-13.8125;77.4375;
1441975533811556;0.37530517578125;-0.5472412109375;-0.62933349609375;-0.40460205078125;15.622438787078389;12.638442689423233;17.29301709197972;-0.796875;0.14697265625;0.04541015625;1.375;-13.6875;68.4375;
1441975533834557;0.369873046875;-0.5491943359375;-0.633056640625;-0.40106201171875;15.533923662809713;12.641405955676;17.29588324092857;-0.7763671875;0.12890625;0.0556640625;0.1875;-14.0;61.625;
1441975533849558;0.36492919921875;-0.55133056640625;-0.63568115234375;-0.39849853515625;15.460045261327123;12.647606422906172;17.296746871250992;-0.7236328125;0.12841796875;0.0791015625;1.4375;-13.0;54.8125;
1441975533871559;0.36090087890625;-0.5537109375;-0.636962890625;-0.39697265625;15.405814086879188;12.659967586179492;17.298670751060254;-0.69384765625;0.1650390625;0.09375;6.625;-10.75;44.6875;
1441975533894561;0.3582763671875;-0.55535888671875;-0.63739013671875;-0.396240234375;15.373834331214898;12.669521176198002;17.299161638394622;-0.69482421875;0.22607421875;0.08984375;11.125;-7.75;32.4375;
1441975533909562;0.3570556640625;-0.55609130859375;-0.6373291015625;-0.396484375;15.363514644191946;12.67149870247866;17.294516909427752;-0.703125;0.26220703125;0.08349609375;9.4375;-5.375;19.5;
1441975533933563;0.3572998046875;-0.55584716796875;-0.636474609375;-0.39788818359375;15.378139160146949;12.666184478679456;17.283962895129193;-0.7119140625;0.29736328125;0.09814453125;6.1875;-3.875;7.0;
1441975533954564;0.359130859375;-0.5545654296875;-0.634765625;-0.4007568359375;15.420720517576905;12.651425121176915;17.26479625938369;-0.72705078125;0.310546875;0.09130859375;4.1875;-3.0625;-6.3125;
1441975533977566;0.36279296875;-0.5523681640625;-0.6318359375;-0.40509033203125;15.494873302082748;12.630302329236722;17.239388135856853;-0.76806640625;0.31298828125;0.08349609375;2.0625;-3.125;-20.3125;
1441975533991566;0.36798095703125;-0.54925537109375;-0.6278076171875;-0.410888671875;15.597251686171576;12.599640820030315;17.20404396485975;-0.8369140625;0.3154296875;0.07958984375;1.0;-2.1875;-35.0625;
1441975534014568;0.374267578125;-0.54547119140625;-0.622802734375;-0.4178466796875;15.721278623394834;12.559721668483395;17.15835934663678;-0.88671875;0.30029296875;0.078125;1.0;-1.1875;-48.1875;
1441975534037569;0.3814697265625;-0.5411376953125;-0.61663818359375;-0.426025390625;15.866215428594984;12.508956562458803;17.099166071623223;-0.91796875;0.27587890625;0.0849609375;1.875;-0.1875;-59.25;
1441975534051570;0.389404296875;-0.53631591796875;-0.6094970703125;-0.43511962890625;16.027502933567085;12.444691547921268;17.024554725448933;-0.9384765625;0.2412109375;0.08984375;3.9375;0.6875;-69.0625;
1441975534074571;0.39788818359375;-0.53125;-0.6015625;-0.444580078125;16.199110840608817;12.368309244669012;16.936820846978286;-0.94580078125;0.20458984375;0.10302734375;6.0625;2.4375;-77.125;
1441975534097572;0.4066162109375;-0.5257568359375;-0.59356689453125;-0.45391845703125;16.37180220923101;12.271324953702312;16.830671070754594;-0.95947265625;0.1650390625;0.11083984375;7.5625;4.8125;-81.875;
1441975534111573;0.4156494140625;-0.5196533203125;-0.58599853515625;-0.46240234375;16.53988161178416;12.15053050879091;16.707117528355294;-0.951171875;0.12451171875;0.119140625;5.5625;6.3125;-83.1875;
1441975534137575;0.4249267578125;-0.51336669921875;-0.578857421875;-0.469970703125;16.701363832295392;12.007731309701756;16.566684557166298;-0.92822265625;0.10400390625;0.140625;-0.3125;8.75;-82.5625;
1441975534157576;0.43450927734375;-0.5069580078125;-0.57196044921875;-0.47662353515625;16.857627458189025;11.839316170840853;16.40521088026274;-0.9248046875;0.0966796875;0.134765625;-5.1875;11.3125;-80.8125;
1441975534171577;0.444091796875;-0.5003662109375;-0.56549072265625;-0.482421875;17.004430146834686;11.631883970599056;16.208933662622375;-0.97265625;0.09130859375;0.1298828125;-9.75;12.8125;-79.5;
1441975534195578;0.453369140625;-0.493896484375;-0.5596923828125;-0.48712158203125;17.135921996150657;11.386266319827062;15.978328685570396;-1.037109375;0.08203125;0.1142578125;-14.0;13.25;-76.5;
1441975534217579;0.46197509765625;-0.48779296875;-0.55450439453125;-0.49114990234375;17.2492439355294;11.092227687159674;15.699996166296929;-1.0498046875;0.05712890625;0.11083984375;-17.6875;13.625;-70.1875;
1441975534231580;0.46942138671875;-0.482421875;-0.5498046875;-0.49468994140625;17.340790744900684;10.755699192148393;15.376551047348231;-1.03369140625;0.01953125;0.119140625;-17.9375;13.5625;-62.8125;
1441975534254581;0.47528076171875;-0.4783935546875;-0.54547119140625;-0.49774169921875;17.409795818893475;10.415453057674428;15.043448434181029;-1.01220703125;-0.0126953125;0.12255859375;-14.5625;13.0625;-54.0;
1441975534277583;0.47943115234375;-0.4757080078125;-0.5416259765625;-0.50054931640625;17.457147279076178;10.09713747582434;14.72563048269516;-1.0126953125;-0.0107421875;0.12060546875;-8.6875;12.25;-44.6875;
1441975534299584;0.48236083984375;-0.47393798828125;-0.53839111328125;-0.50286865234375;17.488885085368228;9.821530688531348;14.447558273471984;-1.0126953125;-0.00244140625;0.11328125;-1.9375;9.875;-35.875;
1441975534322585;0.48382568359375;-0.4732666015625;-0.53619384765625;-0.5045166015625;17.50573383571243;9.648139706090321;14.269252909998556;-1.01806640625;-0.00390625;0.10498046875;1.375;7.625;-27.25;
1441975534337586;0.484130859375;-0.47344970703125;-0.534912109375;-0.50537109375;17.513854586379995;9.584646901385103;14.199982552193298;-1.013671875;0.029296875;0.11083984375;4.25;6.0625;-17.9375;
1441975534353587;0.4837646484375;-0.47412109375;-0.53466796875;-0.50537109375;17.515891910251195;9.616864420910069;14.228522267851302;-0.99072265625;0.05615234375;0.10693359375;5.3125;4.5625;-9.5;
1441975534374588;0.48291015625;-0.4749755859375;-0.5352783203125;-0.504638671875;17.512173688631286;9.718259012287;14.328873804265015;-0.978515625;0.07275390625;0.1162109375;3.5;3.625;-1.75;
1441975534397590;0.4815673828125;-0.47625732421875;-0.53656005859375;-0.50347900390625;17.502671168267277;9.878173486321742;14.488259975176469;-0.9658203125;0.0771484375;0.11767578125;1.125;2.875;4.5625;
1441975534411590;0.4794921875;-0.47784423828125;-0.53814697265625;-0.50225830078125;17.485058491669918;10.066243580578021;14.67388697224229;-0.953125;0.07275390625;0.11767578125;1.0;1.8125;10.9375;
1441975534435592;0.4765625;-0.480224609375;-0.53997802734375;-0.50079345703125;17.459626530582725;10.300536589457078;14.90241458167868;-0.947265625;0.06201171875;0.1220703125;2.9375;0.3125;16.375;
1441975534465593;0.4732666015625;-0.483154296875;-0.54217529296875;-0.4986572265625;17.427458323338797;10.567807560324665;15.16427485047207;-0.93896484375;0.08935546875;0.1181640625;6.5;-0.5625;20.875;
1441975534471594;0.4700927734375;-0.4857177734375;-0.5450439453125;-0.49609375;17.386625230782325;10.808110127691343;15.403716803031516;-0.9365234375;0.130859375;0.1044921875;6.1875;-0.4375;23.9375;
1441975534494595;0.467041015625;-0.48779296875;-0.54827880859375;-0.49334716796875;17.339864064912724;11.00539890324931;15.603480536749634;-0.94677734375;0.14501953125;0.10498046875;1.8125;-1.5;25.8125;
1441975534517596;0.46380615234375;-0.48974609375;-0.5516357421875;-0.49066162109375;17.287839753579064;11.16985683448806;15.770420749489903;-0.95556640625;0.1337890625;0.111328125;-1.8125;-2.875;27.5;
1441975534531597;0.46014404296875;-0.49188232421875;-0.55499267578125;-0.48822021484375;17.230326607134916;11.310257363068631;15.910852034648476;-0.94921875;0.12744140625;0.1142578125;-1.4375;-4.125;29.0;
1441975534553598;0.45611572265625;-0.49432373046875;-0.55804443359375;-0.48602294921875;17.170641380142964;11.43422349307943;16.031349453515656;-0.94677734375;0.1337890625;0.1259765625;1.375;-5.0;30.0625;
1441975534577600;0.452880859375;-0.49615478515625;-0.56158447265625;-0.483154296875;17.112064244215695;11.540487289582504;16.14150654274287;-0.94580078125;0.1259765625;0.10302734375;4.375;-7.125;31.9375;
1441975534599601;0.4501953125;-0.49725341796875;-0.56549072265625;-0.47991943359375;17.054224808193382;11.622145446121246;16.232859167020898;-0.94775390625;0.11279296875;0.10546875;-2.75;-5.5;32.875;
1441975534630603;0.44781494140625;-0.498046875;-0.569580078125;-0.4764404296875;16.996664715709144;11.69140014457335;16.314803559797884;-0.97119140625;0.10791015625;0.12060546875;-8.0;-5.0;32.875;
1441975534637603;0.4439697265625;-0.499267578125;-0.57415771484375;-0.47332763671875;16.92282436155044;11.747917417023626;16.378942681987077;-0.9794921875;0.11279296875;0.11865234375;-11.3125;-5.3125;33.3125;
1441975534651604;0.4403076171875;-0.50140380859375;-0.578125;-0.4697265625;16.8523352993494;11.829130432693818;16.465326602023623;-0.97998046875;0.14990234375;0.1240234375;-6.5;-10.75;36.6875;
1441975534675605;0.43841552734375;-0.50286865234375;-0.58221435546875;-0.4647216796875;16.79229866575853;11.9164556051663;16.569266737312066;-0.96044921875;0.14404296875;0.09033203125;-3.625;-7.25;39.875;
1441975534697607;0.4395751953125;-0.50140380859375;-0.587890625;-0.4581298828125;16.745692597431287;11.96537772963263;16.661185975046592;-0.96533203125;0.140625;0.07177734375;-14.625;-0.8125;39.0625;
1441975534713608;0.4412841796875;-0.49774169921875;-0.59429931640625;-0.45208740234375;16.70340072160735;11.957002230249426;16.70432174943719;-0.9658203125;0.126953125;0.09375;-40.5625;3.625;34.0625;
1441975534742609;0.4422607421875;-0.49432373046875;-0.60009765625;-0.44720458984375;16.662302087690822;11.935622240083053;16.726574903711544;-0.99609375;0.099609375;0.12890625;-49.6875;-1.875;29.4375;
1441975534757610;0.441650390625;-0.4921875;-0.604736328125;-0.44390869140625;16.6185528426961;11.915313109383927;16.733735757166695;-0.966796875;0.07275390625;0.1552734375;-41.5;-3.9375;28.75;
1441975534771611;0.43988037109375;-0.4935302734375;-0.60662841796875;-0.44158935546875;16.581259360961383;11.95421022226062;16.775936516405668;-0.96044921875;0.08642578125;0.2041015625;-25.0;-4.375;27.1875;
1441975534802613;0.43865966796875;-0.495361328125;-0.60797119140625;-0.43890380859375;16.550017555721077;12.009726926025316;16.83438757105319;-0.9521484375;0.12109375;0.134765625;-1.3125;-0.125;26.8125;
1441975534817614;0.437744140625;-0.49609375;-0.610107421875;-0.43603515625;16.51693836755491;12.043277710537131;16.877770173981272;-0.97216796875;0.1708984375;0.09228515625;-1.1875;2.375;24.3125;
1441975534831614;0.43719482421875;-0.49530029296875;-0.61297607421875;-0.43341064453125;16.485598532856514;12.044200904699792;16.895430762347647;-0.98779296875;0.1845703125;0.09033203125;-8.5625;-1.3125;22.6875;
1441975534854616;0.43798828125;-0.49371337890625;-0.61566162109375;-0.43060302734375;16.467687995521658;12.040709114863269;16.914817089137497;-0.951171875;0.1826171875;0.1103515625;-16.1875;-4.5625;18.875;
1441975534877617;0.4395751953125;-0.49169921875;-0.6177978515625;-0.42828369140625;16.462659760085476;12.030602531576534;16.92806479950912;-0.94091796875;0.16259765625;0.1025390625;-22.0625;-1.3125;14.375;
1441975534891618;0.44097900390625;-0.4893798828125;-0.6195068359375;-0.427001953125;16.463111454328835;12.004514676251949;16.921435520813926;-0.94287109375;0.13330078125;0.10546875;-22.25;0.0;10.0;
1441975534914619;0.4417724609375;-0.488525390625;-0.619873046875;-0.42669677734375;16.46793210498457;11.995433060018126;16.91903995962471;-0.95068359375;0.12060546875;0.14501953125;-18.625;-0.25;6.0;
1441975534937620;0.44305419921875;-0.48797607421875;-0.6195068359375;-0.4263916015625;16.481221850710064;11.997637855782253;16.926333308078142;-0.95361328125;0.13037109375;0.12744140625;-6.1875;0.3125;4.25;
1441975534951621;0.444580078125;-0.4871826171875;-0.6190185546875;-0.42645263671875;16.49908750193064;11.992901929626276;16.926631585709167;-0.95751953125;0.14404296875;0.109375;-4.3125;3.625;0.625;
1441975534974623;0.44586181640625;-0.48602294921875;-0.61883544921875;-0.4267578125;16.51434495554165;11.975986495262106;16.91528904420314;-0.97802734375;0.154296875;0.10400390625;-4.9375;2.75;-2.8125;
1441975534997624;0.44720458984375;-0.48486328125;-0.61871337890625;-0.42681884765625;16.528870450953097;11.961901184987752;16.907856369349414;-0.96240234375;0.15380859375;0.10986328125;-5.5625;-0.25;-3.8125;
1441975535011625;0.44903564453125;-0.48419189453125;-0.61810302734375;-0.42657470703125;16.548896932951763;11.964922208721498;16.916959157031975;-0.94921875;0.16357421875;0.1142578125;-6.6875;1.125;-3.5625;
1441975535034626;0.45294189453125;-0.481201171875;-0.61773681640625;-0.42633056640625;16.589103498304965;11.935061014996329;16.90652379581936;-0.9619140625;0.17431640625;0.0927734375;-6.0;5.0;-5.0;
1441975535057627;0.45587158203125;-0.4775390625;-0.61785888671875;-0.4271240234375;16.622055439649394;11.870158460744289;16.85860372578935;-0.97021484375;0.1162109375;0.08984375;-19.5;5.5;-12.5;
1441975535071628;0.4576416015625;-0.4759521484375;-0.6168212890625;-0.42852783203125;16.65109990203715;11.834046329184549;16.82498805736993;-1.0;0.119140625;0.15673828125;-17.3125;0.4375;-14.0;
1441975535093629;0.45904541015625;-0.475341796875;-0.61505126953125;-0.4302978515625;16.68144079423231;11.812076158289834;16.79843805012505;-0.9453125;0.119140625;0.13720703125;-2.75;2.125;-11.75;
1441975535125631;0.46026611328125;-0.47418212890625;-0.613525390625;-0.432373046875;16.710096219685084;11.771595936570378;16.75430207593399;-0.986328125;0.13525390625;0.10009765625;4.0;1.3125;-12.125;
1441975535131632;0.4619140625;-0.47393798828125;-0.611572265625;-0.4337158203125;16.741853661958263;11.76292612219627;16.74140843459247;-0.96875;0.1337890625;0.1123046875;2.6875;-1.125;-14.0;
1441975535154633;0.46417236328125;-0.47308349609375;-0.61029052734375;-0.43402099609375;16.77215754254417;11.756977772433748;16.739738415174436;-0.9619140625;0.1474609375;0.07421875;3.6875;3.25;-13.0;
1441975535176634;0.466796875;-0.4710693359375;-0.60980224609375;-0.43408203125;16.800987007911992;11.727840865430126;16.72229436729926;-0.9775390625;0.1591796875;0.07666015625;-5.0;5.375;-11.4375;
1441975535191635;0.46868896484375;-0.46881103515625;-0.6097412109375;-0.4345703125;16.8218595842144;11.679851470623223;16.684621856485002;-0.994140625;0.12255859375;0.0927734375;-11.9375;3.0625;-10.6875;
1441975535214636;0.46923828125;-0.46746826171875;-0.60919189453125;-0.4361572265625;16.835976919251816;11.62853580694195;16.632544049753086;-0.98291015625;0.10986328125;0.11376953125;-10.75;-0.6875;-9.1875;
1441975535236638;0.46942138671875;-0.4677734375;-0.60675048828125;-0.43896484375;16.861151404433325;11.598184912241;16.58657348406389;-0.9580078125;0.11181640625;0.1484375;0.375;-2.125;-9.125;
1441975535251638;0.46917724609375;-0.4697265625;-0.60357666015625;-0.4415283203125;16.88552737804672;11.609783765826457;16.57514742953131;-0.94384765625;0.1015625;0.1201171875;15.125;0.5;-12.25;
1441975535274640;0.4697265625;-0.47052001953125;-0.601806640625;-0.44256591796875;16.904437230052554;11.619267443066274;16.575735095668268;-0.9716796875;0.1435546875;0.0849609375;22.5;3.5625;-10.5625;
1441975535296641;0.470703125;-0.4693603515625;-0.6014404296875;-0.4432373046875;16.91813607719115;11.58518669616167;16.544777716999068;-0.982421875;0.16943359375;0.0791015625;8.375;3.375;-8.8125;
1441975535311642;0.47064208984375;-0.46856689453125;-0.6009521484375;-0.44482421875;16.92519727105097;11.538463200601235;16.49414674814227;-0.984375;0.1318359375;0.1181640625;-3.8125;-0.4375;-7.6875;
1441975535334643;0.4696044921875;-0.46990966796875;-0.5992431640625;-0.44683837890625;16.931558728029856;11.535533447416555;16.473572276472336;-0.96240234375;0.09716796875;0.15576171875;3.8125;-2.1875;-5.8125;
1441975535358645;0.46875;-0.4715576171875;-0.59759521484375;-0.44818115234375;16.937463442952573;11.5530806169464;16.47525427384808;-0.95263671875;0.12744140625;0.11962890625;17.5;-0.75;-4.0625;
1441975535372645;0.46868896484375;-0.47210693359375;-0.5966796875;-0.44879150390625;16.944348498804114;11.55820121254519;16.474206837541036;-0.95703125;0.1611328125;0.095703125;15.375;1.0;-3.8125;
1441975535393647;0.46868896484375;-0.47210693359375;-0.59625244140625;-0.44940185546875;16.94867059669779;11.54812528245008;16.461115555998703;-0.9638671875;0.1572265625;0.09765625;5.875;0.875;-4.0625;
1441975535416648;0.46844482421875;-0.47259521484375;-0.59552001953125;-0.4501953125;16.953054372432426;11.546625696483442;16.453073309961088;-0.9580078125;0.13525390625;0.1181640625;3.0;-0.0625;-3.0625;
1441975535431649;0.46807861328125;-0.47314453125;-0.59466552734375;-0.45111083984375;16.957473651871048;11.544352316073267;16.443044457781582;-0.95166015625;0.13623046875;0.1064453125;6.1875;-0.125;-2.5;
1441975535453650;0.4677734375;-0.47393798828125;-0.59368896484375;-0.451904296875;16.9628660584847;11.551078748587386;16.441478432529756;-0.96728515625;0.13671875;0.10888671875;7.4375;-0.25;-2.75;
1441975535476651;0.4678955078125;-0.47454833984375;-0.5927734375;-0.4522705078125;16.970801037321788;11.563106695424738;16.448391211593805;-0.9560546875;0.14892578125;0.10595703125;8.1875;1.125;-3.1875;
1441975535491652;0.46783447265625;-0.47503662109375;-0.59246826171875;-0.45220947265625;16.971955223731733;11.577447364191942;16.460443023435058;-0.97119140625;0.13916015625;0.10498046875;5.375;3.0;-2.5625;
1441975535514653;0.46795654296875;-0.47509765625;-0.59259033203125;-0.451904296875;16.9714354487123;11.584886853733586;16.469283795638827;-0.982421875;0.1494140625;0.10693359375;2.125;1.8125;0.125;
1441975535538655;0.468017578125;-0.47552490234375;-0.59246826171875;-0.45147705078125;16.97156891648416;11.604712587252688;16.48894613533257;-0.9736328125;0.13427734375;0.109375;-1.125;1.0;1.5625;
1441975535551656;0.4683837890625;-0.47576904296875;-0.5926513671875;-0.45062255859375;16.9713070168915;11.628201131024253;16.515774521542145;-0.95849609375;0.130859375;0.10595703125;0.3125;2.6875;2.3125;
1441975535582657;0.46875;-0.47540283203125;-0.5933837890625;-0.44970703125;16.967513881470612;11.635253296058337;16.529693406856214;-0.9638671875;0.14404296875;0.0966796875;-3.0;3.125;2.625;
1441975535605659;0.46875;-0.4754638671875;-0.59375;-0.4490966796875;16.96345308997185;11.647008952526997;16.544112590670156;-0.955078125;0.13525390625;0.11767578125;-6.3125;1.5625;3.25;
1441975535619659;0.46856689453125;-0.475830078125;-0.5941162109375;-0.44842529296875;16.95731658212251;11.666402070264837;16.564931267823;-0.9580078125;0.13427734375;0.1220703125;-2.5;1.875;3.5625;
1441975535635660;0.46893310546875;-0.47576904296875;-0.5948486328125;-0.4471435546875;16.95225244950803;11.687601185984398;16.593185537320192;-0.9638671875;0.154296875;0.10595703125;-1.25;1.3125;3.625;
1441975535656662;0.469970703125;-0.47503662109375;-0.5958251953125;-0.445556640625;16.951185436425053;11.700119328975104;16.61820091773531;-0.95263671875;0.15625;0.09130859375;-6.875;1.625;4.1875;
1441975535679663;0.470703125;-0.4744873046875;-0.59661865234375;-0.44427490234375;16.94931315842779;11.710740493925039;16.638517704741467;-0.9638671875;0.130859375;0.10009765625;-12.25;3.0625;4.0625;
1441975535695664;0.470947265625;-0.47454833984375;-0.59710693359375;-0.443359375;16.94553312457673;11.728128779087134;16.66048474740979;-0.97119140625;0.12353515625;0.11328125;-9.0;2.875;4.1875;
1441975535716665;0.4710693359375;-0.47467041015625;-0.5977783203125;-0.442138671875;16.938503497341777;11.751040911743791;16.688891239784645;-0.97021484375;0.13134765625;0.1005859375;-4.0625;1.875;5.0625;
1441975535741666;0.470947265625;-0.47406005859375;-0.59893798828125;-0.44140625;16.928177284727322;11.743244371575656;16.687990638086248;-0.96923828125;0.146484375;0.09375;-5.1875;1.5625;5.75;
1441975535753667;0.4705810546875;-0.4735107421875;-0.5997314453125;-0.44122314453125;16.91971554880051;11.72774151718983;16.67588282960282;-0.9736328125;0.1318359375;0.10302734375;-6.6875;-3.4375;5.5625;
1441975535776668;0.47003173828125;-0.473876953125;-0.60003662109375;-0.4410400390625;16.911899747933678;11.735305478519525;16.68223479530675;-0.96826171875;0.11572265625;0.11279296875;-3.4375;-3.8125;4.625;
1441975535791669;0.4696044921875;-0.47454833984375;-0.6002197265625;-0.44049072265625;16.904601532616844;11.757763729004079;16.703669707989533;-0.9794921875;0.13134765625;0.1044921875;1.375;-1.625;5.0625;
1441975535822671;0.46966552734375;-0.474853515625;-0.6007080078125;-0.43951416015625;16.89860617504927;11.779902679334315;16.729338444597516;-0.97265625;0.14404296875;0.0927734375;1.25;0.1875;6.0625;
1441975535836672;0.4696044921875;-0.474609375;-0.60137939453125;-0.4388427734375;16.891902796726537;11.782332768362476;16.736215647635113;-0.96630859375;0.14453125;0.0966796875;-3.1875;1.75;6.0625;
1441975535859673;0.4696044921875;-0.4747314453125;-0.6016845703125;-0.43841552734375;16.888388053645258;11.790872463064998;16.746506506275054;-0.96533203125;0.13232421875;0.11669921875;-4.0;-0.1875;5.1875;
1441975535874674;0.46966552734375;-0.474853515625;-0.60174560546875;-0.43798828125;16.887122890855547;11.801303902055794;16.75820568949589;-0.96044921875;0.12158203125;0.1162109375;-1.1875;1.1875;4.75;
1441975535896675;0.46966552734375;-0.47454833984375;-0.602294921875;-0.43768310546875;16.88287322667587;11.796559971728616;16.75680302060571;-0.97265625;0.13134765625;0.10498046875;-0.9375;1.375;3.6875;
1441975535914676;0.46954345703125;-0.4744873046875;-0.60247802734375;-0.43756103515625;16.880313377587782;11.795719687906967;16.75669141176846;-0.97509765625;0.130859375;0.1220703125;-3.0625;-0.25;3.5625;
1441975535934677;0.469482421875;-0.47479248046875;-0.60223388671875;-0.43768310546875;16.88137455375255;11.801469723330218;16.76031185575181;-0.9541015625;0.12353515625;0.12158203125;-0.3125;0.125;3.0;
1441975535957679;0.469482421875;-0.47479248046875;-0.60223388671875;-0.43768310546875;16.88137455375255;11.801469723330218;16.76031185575181;-0.9638671875;0.130859375;0.1015625;2.3125;0.5;1.8125;
1441975535972680;0.47015380859375;-0.47412109375;-0.60260009765625;-0.43707275390625;16.88384568715318;11.798601236885004;16.764154261202815;-0.96142578125;0.15234375;0.1005859375;-0.625;0.8125;0.9375;
1441975535993681;0.470947265625;-0.47314453125;-0.60308837890625;-0.43670654296875;16.887619800355807;11.784263106353771;16.75735938354446;-0.96630859375;0.14892578125;0.109375;-6.4375;1.5;0.125;
1441975536016682;0.47125244140625;-0.47222900390625;-0.60345458984375;-0.43682861328125;16.889339059828874;11.760870066211272;16.738197096380162;-0.9697265625;0.1396484375;0.11083984375;-7.6875;0.375;-1.1875;
1441975536032683;0.47174072265625;-0.47216796875;-0.60296630859375;-0.43701171875;16.897517810545697;11.761413316869467;16.73836100543811;-0.962890625;0.14013671875;0.13232421875;-4.125;-0.9375;-1.8125;
1441975536053684;0.4725341796875;-0.4720458984375;-0.6025390625;-0.43695068359375;16.907278422816457;11.766113803719875;16.74459298855147;-0.953125;0.140625;0.10595703125;0.4375;2.25;-2.5;
1441975536076686;0.47369384765625;-0.4713134765625;-0.60235595703125;-0.4366455078125;16.918691957114408;11.761874455497018;16.74614398032259;-0.9580078125;0.1552734375;0.10400390625;-1.625;3.5;-3.5625;
1441975536092686;0.47509765625;-0.47021484375;-0.60205078125;-0.436767578125;16.93470903834297;11.742897022348549;16.733086211927198;-0.96240234375;0.1484375;0.10791015625;-5.75;3.6875;-4.625;
1441975536114688;0.47625732421875;-0.46917724609375;-0.60137939453125;-0.43756103515625;16.952866854961844;11.712927281373501;16.70515570815382;-0.978515625;0.119140625;0.107421875;-6.0;2.75;-5.8125;
1441975536137689;0.47613525390625;-0.4693603515625;-0.59991455078125;-0.439453125;16.96678569995522;11.68835964041429;16.66997254348223;-0.970703125;0.09423828125;0.123046875;-1.8125;2.5;-6.875;
1441975536160690;0.47430419921875;-0.471435546875;-0.59771728515625;-0.44219970703125;16.970955342740123;11.688340211713198;16.644395344039346;-0.97607421875;0.10205078125;0.13037109375;10.5;0.625;-6.375;
1441975536173691;0.4727783203125;-0.4736328125;-0.59552001953125;-0.4444580078125;16.976390501734002;11.702314253149373;16.63475263030356;-0.9619140625;0.14306640625;0.1044921875;25.125;-2.5625;-4.6875;
1441975536204693;0.4720458984375;-0.47515869140625;-0.59381103515625;-0.4459228515625;16.984015927454877;11.716687751359736;16.633428674971395;-0.9384765625;0.134765625;0.076171875;23.125;-1.5;-3.25;
1441975536220694;0.47161865234375;-0.47509765625;-0.59344482421875;-0.4468994140625;16.985457392022322;11.695710677802166;16.607524045518257;-0.9501953125;0.12109375;0.0556640625;15.4375;-0.6875;-1.875;
1441975536236695;0.470947265625;-0.4742431640625;-0.5938720703125;-0.44793701171875;16.98007561835193;11.648660506695927;16.55926083759907;-0.9560546875;0.10302734375;0.0927734375;4.5;-4.1875;-1.125;
1441975536264696;0.46990966796875;-0.47381591796875;-0.593994140625;-0.44940185546875;16.97397084348692;11.604062365598237;16.509034482608598;-0.93310546875;0.09619140625;0.111328125;0.9375;-7.5625;-0.25;
1441975536280697;0.467529296875;-0.47552490234375;-0.59295654296875;-0.45135498046875;16.9635856892345;11.603058374976959;16.487665800101198;-0.91796875;0.0751953125;0.13427734375;5.5625;-6.6875;0.75;
1441975536296698;0.46533203125;-0.47796630859375;-0.5911865234375;-0.45343017578125;16.959637280653116;11.621513831209485;16.4816661494629;-0.8955078125;0.12451171875;0.12890625;20.375;-4.3125;2.1875;
1441975536324700;0.4630126953125;-0.479736328125;-0.58978271484375;-0.45574951171875;16.953161384556303;11.616899892904861;16.454556368619222;-0.8876953125;0.14013671875;0.1015625;24.1875;-1.8125;-0.0625;
1441975536332700;0.4599609375;-0.48052978515625;-0.58935546875;-0.45855712890625;16.935040825623922;11.573226324199583;16.390527487093507;-0.8486328125;0.162109375;0.09423828125;21.9375;-6.125;-3.0;
1441975536353701;0.45654296875;-0.4805908203125;-0.58892822265625;-0.46246337890625;16.915734105029976;11.492431749990407;16.287267361033056;-0.80810546875;0.1923828125;0.1416015625;19.125;-11.625;-5.25;
1441975536376703;0.45220947265625;-0.4803466796875;-0.587646484375;-0.46856689453125;16.896788520760254;11.367632973004072;16.129452520337665;-0.84814453125;0.1708984375;0.1474609375;20.625;-18.1875;-7.875;
1441975536400704;0.445556640625;-0.4808349609375;-0.5858154296875;-0.4766845703125;16.86120790925398;11.228419137064316;15.94107505035781;-0.82958984375;0.08447265625;0.1484375;30.75;-25.875;-10.4375;
1441975536413705;0.43682861328125;-0.482666015625;-0.583740234375;-0.48529052734375;16.80728225642598;11.12304848042366;15.774606007455201;-0.78662109375;0.06396484375;0.1884765625;46.625;-33.625;-9.5;
1441975536436706;0.42840576171875;-0.484375;-0.58135986328125;-0.493896484375;16.75583384173597;11.026515298338929;15.617274691030415;-0.72607421875;0.1083984375;0.21240234375;58.6875;-35.875;-6.25;
1441975536458707;0.4193115234375;-0.4853515625;-0.5784912109375;-0.5040283203125;16.698602982398153;10.90325786634048;15.427543050390375;-0.7099609375;0.09814453125;0.2177734375;58.0625;-34.625;-7.4375;
1441975536473708;0.40740966796875;-0.48760986328125;-0.574462890625;-0.51605224609375;16.623650890813646;10.79831284490956;15.235438133966577;-0.75634765625;0.04638671875;0.26171875;64.0;-40.25;-9.9375;
1441975536496710;0.39208984375;-0.4952392578125;-0.56793212890625;-0.52777099609375;16.547171325117834;10.816890153689018;15.134959187917135;-0.7177734375;0.00390625;0.326171875;85.0625;-44.375;-6.1875;
1441975536518711;0.3773193359375;-0.50360107421875;-0.56103515625;-0.537841796875;16.481316322578646;10.871156396379394;15.073085509111415;-0.60107421875;0.06884765625;0.3310546875;116.5;-41.9375;3.0625;
1441975536542712;0.36468505859375;-0.509033203125;-0.5572509765625;-0.54541015625;16.40703359959383;10.90690991628646;15.023341595503908;-0.5869140625;0.177734375;0.29345703125;114.1875;-33.0625;5.9375;
1441975536556713;0.35546875;-0.510498046875;-0.5556640625;-0.55169677734375;16.338116393967237;10.887442939214296;14.949686549010472;-0.67529296875;0.20556640625;0.28173828125;83.9375;-28.75;6.375;
1441975536578714;0.3477783203125;-0.5093994140625;-0.555908203125;-0.55731201171875;16.262859276925127;10.838288805598234;14.8653177263077;-0.67626953125;0.10546875;0.2939453125;53.1875;-31.0625;6.125;
1441975536594715;0.341064453125;-0.50701904296875;-0.5577392578125;-0.561767578125;16.181560478674;10.787857198575352;14.794096814415436;-0.60888671875;0.04638671875;0.34130859375;34.6875;-32.25;7.6875;
1441975536616716;0.33380126953125;-0.5052490234375;-0.55938720703125;-0.56610107421875;16.098136136515805;10.754281412799239;14.736090446729632;-0.54541015625;0.00146484375;0.3642578125;22.0625;-31.125;13.375;
1441975536638718;0.32476806640625;-0.50482177734375;-0.56072998046875;-0.57037353515625;16.005638425133885;10.750026619130834;14.697409406838771;-0.482421875;-0.0634765625;0.34716796875;27.0625;-30.8125;19.5625;
1441975536653719;0.31439208984375;-0.5057373046875;-0.56170654296875;-0.57440185546875;15.908723597677197;10.771887262782382;14.676430953350335;-0.45263671875;-0.01220703125;0.3447265625;37.0625;-31.5;23.1875;
1441975536676720;0.30548095703125;-0.5059814453125;-0.56195068359375;-0.5787353515625;15.826930318598157;10.775695900629948;14.640575700833327;-0.4716796875;0.0927734375;0.33984375;44.3125;-31.3125;22.75;
1441975536707722;0.29852294921875;-0.50445556640625;-0.56170654296875;-0.58392333984375;15.75817663772511;10.743819183801751;14.576021968522173;-0.56982421875;0.11328125;0.32177734375;39.75;-32.1875;14.375;
1441975536713722;0.29144287109375;-0.50360107421875;-0.56011962890625;-0.58978271484375;15.698403211279249;10.71515296599292;14.506413655301147;-0.61181640625;0.0859375;0.34912109375;31.1875;-32.9375;3.6875;
1441975536736723;0.2847900390625;-0.50390625;-0.5565185546875;-0.59613037109375;15.658743089189455;10.692205537070382;14.433083382207707;-0.67333984375;0.0771484375;0.3876953125;39.9375;-30.125;0.3125;
1441975536758725;0.2799072265625;-0.50579833984375;-0.5517578125;-0.6011962890625;15.649150527600234;10.687305282488216;14.378992829151384;-0.82763671875;0.078125;0.42333984375;48.875;-24.625;-4.9375;
1441975536773725;0.27642822265625;-0.50775146484375;-0.54803466796875;-0.60455322265625;15.64717811149581;10.691855423419549;14.346514990767572;-0.96826171875;-0.0244140625;0.43505859375;52.25;-10.625;1.625;
1441975536796727;0.2734375;-0.50799560546875;-0.54644775390625;-0.607177734375;15.62962859593872;10.68553633085214;14.317901626945625;-0.99267578125;-0.076171875;0.43115234375;42.75;-3.4375;10.0625;
1441975536820728;0.27117919921875;-0.5076904296875;-0.54681396484375;-0.6080322265625;15.605799539350574;10.687473965938775;14.312178271116096;-0.9052734375;-0.04541015625;0.4580078125;28.0625;-5.6875;12.5;
1441975536836729;0.2701416015625;-0.5086669921875;-0.5474853515625;-0.607177734375;15.597765787844311;10.71067315265508;14.33385526035176;-0.81982421875;0.00830078125;0.4755859375;14.375;0.0625;17.125;
1441975536856730;0.27117919921875;-0.50958251953125;-0.5494384765625;-0.6041259765625;15.60131493187686;10.742493920275773;14.380896968760105;-0.826171875;0.02001953125;0.45166015625;10.125;11.125;21.4375;
1441975536879732;0.27264404296875;-0.5118408203125;-0.5518798828125;-0.59930419921875;15.611811724308627;10.801548392778166;14.459270538638387;-0.8896484375;0.03271484375;0.4326171875;-4.75;19.0;27.0625;
1441975536903733;0.2763671875;-0.51348876953125;-0.55621337890625;-0.5921630859375;15.627729222675624;10.865847486477286;14.563903954279393;-0.9033203125;0.109375;0.3994140625;-8.625;27.75;31.0;
1441975536916734;0.28289794921875;-0.512939453125;-0.5623779296875;-0.5836181640625;15.64765635631678;10.909058580588544;14.671723620751248;-0.8720703125;0.16943359375;0.31689453125;-29.6875;32.25;32.875;
1441975536938735;0.2901611328125;-0.51409912109375;-0.56793212890625;-0.5736083984375;15.682500207104043;10.98189439363635;14.808887836714366;-0.9287109375;0.19677734375;0.29248046875;-54.875;32.875;31.5625;
1441975536955736;0.30084228515625;-0.5169677734375;-0.57122802734375;-0.56219482421875;15.76465833077365;11.078123886405223;14.972288479859277;-1.16943359375;0.357421875;0.2529296875;-56.3125;38.9375;29.125;
1441975536976737;0.31298828125;-0.51513671875;-0.57476806640625;-0.553466796875;15.843527361869475;11.09756664867447;15.06942173421143;-1.6103515625;0.38623046875;-0.0185546875;-62.5;38.125;24.9375;
1441975536998738;0.32122802734375;-0.51605224609375;-0.57684326171875;-0.5457763671875;15.90327474372835;11.157168229190837;15.179548917615815;-1.5234375;0.248046875;0.029296875;-74.75;26.0;11.5;
1441975537032740;0.329345703125;-0.51995849609375;-0.57537841796875;-0.5386962890625;15.990456581762988;11.256382255384523;15.308095209003197;-1.0908203125;0.42431640625;0.12353515625;-49.0625;37.0;0.125;
1441975537037741;0.33758544921875;-0.52301025390625;-0.572998046875;-0.53314208984375;16.081844492424185;11.33843217190719;15.415126724330383;-1.12060546875;0.455078125;-0.025390625;-29.3125;41.875;-8.875;
1441975537058742;0.34454345703125;-0.5250244140625;-0.57208251953125;-0.52764892578125;16.14816189434715;11.41455557909164;15.519360481279662;-1.29541015625;0.31396484375;-0.169921875;-27.0;25.5;-6.75;
1441975537075743;0.3504638671875;-0.52728271484375;-0.57244873046875;-0.52105712890625;16.193150741511367;11.512358188860844;15.648286244287029;-1.28662109375;0.220703125;-0.21142578125;-29.4375;13.8125;5.3125;
1441975537096744;0.3544921875;-0.53094482421875;-0.57073974609375;-0.51654052734375;16.237059929830288;11.617852951474855;15.76323253098313;-1.24658203125;0.322265625;-0.1533203125;-31.4375;17.3125;8.875;
1441975537118745;0.35333251953125;-0.54052734375;-0.56402587890625;-0.5146484375;16.273430467247476;11.799953613038397;15.90028788802887;-1.28271484375;0.30224609375;-0.1015625;-9.6875;17.625;6.125;
1441975537142747;0.3497314453125;-0.55377197265625;-0.553955078125;-0.5140380859375;16.30810240145952;12.03843773184451;16.062557999327122;-1.26318359375;0.34521484375;-0.10888671875;45.4375;21.5625;7.875;
1441975537156747;0.348388671875;-0.57281494140625;-0.5384521484375;-0.51055908203125;16.374057272041014;12.441644844989435;16.37199147635604;-1.34375;0.4189453125;-0.1044921875;77.0625;28.8125;5.625;
1441975537178749;0.3465576171875;-0.58795166015625;-0.52703857421875;-0.5064697265625;16.390225878610174;12.785000189570422;16.64477979557846;-1.52490234375;0.28564453125;-0.36376953125;98.125;58.0625;15.9375;
1441975537195750;0.3409423828125;-0.603759765625;-0.51953125;-0.4993896484375;16.31794762766199;13.11739489925876;16.912873172790054;-1.55224609375;0.29833984375;-0.38623046875;72.5;40.5625;24.5625;
1441975537216751;0.34405517578125;-0.62322998046875;-0.5089111328125;-0.4840087890625;16.244769691084677;13.62860709448832;17.38950891353085;-1.3798828125;0.64794921875;-0.04833984375;72.5;60.6875;33.625;
1441975537247753;0.36578369140625;-0.62860107421875;-0.50189208984375;-0.46820068359375;16.289126790586746;14.06681027099495;17.901549245364688;-1.11083984375;0.35693359375;0.34619140625;57.25;145.0;42.5;
1441975537255753;0.40118408203125;-0.61090087890625;-0.5064697265625;-0.45758056640625;16.488605569953275;14.258761187416471;0.29348531004710626;-1.4892578125;1.0341796875;-0.763671875;-53.8125;137.4375;-49.8125;
1441975537276754;0.42108154296875;-0.60247802734375;-0.5294189453125;-0.42376708984375;16.300535220786195;14.298473481475872;0.5790357647432065;-1.39306640625;0.1767578125;0.07666015625;-184.0625;86.0625;-118.9375;
1441975537298755;0.421142578125;-0.60302734375;-0.5240478515625;-0.429443359375;16.35933449726131;14.343319612234767;0.5906196789292936;-1.5087890625;0.53076171875;0.03173828125;-233.9375;103.9375;67.75;
1441975537315756;0.41680908203125;-0.618896484375;-0.4981689453125;-0.4417724609375;16.41565786963116;14.727320808280133;0.8055656782630383;-1.90234375;0.0703125;0.45458984375;43.25;37.1875;3.0;
1441975537336758;0.4071044921875;-0.63031005859375;-0.48712158203125;-0.4468994140625;16.373141920684645;14.836625531108057;0.8063406897393315;-0.88427734375;0.5556640625;0.37841796875;180.25;53.875;-52.6875;
1441975537358759;0.40869140625;-0.6328125;-0.4937744140625;-0.43438720703125;16.243735874867134;14.828580385755727;0.8504971273611496;-0.978515625;1.2353515625;-0.50244140625;108.9375;3.5625;2.625;
1441975537376760;0.41961669921875;-0.61993408203125;-0.514404296875;-0.41839599609375;16.1878826546455;14.641935847325401;0.8392053787787798;-1.21240234375;0.9501953125;-0.15966796875;-44.5625;40.9375;10.8125;
1441975537396761;0.4251708984375;-0.61260986328125;-0.529541015625;-0.40447998046875;16.104837316191084;14.50898631355993;0.8277915988301968;-1.06298828125;0.8408203125;0.25732421875;-172.875;14.875;18.0625;
1441975537418762;0.4241943359375;-0.6102294921875;-0.54034423828125;-0.3946533203125;16.00580654905957;14.39291471724209;0.7755588617959306;-1.0576171875;0.72607421875;0.20947265625;-119.875;17.0625;33.25;
1441975537435763;0.41876220703125;-0.61376953125;-0.54638671875;-0.3865966796875;15.876603242645544;14.334972207933557;0.732322990044112;-0.87890625;0.73828125;4.8828125E-4;-61.3125;5.9375;23.8125;
1441975537456765;0.41845703125;-0.60955810546875;-0.5606689453125;-0.3729248046875;15.748619599641243;14.204650995283545;0.6948458837463085;-0.75634765625;0.8701171875;-0.22705078125;-16.625;-4.8125;27.5625;
1441975537478766;0.42144775390625;-0.5992431640625;-0.57806396484375;-0.35943603515625;15.66309545089182;14.032859224715327;0.6523160160325099;-0.86962890625;0.91845703125;-0.189453125;-94.4375;-3.9375;28.125;
1441975537496767;0.42291259765625;-0.59136962890625;-0.5943603515625;-0.34393310546875;15.542151616175287;13.893908644346423;0.6342983662872214;-0.87939453125;0.705078125;-0.11669921875;-132.6875;-7.8125;40.375;
1441975537519768;0.421142578125;-0.59033203125;-0.60650634765625;-0.326171875;15.362029016193148;13.833515569591535;0.6607129164080661;-0.70654296875;0.5859375;-0.12744140625;-122.8125;1.1875;56.375;
1441975537538769;0.416748046875;-0.593994140625;-0.61370849609375;-0.311279296875;15.1797611643834;13.821793838323169;0.6918087614721039;-0.6435546875;0.7490234375;-0.21435546875;-87.9375;10.9375;60.875;
1441975537555770;0.41485595703125;-0.59478759765625;-0.6209716796875;-0.2977294921875;15.03761582326382;13.799730465887006;0.7247593651122932;-0.6796875;0.8955078125;-0.31640625;-46.625;7.0625;55.625;
1441975537576771;0.41485595703125;-0.593017578125;-0.62982177734375;-0.2821044921875;14.899558019111662;13.764635928789573;0.7693594884511461;-0.6259765625;0.85791015625;-0.33056640625;-59.1875;5.125;38.5625;
1441975537598773;0.4151611328125;-0.59197998046875;-0.63592529296875;-0.26983642578125;14.793954717958858;13.74632917556531;0.8113966292834941;-0.654296875;0.755859375;-0.3564453125;-83.875;9.625;44.5625;
1441975537621774;0.41510009765625;-0.59307861328125;-0.6390380859375;-0.2601318359375;14.70359865165243;13.753093733979973;0.854452440949311;-0.70166015625;0.64306640625;-0.3642578125;-65.375;6.6875;38.6875;
1441975537639775;0.41461181640625;-0.59747314453125;-0.63861083984375;-0.2518310546875;14.613741298784394;13.796815414831247;0.9085929267944942;-0.74755859375;0.63623046875;-0.39306640625;-42.5;6.125;34.0;
1441975537658776;0.4144287109375;-0.6009521484375;-0.6380615234375;-0.24505615234375;14.542042190934508;13.832451454702833;0.953164300537024;-0.767578125;0.607421875;-0.47265625;-17.375;9.375;36.5;
1441975537675777;0.41229248046875;-0.60540771484375;-0.63720703125;-0.2398681640625;14.466730895951889;13.86222500878866;0.9773984219485555;-0.8359375;0.52392578125;-0.44482421875;-16.25;6.8125;35.375;
1441975537696778;0.40875244140625;-0.61346435546875;-0.632568359375;-0.2376708984375;14.396860062903508;13.924197730423685;0.9980744852718904;-0.865234375;0.5234375;-0.359375;-1.875;2.0;40.875;
1441975537718779;0.405029296875;-0.6224365234375;-0.62689208984375;-0.23590087890625;14.32631109699172;13.994917022840298;1.019597216825987;-0.90478515625;0.51416015625;-0.35791015625;33.8125;1.625;40.6875;
1441975537735780;0.400146484375;-0.63128662109375;-0.62164306640625;-0.23443603515625;14.250977747833598;14.05529278065168;1.0279615068587988;-0.9091796875;0.53857421875;-0.34130859375;43.25;5.4375;39.9375;
1441975537756782;0.394775390625;-0.64141845703125;-0.61480712890625;-0.234130859375;14.178712530384558;14.127677760716201;1.034367372353511;-0.84716796875;0.5732421875;-0.27978515625;46.625;3.1875;39.625;
1441975537778783;0.38916015625;-0.64990234375;-0.60968017578125;-0.23358154296875;14.108399016147864;14.179172449694574;1.0298655744948826;-0.8134765625;0.5517578125;-0.296875;59.9375;2.3125;38.3125;
1441975537795784;0.38421630859375;-0.65728759765625;-0.6043701171875;-0.23504638671875;14.064941878805877;14.22666566917564;1.0196101390295436;-0.84912109375;0.63671875;-0.22607421875;51.9375;1.75;36.5625;
1441975537817785;0.37939453125;-0.66326904296875;-0.60009765625;-0.23663330078125;14.028812284358418;14.261102589596845;1.0035976545746483;-0.890625;0.56005859375;-0.17626953125;54.0;-0.8125;30.6875;
1441975537838786;0.37420654296875;-0.66925048828125;-0.59588623046875;-0.23883056640625;13.996110103348991;14.292953520909792;0.9820584632428254;-0.9130859375;0.5634765625;-0.12158203125;48.1875;-1.1875;29.0;
1441975537855787;0.3692626953125;-0.67462158203125;-0.59124755859375;-0.242919921875;13.985087751838767;14.323835011522297;0.9549016112696167;-0.900390625;0.53515625;-0.08837890625;51.0625;-2.5625;30.0;
1441975537877789;0.365234375;-0.67950439453125;-0.5863037109375;-0.247314453125;13.984914275432653;14.35779229271103;0.9331893723433022;-0.88671875;0.5419921875;-0.037109375;56.875;-6.0;19.375;
1441975537898790;0.36273193359375;-0.6800537109375;-0.58587646484375;-0.25048828125;13.996843105300318;14.349941794429089;0.9050250354062609;-0.87890625;0.5537109375;-0.044921875;56.1875;-4.125;12.75;
1441975537915791;0.36004638671875;-0.67864990234375;-0.5877685546875;-0.25372314453125;14.013802141764499;14.317108763679272;0.864164456920201;-0.8583984375;0.5029296875;0.00830078125;20.75;-7.25;9.5625;
1441975537937792;0.35687255859375;-0.67889404296875;-0.588134765625;-0.2567138671875;14.020107322253107;14.30002760210307;0.8286640962410494;-0.76904296875;0.3916015625;0.091796875;7.0;-12.75;11.625;
1441975537958793;0.35321044921875;-0.6822509765625;-0.58544921875;-0.25897216796875;14.007720138153516;14.316302155713958;0.8084890997140664;-0.62353515625;0.3447265625;0.1884765625;22.6875;-5.0625;11.4375;
1441975537975794;0.34735107421875;-0.687744140625;-0.5821533203125;-0.260009765625;13.963618501044834;14.339632611146577;0.7839350514476444;-0.58251953125;0.34765625;0.140625;42.0625;4.125;16.0625;
1441975537997795;0.34002685546875;-0.68963623046875;-0.583251953125;-0.26202392578125;13.928844104548183;14.311804611774122;0.7250814019067293;-0.6435546875;0.45458984375;0.0087890625;48.3125;-0.1875;29.4375;
1441975538018797;0.33001708984375;-0.69158935546875;-0.586181640625;-0.2630615234375;13.865520977642353;14.26536972406277;0.6476245212916207;-0.67041015625;0.4267578125;0.0849609375;25.75;-18.5;34.375;
1441975538035798;0.316650390625;-0.69622802734375;-0.587646484375;-0.26409912109375;13.77182930225773;14.2314288676282;0.5593119994983863;-0.59033203125;0.42333984375;0.1591796875;24.1875;-24.75;48.3125;
1441975538057799;0.30108642578125;-0.70318603515625;-0.58782958984375;-0.2633056640625;13.640922016081223;14.214760165006025;0.4753425996900226;-0.54052734375;0.498046875;0.22998046875;48.125;-26.25;59.5625;
1441975538078800;0.2862548828125;-0.70953369140625;-0.58929443359375;-0.25970458984375;13.489813831883152;14.197003368034217;0.40627209988924523;-0.52880859375;0.7060546875;0.2265625;63.625;-21.125;66.75;
1441975538096801;0.271728515625;-0.71343994140625;-0.59320068359375;-0.25567626953125;13.34038499291063;14.158611524194912;0.33347959791033144;-0.599609375;0.7919921875;0.130859375;47.375;-14.1875;74.875;
1441975538117802;0.25665283203125;-0.7171630859375;-0.597412109375;-0.25103759765625;13.180890845063285;14.120772550837058;0.26237447825746246;-0.66943359375;0.7529296875;0.1865234375;29.9375;-16.4375;82.0;
1441975538138804;0.24078369140625;-0.72296142578125;-0.6005859375;-0.24237060546875;12.976272648553438;14.105204501631542;0.2126987252940954;-0.70458984375;0.75927734375;0.2041015625;29.0625;-15.5625;89.875;
1441975538155804;0.2242431640625;-0.72613525390625;-0.60736083984375;-0.2315673828125;12.749196008043732;14.063398233377649;0.16028152102970167;-0.73779296875;0.734375;0.16064453125;21.0625;-11.1875;109.375;
1441975538177806;0.20758056640625;-0.728515625;-0.61480712890625;-0.2196044921875;12.511310739936313;14.019776133611607;0.1135726992992925;-0.68115234375;0.6982421875;0.18408203125;-4.9375;-13.25;121.5625;
1441975538198807;0.1912841796875;-0.730712890625;-0.621826171875;-0.20721435546875;12.272759834053996;13.982113363707649;0.07438907147481583;-0.5546875;0.6611328125;0.16455078125;-12.0625;-11.375;124.875;
1441975538222808;0.1739501953125;-0.73370361328125;-0.62713623046875;-0.195556640625;12.033670231180832;13.956744346307888;0.0331048664020025;-0.53466796875;0.6494140625;0.18017578125;-11.6875;-8.375;124.4375;
1441975538237809;0.1568603515625;-0.7374267578125;-0.6314697265625;-0.1815185546875;11.775999205486295;13.944284464127048;0.006794882540456036;-0.54638671875;0.67822265625;0.19091796875;0.6875;-12.25;126.125;
1441975538258810;0.14093017578125;-0.73992919921875;-0.63629150390625;-0.1669921875;11.524078795366364;13.927854693918697;17.987476039744184;-0.44287109375;0.73828125;0.0810546875;2.9375;-0.8125;131.5;
1441975538275811;0.1268310546875;-0.73968505859375;-0.64306640625;-0.1527099609375;11.289272748935607;13.894174993023904;17.972713090352894;-0.38720703125;0.8125;0.029296875;-5.3125;3.375;127.0;
1441975538297813;0.11395263671875;-0.73797607421875;-0.65045166015625;-0.13922119140625;11.071395169130266;13.8534723312347;17.96041593215366;-0.3779296875;0.78662109375;-0.01611328125;-26.25;3.8125;118.9375;
1441975538318814;0.10198974609375;-0.73675537109375;-0.6563720703125;-0.12689208984375;10.871249666462417;13.822110195676197;17.950720697706934;-0.33056640625;0.67236328125;0.01220703125;-34.8125;3.75;110.6875;
1441975538350816;0.09088134765625;-0.73602294921875;-0.66058349609375;-0.11712646484375;10.700541300331338;13.799801281361937;17.937202190982198;-0.28271484375;0.5947265625;0.03759765625;-26.3125;3.4375;101.75;
1441975538380817;0.07098388671875;-0.73468017578125;-0.6663818359375;-0.10614013671875;10.450898062725303;13.765081272191914;17.890027727051397;-0.27001953125;0.59912109375;-0.0234375;-9.75;-9.75;80.25;
1441975538396818;0.06414794921875;-0.73388671875;-0.66790771484375;-0.10589599609375;10.395244552699737;13.752382552566237;17.860314989490774;-0.24755859375;0.53955078125;-0.04541015625;-9.8125;-21.0;62.25;
1441975538417819;0.06011962890625;-0.7340087890625;-0.667724609375;-0.1090087890625;10.390331072663468;13.750093443717304;17.83075930816892;-0.2236328125;0.46630859375;-0.029296875;-4.5625;-25.5;37.6875;
1441975538438821;0.05987548828125;-0.7333984375;-0.667236328125;-0.1158447265625;10.446580984569884;13.74535110072792;17.802325287417393;-0.2255859375;0.44921875;-0.0224609375;5.8125;-27.375;12.625;
1441975538455822;0.06390380859375;-0.7318115234375;-0.66668701171875;-0.12640380859375;10.567576607374505;13.73585080036645;17.776595345851582;-0.27978515625;0.49951171875;-0.0166015625;4.0;-28.375;-15.5625;
1441975538485823;0.0723876953125;-0.72991943359375;-0.66485595703125;-0.1414794921875;10.762406204632248;13.728589648628214;17.751865660549484;-0.33447265625;0.55322265625;-0.013671875;-0.6875;-28.625;-46.1875;
1441975538498824;0.08380126953125;-0.72796630859375;-0.661376953125;-0.1605224609375;11.015179873564742;13.725318117655451;17.72398438139801;-0.40625;0.5947265625;-0.029296875;1.0625;-29.875;-80.875;
1441975538516825;0.09906005859375;-0.724853515625;-0.65625;-0.1849365234375;11.345844471896088;13.71992294580513;17.689877521209418;-0.48046875;0.59228515625;-0.03564453125;5.75;-35.875;-119.5625;
1441975538538826;0.1173095703125;-0.72076416015625;-0.649169921875;-0.21307373046875;11.734973132248893;13.714474016346779;17.652335274450124;-0.55810546875;0.56982421875;-0.0244140625;7.625;-44.0625;-157.625;
1441975538566828;0.13824462890625;-0.71624755859375;-0.63909912109375;-0.24407958984375;12.175382721629365;13.716130649615558;17.614999582623447;-0.61328125;0.5224609375;-0.0107421875;11.0625;-48.0;-186.625;
1441975538575829;0.16162109375;-0.7110595703125;-0.6256103515625;-0.27752685546875;12.664237137462003;13.726272343326906;17.57937452949988;-0.6640625;0.48779296875;0.01171875;20.6875;-48.125;-212.0;
1441975538605830;0.1865234375;-0.7047119140625;-0.60894775390625;-0.31280517578125;13.191223490906374;13.74181697349573;17.54356385555353;-0.72509765625;0.462890625;0.01806640625;31.0;-47.4375;-236.125;
1441975538618831;0.2117919921875;-0.69696044921875;-0.589599609375;-0.3489990234375;13.7408221404914;13.759328200896169;17.505183966099292;-0.7734375;0.3466796875;0.07080078125;39.5625;-47.5625;-254.875;
1441975538635832;0.23614501953125;-0.6876220703125;-0.56866455078125;-0.3848876953125;14.292092673784682;13.771551787759579;17.4600020350121;-0.8095703125;0.228515625;0.0869140625;45.8125;-49.5;-264.9375;
1441975538659833;0.25970458984375;-0.6766357421875;-0.54656982421875;-0.41961669921875;14.839314707522677;13.776257938527449;17.40964080438951;-0.81884765625;0.123046875;0.10498046875;48.0;-52.25;-264.9375;
1441975538678834;0.2821044921875;-0.66448974609375;-0.52398681640625;-0.45208740234375;15.368700713631444;13.773021321752038;17.35568869673827;-0.828125;0.0439453125;0.10595703125;47.3125;-52.375;-263.1875;
1441975538695835;0.302490234375;-0.6513671875;-0.5020751953125;-0.48193359375;15.866454378763251;13.747839460930468;17.28505203916635;-0.9453125;-0.05078125;0.04541015625;44.25;-50.0;-253.3125;
1441975538717837;0.3221435546875;-0.63641357421875;-0.48187255859375;-0.50897216796875;16.338495557253356;13.675880667925512;17.182616456806876;-1.0625;-0.08544921875;-0.01611328125;39.3125;-50.875;-237.375;
1441975538740838;0.3427734375;-0.6190185546875;-0.4642333984375;-0.53277587890625;16.790747470538907;13.517979485944595;17.019687116341043;-1.14599609375;-0.0498046875;-0.0732421875;24.6875;-51.4375;-226.4375;
1441975538761839;0.3636474609375;-0.60003662109375;-0.44830322265625;-0.55389404296875;17.218185114467794;13.173068773097489;16.686240343771612;-1.251953125;-0.130859375;-0.11572265625;-0.75;-50.0;-218.0625;
1441975538777840;0.38238525390625;-0.58245849609375;-0.4310302734375;-0.57342529296875;17.599032690835262;12.269253695607821;15.782725460422668;-1.38330078125;-0.20068359375;-0.03564453125;-16.375;-47.0;-209.5;
1441975538800841;0.3990478515625;-0.56671142578125;-0.4112548828125;-0.592041015625;17.77215736932025;8.538301919017124;12.034768641135992;-1.41943359375;-0.1259765625;0.025390625;-4.375;-39.375;-202.375;
1441975538815842;0.41497802734375;-0.55108642578125;-0.3907470703125;-0.6094970703125;17.48744650601156;6.134974264754633;9.611972423267154;-1.41796875;-0.02734375;-0.0380859375;13.1875;-31.0;-200.875;
1441975538837844;0.4305419921875;-0.534423828125;-0.36993408203125;-0.62628173828125;17.107396908585635;5.599560425323025;9.058754091154162;-1.44873046875;0.01708984375;-0.12060546875;15.5625;-28.5625;-200.8125;
1441975538860845;0.4432373046875;-0.51849365234375;-0.34686279296875;-0.643798828125;16.716470902337292;5.4114238286248595;8.832121609228407;-1.5302734375;-0.0693359375;-0.14794921875;14.25;-31.0;-201.5625;
1441975538876846;0.45233154296875;-0.50421142578125;-0.3206787109375;-0.662109375;16.32831936816575;5.332184664958189;8.685733648907524;-1.56591796875;-0.03466796875;-0.09130859375;34.8125;-30.4375;-203.75;
1441975538897847;0.4617919921875;-0.48809814453125;-0.29473876953125;-0.679443359375;15.930592969277967;5.296777405507876;8.590976270303548;-1.458984375;0.16943359375;-0.1455078125;62.75;-26.9375;-205.8125;
1441975538920848;0.47222900390625;-0.46923828125;-0.26934814453125;-0.6959228515625;15.515630536057976;5.2848318981694185;8.532339520552974;-1.36767578125;0.27001953125;-0.189453125;55.0;-31.6875;-212.3125;
1441975538942850;0.4808349609375;-0.4495849609375;-0.24273681640625;-0.712646484375;15.094128071324228;5.297320708488742;8.487840922102247;-1.2734375;0.2275390625;-0.2041015625;42.875;-40.625;-218.375;
1441975538957850;0.48681640625;-0.43017578125;-0.21490478515625;-0.729248046875;14.67853685804485;5.326985224302176;8.44535488585806;-1.23291015625;0.20068359375;-0.1669921875;53.0625;-43.3125;-221.5;
1441975538980852;0.4918212890625;-0.41058349609375;-0.18743896484375;-0.74462890625;14.272897974112384;5.36024235483363;8.405778076391968;-1.1689453125;0.23828125;-0.1533203125;66.75;-42.4375;-219.75;
1441975539001853;0.49383544921875;-0.39190673828125;-0.1600341796875;-0.75958251953125;13.888587555631108;5.408736868720188;8.367731191371853;-1.06787109375;0.24267578125;-0.09765625;65.5;-41.5;-215.0;
1441975539016854;0.494384765625;-0.37420654296875;-0.134765625;-0.77294921875;13.53730249898865;5.460547725768151;8.334776734831916;-0.8818359375;0.1298828125;-0.04638671875;78.0;-39.0625;-201.875;
1441975539039855;0.494384765625;-0.3582763671875;-0.11322021484375;-0.78387451171875;13.234538577735943;5.507011879479177;8.308234210810516;-0.7353515625;0.10302734375;-0.06396484375;76.375;-38.6875;-183.25;
1441975539061856;0.49267578125;-0.34429931640625;-0.094970703125;-0.7935791015625;12.979177972301818;5.558544874830761;8.289911045117703;-0.79443359375;0.076171875;-0.05615234375;65.125;-36.9375;-159.625;
1441975539076857;0.4888916015625;-0.33270263671875;-0.07904052734375;-0.80255126953125;12.768216222974965;5.616214564840067;8.273951717353372;-0.7724609375;0.1494140625;-0.07568359375;63.8125;-36.75;-135.6875;
1441975539099858;0.4847412109375;-0.32867431640625;-0.07086181640625;-0.80743408203125;12.683278871627781;5.654832807816719;8.260883426832416;-0.63916015625;0.26708984375;-0.1181640625;67.4375;-31.9375;-113.5625;
1441975539121860;0.48101806640625;-0.33062744140625;-0.07000732421875;-0.8089599609375;12.70328058418365;5.676187450378692;8.256706287058039;-0.5390625;0.29345703125;-0.162109375;48.25;-24.75;-82.6875;
1441975539136861;0.475341796875;-0.3387451171875;-0.07489013671875;-0.80853271484375;12.823951179817879;5.696655970549361;8.25888338081529;-0.63818359375;0.271484375;-0.1123046875;23.5625;-11.6875;-35.8125;
1441975539159862;0.47222900390625;-0.3489990234375;-0.083740234375;-0.80511474609375;12.986964363113055;5.692821946222141;8.264965134676276;-0.705078125;0.43310546875;-0.1552734375;17.125;0.875;2.625;
1441975539181863;0.46783447265625;-0.36090087890625;-0.09539794921875;-0.8011474609375;13.187385081020825;5.69553614776932;8.281433417657409;-0.65087890625;0.4072265625;-0.14697265625;-9.25;8.3125;26.875;
1441975539196864;0.4549560546875;-0.3790283203125;-0.10906982421875;-0.7984619140625;13.47862040916655;5.744726870850153;8.30420084462418;-0.634765625;0.25;-0.09765625;-8.5;11.125;55.3125;
1441975539219865;0.4449462890625;-0.39764404296875;-0.12567138671875;-0.7926025390625;13.79105870952909;5.771758847730124;8.333117470679214;-0.66650390625;0.4130859375;-0.1484375;31.6875;24.3125;89.625;
1441975539241867;0.4425048828125;-0.41900634765625;-0.1531982421875;-0.7779541015625;14.194977380154967;5.733654392677655;8.37951496762063;-0.845703125;0.6767578125;-0.3369140625;6.375;40.125;132.375;
1441975539256867;0.433837890625;-0.4447021484375;-0.1842041015625;-0.76165771484375;14.684843019228238;5.7324558936898296;8.44515190482791;-1.21484375;0.47412109375;-0.232421875;-73.5;49.5625;177.6875;
1441975539279869;0.41644287109375;-0.4747314453125;-0.2138671875;-0.745361328125;15.234194340028871;5.793132174417459;8.52525736201152;-1.4404296875;0.41748046875;-0.10302734375;-55.5;59.875;220.0;
1441975539301870;0.39947509765625;-0.50628662109375;-0.24896240234375;-0.72259521484375;15.852208765306033;5.867492671332062;8.64939531123494;-1.57275390625;0.62744140625;-0.15625;-9.375;72.625;244.8125;
1441975539317871;0.37457275390625;-0.540771484375;-0.28668212890625;-0.696533203125;16.54699526812294;6.122204777397985;8.934350895870883;-1.966796875;0.25927734375;-0.20263671875;-38.125;83.0;284.375;
1441975539339872;0.34527587890625;-0.5777587890625;-0.32476806640625;-0.66448974609375;17.27738980310134;6.917751813987338;9.75190514245025;-2.359375;0.01025390625;0.052734375;-17.0625;92.0625;336.3125;
1441975539361873;0.3214111328125;-0.60931396484375;-0.3756103515625;-0.6199951171875;17.55228152052576;11.464905645725581;14.420240720384438;-2.60791015625;0.12158203125;0.03662109375;-9.0625;117.3125;375.5;
1441975539376874;0.29669189453125;-0.6322021484375;-0.43359375;-0.569580078125;16.77792556935839;13.164735174850094;16.293309911115628;-2.97314453125;0.06494140625;0.08349609375;-107.125;122.625;419.125;
1441975539399876;0.26123046875;-0.654296875;-0.4810791015625;-0.52178955078125;15.908507203509895;13.440969010937824;16.6668550354508;-3.13427734375;-0.26953125;0.29931640625;-158.8125;97.8125;444.4375;
1441975539421877;0.21881103515625;-0.6768798828125;-0.519775390625;-0.47314453125;15.021811232675297;13.569284969821283;16.840286378124013;-2.93408203125;-0.21923828125;0.087890625;-82.8125;76.625;441.125;
1441975539436878;0.17425537109375;-0.696533203125;-0.5538330078125;-0.42169189453125;14.129724199472566;13.641931916807255;16.948790294951813;-2.8037109375;0.021484375;-0.0859375;-29.0;75.3125;443.875;
1441975539459879;0.133056640625;-0.71087646484375;-0.58331298828125;-0.369873046875;13.292346577022963;13.680019710695515;17.033841378093808;-2.94873046875;0.484375;-0.00634765625;-17.5;77.4375;444.3125;
1441975539481880;0.10552978515625;-0.7125244140625;-0.61480712890625;-0.32135009765625;12.599061666587483;13.633073117069827;17.119702116175;-3.00537109375;0.91796875;0.001953125;-24.3125;81.625;415.4375;
