1441975693036663;0.155029296875;-0.73931884765625;-0.56170654296875;-0.3375244140625;13.231418243629262;14.05033169431669;17.415064601692485;-2.91455078125;0.193359375;0.14599609375;-126.0625;170.0;402.4375;
1441975693050664;0.13494873046875;-0.74102783203125;-0.59307861328125;-0.28460693359375;12.557929284658492;13.976231023883397;17.51306235599484;-2.521484375;0.33203125;0.27392578125;-118.0625;128.4375;371.625;
1441975693073665;0.126953125;-0.72967529296875;-0.62890625;-0.23663330078125;12.033023100180685;13.822694353099166;17.625993168892602;-2.529296875;0.318359375;0.20947265625;-135.9375;135.5;318.1875;
1441975693096667;0.12255859375;-0.704345703125;-0.670654296875;-0.197998046875;11.631213106774457;13.570767064252102;17.70250305252363;-2.255859375;0.306640625;0.04931640625;-215.375;130.3125;246.75;
1441975693110667;0.11163330078125;-0.6861572265625;-0.6990966796875;-0.1676025390625;11.270891145705962;13.395787294067679;17.747701306255927;-2.2373046875;-0.56787109375;-0.0234375;-288.25;81.1875;196.25;
1441975693133669;0.0897216796875;-0.6904296875;-0.70343017578125;-0.14324951171875;10.890549624536286;13.407356159310034;17.764651385484648;-2.00830078125;-1.208984375;-0.07666015625;-193.75;39.9375;180.625;
1441975693156670;0.06976318359375;-0.70159912109375;-0.69854736328125;-0.1224365234375;10.56196635740114;13.482596755321858;17.782168577125606;-1.5361328125;-0.86767578125;-0.001953125;5.375;9.375;190.6875;
1441975693170671;0.05517578125;-0.70892333984375;-0.69610595703125;-0.09979248046875;10.260782602379074;13.532565286809646;17.821715926427235;-1.13720703125;-0.16748046875;0.10400390625;71.5625;13.75;184.0;
1441975693201673;0.04962158203125;-0.70782470703125;-0.70062255859375;-0.07537841796875;10.015058056471183;13.520151431034153;17.89702231985945;-0.80615234375;0.41162109375;0.19677734375;43.75;39.625;162.625;
1441975693225674;0.05206298828125;-0.69525146484375;-0.71478271484375;-0.05535888671875;9.870774501496614;13.419152825020863;17.980451577565656;-0.65966796875;0.736328125;0.0732421875;-25.8125;75.25;131.3125;
1441975693254676;0.05816650390625;-0.6783447265625;-0.73150634765625;-0.0382080078125;9.786974849937268;13.288634121455134;0.06655980311154377;-0.6298828125;0.5732421875;0.048828125;-114.125;81.6875;81.9375;
1441975693255676;0.06427001953125;-0.6632080078125;-0.745361328125;-0.0233154296875;9.728034077914414;13.175488937618931;0.14587538777529332;-0.64892578125;0.373046875;-0.046875;-143.8125;82.25;56.4375;
1441975693277677;0.07598876953125;-0.652099609375;-0.75421142578125;-0.015380859375;9.773966384942659;13.099570839011829;0.21964472193199697;-0.55517578125;0.529296875;-0.0126953125;-124.75;74.5625;45.0;
1441975693291678;0.09051513671875;-0.6441650390625;-0.75946044921875;-0.01348876953125;9.890793802186318;13.052181356132888;0.27915252835784754;-0.44580078125;0.7021484375;-0.00244140625;-92.25;71.5625;10.5625;
1441975693313679;0.10443115234375;-0.63885498046875;-0.7620849609375;-0.01641845703125;10.037754214036186;13.026062978062221;0.3163471312931293;-0.5009765625;0.701171875;0.005859375;-63.0625;61.6875;-22.4375;
1441975693336680;0.1171875;-0.63848876953125;-0.7603759765625;-0.02191162109375;10.189875539440058;13.037636756500854;0.34134945883238177;-0.53857421875;0.62353515625;0.09912109375;-32.4375;43.3125;-37.9375;
1441975693350681;0.130126953125;-0.639892578125;-0.75689697265625;-0.02850341796875;10.34996878171145;13.064363970525614;0.36446480887081606;-0.5107421875;0.69873046875;0.1455078125;8.75;33.1875;-46.625;
1441975693373682;0.143798828125;-0.6395263671875;-0.75439453125;-0.03582763671875;10.523448672944324;13.080708906573468;0.3867484773724824;-0.56884765625;0.83984375;0.111328125;20.4375;30.375;-50.875;
1441975693396684;0.15863037109375;-0.636474609375;-0.7535400390625;-0.04412841796875;10.717145186778708;13.080211382719247;0.4074175551791794;-0.6748046875;0.90625;0.09716796875;8.8125;29.25;-54.0625;
1441975693410685;0.1748046875;-0.63201904296875;-0.75311279296875;-0.05340576171875;10.931675450969598;13.07336418442819;0.4281471787526105;-0.75927734375;0.8349609375;0.08740234375;-8.625;28.3125;-59.875;
1441975693433686;0.192138671875;-0.62750244140625;-0.751953125;-0.06317138671875;11.160476442345262;13.070923327081138;0.45209689699126787;-0.83984375;0.6865234375;0.07958984375;-14.9375;29.0;-64.0625;
1441975693456687;0.21099853515625;-0.62353515625;-0.749267578125;-0.073486328125;11.406564039347563;13.079731970319013;0.48228167803124977;-0.89404296875;0.58447265625;0.07666015625;-11.25;32.4375;-67.0;
1441975693470688;0.23193359375;-0.61993408203125;-0.74493408203125;-0.08404541015625;11.672507241274758;13.10142362709789;0.5235836930286828;-0.9423828125;0.55517578125;0.0634765625;-4.0;38.8125;-73.6875;
1441975693493689;0.25506591796875;-0.6156005859375;-0.7396240234375;-0.09503173828125;11.962101793636647;13.129743008789598;0.5754431550744302;-0.9716796875;0.57958984375;0.02978515625;0.875;48.125;-84.25;
1441975693516691;0.2767333984375;-0.61053466796875;-0.7347412109375;-0.10430908203125;12.2275576311429;13.155646228014502;0.630630471884446;-1.00341796875;0.61328125;0.00146484375;-0.5625;56.9375;-98.0;
1441975693530691;0.30029296875;-0.6036376953125;-0.72943115234375;-0.11590576171875;12.530877266636391;13.18006996485826;0.6855887514551131;-1.04345703125;0.63232421875;-0.02392578125;-4.125;61.5625;-116.4375;
1441975693553693;0.32562255859375;-0.5953369140625;-0.72296142578125;-0.13031005859375;12.874923121556279;13.208611535454384;0.7401888817130077;-1.08056640625;0.65283203125;-0.04052734375;-7.5625;60.875;-136.625;
1441975693576694;0.35247802734375;-0.5858154296875;-0.71466064453125;-0.14788818359375;13.261382500937314;13.245906978387179;0.794887788582299;-1.1083984375;0.65576171875;-0.044921875;-5.9375;59.6875;-158.6875;
1441975693590695;0.38055419921875;-0.5745849609375;-0.70465087890625;-0.16900634765625;13.692706472946645;13.2895504431255;0.8476246540057661;-1.1357421875;0.6708984375;-0.048828125;0.375;57.6875;-182.0625;
1441975693613696;0.4085693359375;-0.561767578125;-0.69268798828125;-0.1942138671875;14.164592557093743;13.338224484043055;0.8913767703987143;-1.16845703125;0.63427734375;-0.06494140625;4.875;53.1875;-206.375;
1441975693636697;0.43670654296875;-0.5482177734375;-0.67755126953125;-0.22296142578125;14.674195332480586;13.408403631346214;0.9396880358530537;-1.2060546875;0.55859375;-0.0654296875;14.4375;41.9375;-228.4375;
1441975693650698;0.46331787109375;-0.534912109375;-0.6588134765625;-0.25537109375;15.208503833682975;13.509452744556235;0.9938648018132497;-1.23193359375;0.4873046875;-0.05078125;30.375;38.6875;-248.6875;
1441975693673700;0.48699951171875;-0.52178955078125;-0.63726806640625;-0.290771484375;15.75265800580995;13.64074613336001;1.0550052350159385;-1.33154296875;0.40234375;-0.08544921875;53.625;30.3125;-262.4375;
1441975693696701;0.50592041015625;-0.50994873046875;-0.61309814453125;-0.32891845703125;16.289055053076773;13.811476566525723;1.1257870692426308;-1.38134765625;0.29443359375;-0.06298828125;75.5625;18.0;-268.3125;
1441975693710702;0.5205078125;-0.49932861328125;-0.58648681640625;-0.36859130859375;16.811316097603573;14.065948156917457;1.2561877266413006;-1.38671875;0.2021484375;-0.013671875;104.1875;3.3125;-266.1875;
1441975693733703;0.5311279296875;-0.49005126953125;-0.5587158203125;-0.40692138671875;17.289831218331482;14.55480828272558;1.6092722972289806;-1.365234375;0.10498046875;0.03857421875;128.4375;-5.875;-259.9375;
1441975693756704;0.53863525390625;-0.47998046875;-0.5335693359375;-0.44140625;17.684722416645;15.907776204576221;2.8404024345547;-1.41650390625;0.076171875;0.041015625;140.5625;-9.25;-244.375;
1441975693770705;0.5438232421875;-0.4691162109375;-0.51092529296875;-0.472412109375;17.73207833337762;2.373751286189272;7.198360484924182;-1.41162109375;0.01171875;-0.01025390625;125.6875;-19.0;-220.375;
1441975693793706;0.54473876953125;-0.46051025390625;-0.489990234375;-0.50115966796875;17.44727544440706;3.9748565688795896;8.684439425570694;-1.3544921875;-0.2041015625;0.02880859375;111.8125;-25.875;-197.375;
1441975693816708;0.54290771484375;-0.454345703125;-0.47125244140625;-0.52606201171875;17.177835629522946;4.452745722974343;9.049693433094271;-1.25244140625;-0.16845703125;0.044921875;118.0625;-31.5;-169.0625;
1441975693830709;0.54046630859375;-0.44952392578125;-0.4559326171875;-0.5458984375;16.959855454456804;4.685834792967364;9.188643925769824;-1.15478515625;-0.08984375;0.0439453125;115.125;-29.25;-139.6875;
1441975693854710;0.53741455078125;-0.44610595703125;-0.445068359375;-0.5604248046875;16.807061331351157;4.838079404263755;9.268810233801155;-1.1171875;-0.04345703125;-0.005859375;95.75;-25.375;-111.375;
1441975693876711;0.53533935546875;-0.4432373046875;-0.4383544921875;-0.5699462890625;16.70433062255133;4.935383067363419;9.32152109077493;-1.12548828125;-0.0478515625;-0.03076171875;74.375;-26.375;-87.6875;
1441975693890712;0.53448486328125;-0.44146728515625;-0.4349365234375;-0.57470703125;16.64921678974496;4.979203599314094;9.344319611370056;-1.06201171875;0.029296875;-0.03857421875;46.3125;-23.375;-68.0;
1441975693913713;0.53533935546875;-0.440185546875;-0.43463134765625;-0.57513427734375;16.63238786638453;4.978786407217506;9.347930926333555;-1.041015625;0.09033203125;-0.05712890625;22.1875;-16.125;-49.625;
1441975693936715;0.5377197265625;-0.43878173828125;-0.43695068359375;-0.572265625;16.6416835302594;4.949989179784738;9.345039080373779;-1.02880859375;0.13232421875;-0.0732421875;-3.1875;-10.0625;-34.0625;
1441975693950715;0.54022216796875;-0.437255859375;-0.4407958984375;-0.56805419921875;16.665719443897643;4.923020629466197;9.352953693983016;-1.01708984375;0.119140625;-0.0673828125;-25.125;-6.0625;-20.375;
1441975693973717;0.54168701171875;-0.43695068359375;-0.44525146484375;-0.56341552734375;16.708629240725188;4.9029929357968545;9.364280160381758;-0.9931640625;0.03955078125;-0.03662109375;-34.125;-4.9375;-6.625;
1441975693996718;0.54107666015625;-0.43902587890625;-0.44964599609375;-0.55889892578125;16.776109806125316;4.893684117627685;9.372933787925305;-0.94677734375;0.0068359375;-0.01025390625;-31.0625;-2.625;6.375;
1441975694010719;0.5386962890625;-0.44305419921875;-0.4534912109375;-0.554931640625;16.85867369712306;4.893714231027596;9.37702123979024;-0.8994140625;0.04052734375;-0.01708984375;-17.375;0.0;17.625;
1441975694034720;0.53466796875;-0.447998046875;-0.45721435546875;-0.55169677734375;16.949760308356314;4.9234168817069675;9.400941177876451;-0.8701171875;0.072265625;-0.05859375;-3.625;-1.0;23.9375;
1441975694056722;0.5291748046875;-0.45361328125;-0.46124267578125;-0.549072265625;17.049563673150338;4.995780521928681;9.46051392801252;-0.8271484375;0.10986328125;-0.06103515625;6.875;-3.8125;27.8125;
1441975694070722;0.52410888671875;-0.4591064453125;-0.46588134765625;-0.54547119140625;17.15526461973761;5.071549254404814;9.529646359086744;-0.80126953125;0.16015625;-0.0625;13.9375;-8.0;30.6875;
1441975694093724;0.51959228515625;-0.46405029296875;-0.47113037109375;-0.54107666015625;17.262120775524842;5.161852006549919;9.62050164201533;-0.81298828125;0.18017578125;-0.07080078125;8.0625;-7.5;33.1875;
1441975694116725;0.5157470703125;-0.46844482421875;-0.4769287109375;-0.535888671875;17.369162559691272;5.270560729482752;9.737114201224358;-0.8193359375;0.19970703125;-0.07763671875;0.6875;-7.8125;33.5625;
1441975694130726;0.51226806640625;-0.4722900390625;-0.48236083984375;-0.53094482421875;17.46633413317044;5.411521392191814;9.886840932275335;-0.77587890625;0.2265625;-0.06982421875;-7.0625;-7.0625;33.875;
1441975694161728;0.50811767578125;-0.4761962890625;-0.48663330078125;-0.527587890625;17.54856545065964;5.628574693290874;10.102677681250523;-0.7548828125;0.20068359375;-0.07080078125;-7.9375;-6.8125;32.3125;
1441975694176728;0.50225830078125;-0.481201171875;-0.48992919921875;-0.52557373046875;17.6267832923684;5.994496605488929;10.45268582647996;-0.78955078125;0.15576171875;-0.04541015625;1.875;-7.875;29.875;
1441975694190729;0.4957275390625;-0.48687744140625;-0.4923095703125;-0.52435302734375;17.695061523633647;6.522669926991825;10.956204486849497;-0.7939453125;0.1806640625;-0.0185546875;16.75;-8.5;30.125;
1441975694213730;0.490478515625;-0.49212646484375;-0.4947509765625;-0.52203369140625;17.75519417193799;7.197954999147316;11.615055236268287;-0.76904296875;0.21240234375;-0.02880859375;24.875;-8.5;28.125;
1441975694236732;0.48651123046875;-0.49609375;-0.498046875;-0.51885986328125;17.793195861929373;8.137117775855913;12.550026504078964;-0.787109375;0.23681640625;-0.0478515625;16.875;-4.6875;25.3125;
1441975694250733;0.48333740234375;-0.49859619140625;-0.5018310546875;-0.51580810546875;17.795290325602412;9.14467765859088;13.560911219909586;-0.83544921875;0.21044921875;-0.041015625;4.3125;-4.625;25.75;
1441975694272734;0.4803466796875;-0.50091552734375;-0.50567626953125;-0.5125732421875;17.774059571771552;10.053657811689607;14.474959767315893;-0.8525390625;0.1259765625;-0.013671875;-3.1875;-6.5625;27.0;
1441975694296735;0.47705078125;-0.50396728515625;-0.50946044921875;-0.5089111328125;17.73434124174714;10.854118851198763;15.278563744013242;-0.8447265625;0.0830078125;0.01171875;-4.5625;-4.75;30.75;
1441975694311736;0.4739990234375;-0.5069580078125;-0.51373291015625;-0.50445556640625;17.677374540328138;11.464120876784934;15.896252150231236;-0.87890625;0.07763671875;-4.8828125E-4;-2.5;-2.6875;35.75;
1441975694341738;0.47076416015625;-0.509765625;-0.5191650390625;-0.49908447265625;17.5983162203395;11.899349335017753;16.34511346980739;-0.919921875;0.05078125;-0.00634765625;-7.125;-1.75;41.8125;
1441975694357739;0.467041015625;-0.51300048828125;-0.5250244140625;-0.4930419921875;17.502968924107783;12.219739395456198;16.679660831425444;-0.939453125;0.0302734375;0.0107421875;-12.6875;-2.4375;50.0;
1441975694370739;0.46270751953125;-0.51690673828125;-0.53106689453125;-0.486572265625;17.39374765161476;12.460382545922261;16.932542930822844;-0.9580078125;0.03173828125;0.01025390625;-13.375;-1.8125;57.4375;
1441975694393741;0.4581298828125;-0.52093505859375;-0.53729248046875;-0.479736328125;17.276440036093273;12.632228421776553;17.117161684740253;-0.98779296875;0.04931640625;0.009765625;-11.125;-1.0625;63.0;
1441975694416742;0.452880859375;-0.525146484375;-0.5438232421875;-0.47271728515625;17.148672923476663;12.7498597177504;17.246528466218585;-1.0205078125;0.0263671875;0.0048828125;-11.625;-1.4375;69.0625;
1441975694438743;0.4466552734375;-0.53009033203125;-0.55035400390625;-0.46551513671875;17.00895555654607;12.843547564993944;17.347584085074743;-0.9833984375;0.01513671875;0.0322265625;-10.1875;-1.25;75.0625;
1441975694453744;0.4398193359375;-0.53546142578125;-0.5570068359375;-0.4578857421875;16.85940384187445;12.920178554701817;17.430194367581336;-0.90234375;0.0361328125;0.046875;-5.75;-0.4375;79.9375;
1441975694475745;0.43304443359375;-0.54058837890625;-0.56414794921875;-0.449462890625;16.703546322746757;12.97979641775413;17.50038543261495;-0.86962890625;0.0625;0.05322265625;-3.8125;0.1875;83.5625;
1441975694490746;0.42694091796875;-0.544677734375;-0.57220458984375;-0.440185546875;16.546263058490904;13.015803260959366;17.55704789524888;-0.8837890625;0.1025390625;0.04248046875;-8.8125;0.25;86.0;
1441975694521748;0.42144775390625;-0.54730224609375;-0.5811767578125;-0.4302978515625;16.39042615023493;13.024971791173634;17.59737352714586;-0.90380859375;0.1298828125;0.02685546875;-19.1875;-1.5;86.75;
1441975694535749;0.4163818359375;-0.54931640625;-0.590087890625;-0.42041015625;16.240417462262087;13.025686207416458;17.632203242177688;-0.8984375;0.1435546875;0.03515625;-29.3125;-2.875;86.1875;
1441975694553750;0.41162109375;-0.5511474609375;-0.5980224609375;-0.41143798828125;16.103929346633272;13.024252201463446;17.66093609235771;-0.91064453125;0.1591796875;0.04248046875;-32.625;-2.8125;83.75;
1441975694572751;0.40728759765625;-0.55303955078125;-0.60455322265625;-0.403564453125;15.984246138766501;13.027256260069517;17.687992599419637;-0.95458984375;0.1806640625;0.04248046875;-28.125;-3.125;78.25;
1441975694595752;0.40325927734375;-0.5545654296875;-0.6103515625;-0.39666748046875;15.877776521884462;13.025271291841825;17.70710723280212;-1.00537109375;0.20458984375;0.033203125;-22.75;-2.875;71.0625;
1441975694610753;0.39984130859375;-0.55548095703125;-0.61578369140625;-0.3905029296875;15.784386357420038;13.017311866559877;17.720638165734762;-0.99609375;0.20947265625;0.04150390625;-19.75;-3.5;64.8125;
1441975694633755;0.39715576171875;-0.5560302734375;-0.62054443359375;-0.3848876953125;15.704580491273454;13.010574097609103;17.735071452085556;-0.95361328125;0.19775390625;0.06201171875;-19.75;-2.8125;58.9375;
1441975694656756;0.39508056640625;-0.55633544921875;-0.62457275390625;-0.3800048828125;15.638367521723596;13.004897400556194;17.74879384775796;-0.91455078125;0.1962890625;0.0849609375;-18.625;-0.1875;52.1875;
1441975694670757;0.3941650390625;-0.55621337890625;-0.6280517578125;-0.3753662109375;15.58670237311535;13.002802224473799;17.768408659144466;-0.8984375;0.21533203125;0.10791015625;-16.5625;2.375;44.3125;
1441975694693758;0.3948974609375;-0.5548095703125;-0.6314697265625;-0.370849609375;15.553244967401232;12.995774246072594;17.79111003830456;-0.888671875;0.2587890625;0.09765625;-18.4375;5.125;35.5625;
1441975694715759;0.397216796875;-0.5517578125;-0.63519287109375;-0.3665771484375;15.537873828315174;12.977075152734983;17.811745524364124;-0.88916015625;0.26904296875;0.087890625;-26.625;7.5;26.3125;
1441975694730760;0.40093994140625;-0.5474853515625;-0.63873291015625;-0.36279296875;15.541589014853088;12.951990830258358;17.83163661195874;-0.89013671875;0.248046875;0.0859375;-36.1875;7.75;18.8125;
1441975694752761;0.4053955078125;-0.54290771484375;-0.64154052734375;-0.35968017578125;15.559763765435576;12.928683616983825;17.852144695316905;-0.88818359375;0.20361328125;0.09716796875;-42.0;10.0;12.0625;
1441975694775763;0.41021728515625;-0.53857421875;-0.6434326171875;-0.35736083984375;15.589196680312417;12.911150953273202;17.873647328176315;-0.8857421875;0.18212890625;0.1142578125;-39.375;12.25;6.1875;
1441975694790764;0.41558837890625;-0.53399658203125;-0.644775390625;-0.35565185546875;15.63016299414847;12.89427331663817;17.894598060175852;-0.89306640625;0.1865234375;0.0986328125;-35.4375;12.875;0.375;
1441975694812765;0.421142578125;-0.529052734375;-0.64599609375;-0.35430908203125;15.676782388877037;12.873491349162139;17.91174521301279;-0.91796875;0.18505859375;0.08642578125;-34.75;12.6875;-4.875;
1441975694835766;0.4267578125;-0.52386474609375;-0.6468505859375;-0.3536376953125;15.730687441794275;12.849001899688872;17.92295365784355;-0.92041015625;0.1806640625;0.07421875;-35.5625;10.8125;-8.25;
1441975694858767;0.4322509765625;-0.51873779296875;-0.64715576171875;-0.35400390625;15.792352353533111;12.821430238111502;17.92574358323469;-0.91943359375;0.1748046875;0.064453125;-34.3125;8.8125;-12.375;
1441975694873768;0.4373779296875;-0.51385498046875;-0.646728515625;-0.3555908203125;15.861136329094801;12.790889989216097;17.917953029647606;-0.9404296875;0.1787109375;0.0712890625;-29.5625;7.0;-17.0625;
1441975694895770;0.44256591796875;-0.50927734375;-0.64544677734375;-0.35809326171875;15.938812476329643;12.762752838283134;17.906545421331508;-0.95556640625;0.17578125;0.072265625;-22.5625;4.4375;-22.125;
1441975694910770;0.4471435546875;-0.505126953125;-0.6436767578125;-0.36138916015625;16.017196105355012;12.732154939330647;17.88589361969786;-0.974609375;0.1689453125;0.06787109375;-17.125;4.0625;-26.25;
1441975694932772;0.4512939453125;-0.50152587890625;-0.64117431640625;-0.36572265625;16.09977452700763;12.700828581023348;17.856422012134104;-0.9736328125;0.1689453125;0.09619140625;-10.0;3.25;-28.6875;
1441975694955773;0.455078125;-0.4984130859375;-0.63800048828125;-0.37078857421875;16.18516837954357;12.669732440591975;17.820606832086828;-0.97119140625;0.16015625;0.10107421875;-2.375;2.375;-31.6875;
1441975694970774;0.45843505859375;-0.49578857421875;-0.63458251953125;-0.37603759765625;16.26757538461075;12.639309023040651;17.781609509365214;-0.96728515625;0.15185546875;0.107421875;4.0625;2.3125;-33.9375;
1441975694992775;0.461669921875;-0.4932861328125;-0.63104248046875;-0.38128662109375;16.349031284528962;12.607390258763512;17.740121721160147;-0.96044921875;0.17724609375;0.1123046875;8.1875;2.25;-35.6875;
1441975695015776;0.46533203125;-0.49005126953125;-0.6278076171875;-0.38629150390625;16.433086260438504;12.564064865286948;17.69223681780767;-0.9697265625;0.20263671875;0.109375;8.4375;2.1875;-37.875;
1441975695030777;0.46923828125;-0.48626708984375;-0.6248779296875;-0.39111328125;16.51779007789381;12.508343507059298;17.63570355442591;-0.98193359375;0.1875;0.1142578125;3.625;2.3125;-39.0625;
1441975695053779;0.4730224609375;-0.4825439453125;-0.62188720703125;-0.3958740234375;16.600796743965216;12.447369601761478;17.573451730696686;-0.97900390625;0.15478515625;0.1171875;-0.125;1.75;-38.875;
1441975695075780;0.47637939453125;-0.47930908203125;-0.61883544921875;-0.4005126953125;16.67798465958352;12.386212184642995;17.50860738408764;-0.9638671875;0.1318359375;0.1162109375;0.25;2.0625;-37.8125;
1441975695090781;0.47918701171875;-0.47662353515625;-0.615966796875;-0.40484619140625;16.745925050586663;12.325945801804526;17.4429491320969;-0.9580078125;0.1142578125;0.115234375;2.8125;2.1875;-35.375;
1441975695113782;0.4815673828125;-0.4742431640625;-0.61328125;-0.4088134765625;16.80618935938429;12.26521466841847;17.376402938005555;-0.947265625;0.12353515625;0.11767578125;4.75;2.0625;-32.375;
1441975695135783;0.4837646484375;-0.47198486328125;-0.6109619140625;-0.41229248046875;16.859641639713008;12.203505526703175;17.31051323555106;-0.96728515625;0.1328125;0.1123046875;5.125;1.1875;-29.375;
1441975695158785;0.485595703125;-0.46990966796875;-0.6090087890625;-0.41534423828125;16.904966258612014;12.140796721005506;17.244400372672352;-0.9912109375;0.130859375;0.10595703125;3.375;0.5;-26.5625;
1441975695174785;0.48699951171875;-0.46826171875;-0.6072998046875;-0.41802978515625;16.94215865183594;12.083389730456386;17.18293000575066;-0.99267578125;0.130859375;0.1064453125;2.3125;0.0625;-23.25;
1441975695195787;0.48773193359375;-0.46728515625;-0.60565185546875;-0.4207763671875;16.971554344862263;12.030437642014641;17.122039250369998;-0.98681640625;0.1240234375;0.1083984375;3.6875;-0.25;-19.3125;
1441975695226788;0.48785400390625;-0.4669189453125;-0.60406494140625;-0.42327880859375;16.992896243482434;11.988570224028582;17.069672073171294;-0.974609375;0.1201171875;0.10546875;7.3125;-1.0625;-15.75;
1441975695232789;0.48748779296875;-0.46685791015625;-0.6029052734375;-0.4254150390625;17.005115483765717;11.952262605844846;17.02290279207768;-0.96240234375;0.1259765625;0.0986328125;9.875;-2.0625;-12.5;
1441975695255790;0.48681640625;-0.4669189453125;-0.602294921875;-0.427001953125;17.00878149045507;11.922349687253943;16.9845028741707;-0.94970703125;0.1318359375;0.09814453125;9.625;-3.0;-8.75;
1441975695272791;0.4859619140625;-0.46710205078125;-0.60198974609375;-0.42816162109375;17.00709551638469;11.900150449710079;16.95509090932263;-0.93994140625;0.14599609375;0.09814453125;8.25;-3.75;-5.5625;
1441975695292792;0.48492431640625;-0.467529296875;-0.6019287109375;-0.42901611328125;17.000679781762425;11.886935874628056;16.935012592336932;-0.9345703125;0.14599609375;0.0966796875;6.6875;-4.0625;-2.5;
1441975695315794;0.48370361328125;-0.4681396484375;-0.60198974609375;-0.42962646484375;16.99076504847669;11.881122472679326;16.922368248537072;-0.93994140625;0.15185546875;0.09521484375;6.625;-4.5;-0.0625;
1441975695331794;0.48236083984375;-0.4688720703125;-0.60223388671875;-0.42999267578125;16.9775666656336;11.88101545743899;16.915969858069275;-0.955078125;0.1630859375;0.0927734375;6.375;-4.4375;1.75;
1441975695352796;0.48114013671875;-0.46954345703125;-0.60260009765625;-0.4300537109375;16.963727066632654;11.885312442098993;16.915754725517225;-0.96435546875;0.1728515625;0.09326171875;6.125;-4.375;3.0;
1441975695375797;0.48004150390625;-0.47003173828125;-0.603271484375;-0.429931640625;16.948552245863816;11.88717384067219;16.915359609353608;-0.962890625;0.17431640625;0.08642578125;4.0625;-4.1875;3.9375;
1441975695393798;0.47900390625;-0.47039794921875;-0.6038818359375;-0.4296875;16.93419800905678;11.889457074302953;16.916149894736712;-0.95556640625;0.16796875;0.09814453125;2.0625;-3.875;5.1875;
1441975695421800;0.47808837890625;-0.47076416015625;-0.60467529296875;-0.42919921875;16.9188209268789;11.895503675497089;16.922260984792008;-0.9619140625;0.142578125;0.0947265625;1.625;-3.875;6.75;
1441975695452801;0.4771728515625;-0.47119140625;-0.605712890625;-0.42828369140625;16.900293088367476;11.908669917669975;16.93727315331441;-0.96240234375;0.13623046875;0.0986328125;0.1875;-3.1875;8.4375;
1441975695454801;0.476318359375;-0.47161865234375;-0.60699462890625;-0.42694091796875;16.879201522889;11.927477708663027;16.96005918351142;-0.9580078125;0.142578125;0.09619140625;-1.6875;-2.625;10.375;
1441975695472803;0.4757080078125;-0.47198486328125;-0.6083984375;-0.42529296875;16.85837015814982;11.94998238369317;16.98864289862209;-0.96484375;0.1494140625;0.09814453125;-3.5625;-1.9375;12.125;
1441975695495804;0.47509765625;-0.47222900390625;-0.60986328125;-0.42352294921875;16.836902975403852;11.970692736557785;17.016358934150126;-0.9814453125;0.14501953125;0.0908203125;-5.3125;-1.375;13.3125;
1441975695511805;0.47467041015625;-0.4725341796875;-0.611328125;-0.42156982421875;16.816107483442988;11.995844197650321;17.04937710678699;-0.97412109375;0.14697265625;0.1025390625;-6.25;-0.5625;13.875;
1441975695534806;0.47430419921875;-0.47283935546875;-0.6129150390625;-0.41937255859375;16.794020738186795;12.023341834245924;17.08598623826;-0.970703125;0.1455078125;0.10400390625;-7.125;0.4375;14.625;
1441975695555807;0.47418212890625;-0.47308349609375;-0.6146240234375;-0.416748046875;16.771589675829787;12.05573796280002;17.129981930470553;-0.9638671875;0.14892578125;0.10498046875;-7.8125;1.375;15.375;
1441975695586809;0.474365234375;-0.472900390625;-0.61651611328125;-0.41387939453125;16.75038969082773;12.082797157275946;17.17202365490215;-0.962890625;0.166015625;0.09130859375;-10.625;2.0625;15.5625;
1441975695592809;0.47479248046875;-0.47235107421875;-0.61865234375;-0.410888671875;16.729862024066236;12.103193332084015;17.21020820588135;-0.9638671875;0.15869140625;0.0908203125;-14.1875;2.125;15.375;
1441975695615811;0.475341796875;-0.4716796875;-0.62060546875;-0.4080810546875;16.712448683642886;12.119996900982436;17.244456165727467;-0.95458984375;0.15673828125;0.0966796875;-16.875;2.1875;15.3125;
1441975695637812;0.4757080078125;-0.47119140625;-0.622314453125;-0.405517578125;16.695536117487112;12.136793178609445;17.276254062981558;-0.96337890625;0.13916015625;0.09814453125;-16.0625;2.3125;15.0;
1441975695652813;0.47613525390625;-0.4708251953125;-0.6239013671875;-0.40301513671875;16.67973730864809;12.155658070477624;17.309387011885843;-0.974609375;0.14453125;0.0947265625;-14.1875;1.8125;14.5;
1441975695675814;0.47650146484375;-0.4703369140625;-0.62548828125;-0.40069580078125;16.66442955235637;12.168817357902048;17.33646887259397;-0.97509765625;0.154296875;0.0859375;-13.125;1.75;13.9375;
1441975695698815;0.4769287109375;-0.4698486328125;-0.62689208984375;-0.39849853515625;16.65124248183154;12.18177719186199;17.36265611609234;-0.97412109375;0.15673828125;0.09375;-13.1875;1.625;13.125;
1441975695713816;0.47747802734375;-0.46942138671875;-0.6280517578125;-0.39666748046875;16.641882797393965;12.193224937297808;17.385655976374466;-0.98046875;0.162109375;0.0908203125;-12.125;1.5625;11.6875;
1441975695752819;0.47802734375;-0.4691162109375;-0.62890625;-0.3948974609375;16.634345545453193;12.208335826091188;17.410964762896285;-0.99609375;0.17529296875;0.0966796875;-10.875;2.125;9.4375;
1441975695754819;0.4788818359375;-0.46856689453125;-0.6295166015625;-0.39349365234375;16.63301204098141;12.218241172793233;17.430830179444104;-1.0244140625;0.20849609375;0.0927734375;-9.875;2.5625;7.0;
1441975695772820;0.48004150390625;-0.46734619140625;-0.63006591796875;-0.3927001953125;16.639050531522255;12.210974370785978;17.434331064913838;-1.0556640625;0.21533203125;0.083984375;-9.5;2.3125;3.75;
1441975695795821;0.48089599609375;-0.46624755859375;-0.6304931640625;-0.392333984375;16.644860473620042;12.199020391218156;17.43030388007689;-1.01904296875;0.15869140625;0.08642578125;-10.5;0.375;1.6875;
1441975695811822;0.4813232421875;-0.46624755859375;-0.63006591796875;-0.3924560546875;16.651529055616123;12.20385983666992;17.434749238450678;-0.98095703125;0.15234375;0.10546875;-7.5;0.5;1.1875;
1441975695835823;0.48175048828125;-0.46630859375;-0.62945556640625;-0.39288330078125;16.660463564374183;12.207187301445849;17.436043954304417;-1.0068359375;0.1796875;0.0849609375;0.375;1.1875;-0.125;
1441975695864825;0.4820556640625;-0.46575927734375;-0.62933349609375;-0.393310546875;16.667095395240672;12.194818253694933;17.42452564551925;-0.99853515625;0.17333984375;0.06884765625;1.8125;-0.4375;-1.1875;
1441975695871825;0.482177734375;-0.465576171875;-0.62908935546875;-0.393798828125;16.672204817667787;12.187739832119755;17.416157951396602;-0.96435546875;0.1513671875;0.08984375;-1.25;-1.625;-0.4375;
1441975695892827;0.48211669921875;-0.465576171875;-0.62841796875;-0.39495849609375;16.680823065997618;12.176874434974552;17.39972408926674;-1.0;0.169921875;0.091796875;1.3125;-1.5625;-0.0625;
1441975695915828;0.48175048828125;-0.46527099609375;-0.62823486328125;-0.39599609375;16.68416640228826;12.15595415124921;17.375070587942126;-1.01904296875;0.12255859375;0.06884765625;5.125;-3.875;0.3125;
1441975695932829;0.48101806640625;-0.465087890625;-0.6285400390625;-0.3966064453125;16.67924322039745;12.136728522006688;17.35340010700101;-0.96533203125;0.09912109375;0.09619140625;3.8125;-4.9375;2.9375;
1441975695953830;0.47998046875;-0.46551513671875;-0.62896728515625;-0.3966064453125;16.666894466137798;12.134179271557686;17.347947372079062;-0.92138671875;0.10107421875;0.119140625;2.875;-4.1875;6.1875;
1441975695975831;0.47894287109375;-0.4658203125;-0.6298828125;-0.3961181640625;16.649750689770567;12.132318565408879;17.346370759364046;-0.9111328125;0.12451171875;0.09765625;3.25;-4.0;9.5;
1441975695991832;0.47784423828125;-0.46600341796875;-0.63128662109375;-0.39501953125;16.626840409483457;12.132402206290742;17.350168209045204;-0.87451171875;0.1240234375;0.0986328125;-0.0625;-4.125;11.6875;
1441975696012833;0.47650146484375;-0.46661376953125;-0.63275146484375;-0.39361572265625;16.599151605444625;12.141754772478958;17.36238457858175;-0.8310546875;0.13037109375;0.1064453125;-3.0;-3.8125;13.875;
1441975696035835;0.47515869140625;-0.46759033203125;-0.6339111328125;-0.39215087890625;16.572138487564313;12.159984125871489;17.381731202603497;-0.8115234375;0.15576171875;0.1044921875;-2.0;-2.6875;15.125;
1441975696058836;0.4739990234375;-0.46844482421875;-0.6351318359375;-0.39056396484375;16.54599380986185;12.177669338781465;17.401933310668532;-0.81494140625;0.17919921875;0.0869140625;-0.875;-2.375;14.875;
1441975696072837;0.47308349609375;-0.46893310546875;-0.63641357421875;-0.38897705078125;16.522423732111353;12.189807802971568;17.418536280741087;-0.80859375;0.19384765625;0.0810546875;-1.8125;-2.25;13.1875;
1441975696103839;0.47265625;-0.46978759765625;-0.63714599609375;-0.38739013671875;16.505152722555685;12.214448466348637;17.446307079326715;-0.81005859375;0.21533203125;0.0986328125;-4.125;-1.125;10.625;
1441975696118839;0.4732666015625;-0.46942138671875;-0.63763427734375;-0.38623046875;16.503096550159338;12.222491641812372;17.462028673048266;-0.87255859375;0.2880859375;0.07763671875;-3.375;1.0625;5.6875;
1441975696132840;0.47442626953125;-0.4677734375;-0.63848876953125;-0.38543701171875;16.508490788312677;12.206281862149417;17.458743067793854;-0.90625;0.24169921875;0.0595703125;-8.125;0.0;0.9375;
1441975696163842;0.4757080078125;-0.4664306640625;-0.63861083984375;-0.38519287109375;16.520930148630626;12.194697830551211;17.45579333739948;-0.86083984375;0.19970703125;0.09375;-13.125;0.0625;-2.375;
1441975696177843;0.47698974609375;-0.4664306640625;-0.63775634765625;-0.385009765625;16.535844924931943;12.211631239187232;17.474380683755044;-0.85986328125;0.1884765625;0.1123046875;-8.5;2.6875;-5.0625;
1441975696192844;0.47967529296875;-0.46539306640625;-0.63653564453125;-0.38494873046875;16.567893403779156;12.222556843384076;17.492501848204036;-0.9794921875;0.30322265625;0.091796875;-1.8125;6.25;-9.6875;
1441975696215845;0.483154296875;-0.4617919921875;-0.63671875;-0.3846435546875;16.60407625521985;12.187869961102567;17.47955555879072;-1.05859375;0.26513671875;0.0390625;-8.1875;5.5625;-13.9375;
1441975696237846;0.48699951171875;-0.4581298828125;-0.6363525390625;-0.38482666015625;16.64884241511443;12.151318891618061;17.462884942552858;-1.0078125;0.1953125;0.0888671875;-22.1875;3.75;-15.6875;
1441975696254847;0.489990234375;-0.45556640625;-0.6353759765625;-0.3856201171875;16.689886001368993;12.123495049425879;17.44576435599172;-0.966796875;0.1201171875;0.095703125;-19.875;5.625;-15.625;
1441975696275848;0.492431640625;-0.45477294921875;-0.6339111328125;-0.38592529296875;16.722495509649107;12.134315330933475;17.460562421458256;-0.9423828125;0.1103515625;0.1142578125;-10.25;6.6875;-14.375;
1441975696297850;0.49542236328125;-0.45391845703125;-0.6322021484375;-0.3858642578125;16.759705104784366;12.15644163676458;17.48880293487957;-1.021484375;0.208984375;0.0966796875;-4.0625;9.875;-13.4375;
1441975696314851;0.49871826171875;-0.451416015625;-0.6318359375;-0.38519287109375;16.79308859620362;12.147537296549325;17.49739718194652;-1.091796875;0.21044921875;0.03955078125;-6.375;9.25;-13.6875;
1441975696335852;0.5018310546875;-0.44891357421875;-0.6317138671875;-0.38433837890625;16.822692077624566;12.137735895060876;17.505830792359692;-1.03515625;0.16845703125;0.0751953125;-17.4375;7.375;-11.8125;
1441975696357853;0.50433349609375;-0.44744873046875;-0.6309814453125;-0.38385009765625;16.849759543623943;12.1438327654781;17.522604199285393;-1.001953125;0.140625;0.091796875;-17.8125;7.9375;-9.4375;
1441975696374854;0.5064697265625;-0.44677734375;-0.62994384765625;-0.38348388671875;16.873914037975222;12.164584351415494;17.5494062415166;-1.02197265625;0.14501953125;0.0859375;-10.25;8.625;-7.75;
1441975696395855;0.50836181640625;-0.446044921875;-0.62939453125;-0.38287353515625;16.89208465454578;12.181855352797502;17.574314432993805;-1.03271484375;0.146484375;0.0576171875;-5.625;7.9375;-5.875;
1441975696417857;0.50958251953125;-0.44580078125;-0.62896728515625;-0.3822021484375;16.902313743075077;12.203569551393239;17.600941792280256;-0.99609375;0.1298828125;0.07177734375;-7.1875;7.25;-2.8125;
1441975696441858;0.51007080078125;-0.44622802734375;-0.62847900390625;-0.3818359375;16.9062439902834;12.228313617361838;17.62548496501552;-0.9853515625;0.11279296875;0.0849609375;-4.0;6.875;1.5;
1441975696455859;0.510009765625;-0.44744873046875;-0.628173828125;-0.38104248046875;16.90007245568404;12.269319135607489;17.664207561820326;-0.97021484375;0.1142578125;0.0888671875;1.0625;5.6875;4.3125;
1441975696477860;0.50994873046875;-0.4486083984375;-0.62835693359375;-0.37939453125;16.886956269704317;12.316997464145068;17.713785214973477;-0.958984375;0.1484375;0.08251953125;3.0;5.6875;7.125;
1441975696494861;0.51007080078125;-0.44927978515625;-0.62908935546875;-0.37713623046875;16.870450993452675;12.359086134997304;17.763144838876304;-0.95166015625;0.18115234375;0.07666015625;-1.125;6.0;9.125;
1441975696515862;0.51007080078125;-0.44964599609375;-0.6302490234375;-0.37481689453125;16.850983382283335;12.38879082432648;17.802059434048775;-0.943359375;0.1904296875;0.07958984375;-6.1875;5.75;10.1875;
1441975696537863;0.51007080078125;-0.45025634765625;-0.63104248046875;-0.372802734375;16.834133220087136;12.421598062645636;17.841392532911062;-0.94482421875;0.1943359375;0.09521484375;-8.1875;5.1875;10.625;
1441975696554864;0.51019287109375;-0.450927734375;-0.631591796875;-0.370849609375;16.81954874179533;12.45768398398156;17.88331201820236;-0.953125;0.19775390625;0.083984375;-5.875;5.0;9.6875;
1441975696575866;0.51031494140625;-0.45123291015625;-0.63226318359375;-0.36920166015625;16.80702099457943;12.48040454980109;17.912359819027962;-0.9697265625;0.2109375;0.0673828125;-5.0625;4.625;8.3125;
1441975696597867;0.51025390625;-0.45135498046875;-0.63287353515625;-0.36798095703125;16.79631343718194;12.492220087905165;17.929116096258497;-0.958984375;0.201171875;0.064453125;-5.9375;3.25;7.1875;
1441975696614868;0.51007080078125;-0.45172119140625;-0.6331787109375;-0.36724853515625;16.787974130671476;12.503633335033578;17.94203175250296;-0.94482421875;0.18798828125;0.08251953125;-4.3125;2.25;6.0625;
1441975696635869;0.50982666015625;-0.4520263671875;-0.63348388671875;-0.36676025390625;16.780655606703395;12.50980826382293;17.94895797723097;-0.951171875;0.19921875;0.080078125;-1.125;1.625;4.625;
1441975696657870;0.509765625;-0.4521484375;-0.63372802734375;-0.36627197265625;16.77578173874876;12.51523904461095;17.956036277110545;-0.958984375;0.20458984375;0.0830078125;-0.8125;1.125;2.9375;
1441975696674871;0.510009765625;-0.45196533203125;-0.63385009765625;-0.365966796875;16.776041214404284;12.517223368556298;17.960506848241987;-0.97314453125;0.21337890625;0.076171875;-1.5;0.875;1.8125;
1441975696695872;0.51025390625;-0.45147705078125;-0.63409423828125;-0.36578369140625;16.777447874326327;12.510763863194347;17.957429720245944;-0.97314453125;0.19775390625;0.06884765625;-2.4375;0.6875;0.3125;
1441975696718874;0.510498046875;-0.45098876953125;-0.63421630859375;-0.36578369140625;16.7805045337426;12.503188111677545;17.952340120179034;-0.955078125;0.18310546875;0.08056640625;-3.3125;0.3125;-0.0625;
1441975696734875;0.5106201171875;-0.45062255859375;-0.6343994140625;-0.36578369140625;16.781800834603672;12.495801040082835;17.946889814191618;-0.95947265625;0.16357421875;0.07958984375;-2.25;0.125;0.1875;
1441975696755876;0.51080322265625;-0.4501953125;-0.63470458984375;-0.365478515625;16.781521320629082;12.490769628261075;17.94544316751253;-0.95751953125;0.1669921875;0.0771484375;-1.8125;-0.375;0.5625;
1441975696777877;0.510986328125;-0.44952392578125;-0.63531494140625;-0.364990234375;16.779486264376747;12.48043237336395;17.940830087606617;-0.96435546875;0.17626953125;0.0703125;-3.625;-0.5625;1.375;
1441975696794878;0.51116943359375;-0.44879150390625;-0.63604736328125;-0.36444091796875;16.77665437504563;12.468473371968507;17.935288875405035;-0.96142578125;0.173828125;0.07275390625;-5.75;-1.0625;2.0625;
1441975696815879;0.51123046875;-0.44830322265625;-0.63653564453125;-0.364013671875;16.774005092938715;12.46080840535842;17.931961733479035;-0.96484375;0.1767578125;0.078125;-6.25;-1.375;2.375;
1441975696837881;0.51116943359375;-0.44818115234375;-0.63677978515625;-0.36383056640625;16.771667047097903;12.457819186982414;17.930418567300634;-0.9677734375;0.1767578125;0.06982421875;-4.375;-1.5625;2.125;
1441975696854882;0.5111083984375;-0.44818115234375;-0.636962890625;-0.36370849609375;16.769511288592845;12.456815463335152;17.930108159903032;-0.9638671875;0.185546875;0.0654296875;-1.6875;-1.4375;1.625;
1441975696875883;0.5111083984375;-0.44793701171875;-0.63720703125;-0.363525390625;16.768110297986386;12.452292103551006;17.927580636150825;-0.955078125;0.1953125;0.05810546875;-1.0625;-1.375;0.9375;
1441975696897884;0.5113525390625;-0.447509765625;-0.63739013671875;-0.36334228515625;16.769609502463037;12.44758105806736;17.92590542618332;-0.955078125;0.19921875;0.064453125;-2.125;-1.3125;0.0625;
1441975696914885;0.51171875;-0.447021484375;-0.6375732421875;-0.3631591796875;16.772254626619933;12.442937009035319;17.924787097971524;-0.94189453125;0.193359375;0.06787109375;-3.25;-0.875;-0.9375;
1441975696938886;0.51239013671875;-0.44635009765625;-0.6376953125;-0.36285400390625;16.77764805243931;12.44037681962092;17.927341663644906;-0.93896484375;0.19677734375;0.06591796875;-3.9375;-0.0625;-1.9375;
1441975696957887;0.51324462890625;-0.44573974609375;-0.63763427734375;-0.3624267578125;16.78464613039006;12.444516699075844;17.93679916858259;-0.9306640625;0.197265625;0.0673828125;-4.8125;0.9375;-3.0;
1441975696974888;0.514404296875;-0.44500732421875;-0.6375732421875;-0.36187744140625;16.793771379017098;12.451257370886763;17.950385038962153;-0.9267578125;0.2119140625;0.06201171875;-5.6875;2.4375;-4.3125;
1441975696995890;0.515869140625;-0.44390869140625;-0.6375732421875;-0.36114501953125;16.805326956466118;12.456533786777486;17.9651936122211;-0.931640625;0.2197265625;0.05908203125;-6.75;3.4375;-5.5;
1441975697017891;0.517578125;-0.4423828125;-0.63763427734375;-0.36029052734375;16.81942546305858;12.457813453244052;17.978549918396304;-0.9365234375;0.21875;0.05322265625;-9.8125;3.8125;-6.75;
1441975697034892;0.51959228515625;-0.44073486328125;-0.6376953125;-0.35943603515625;16.836256822495166;12.460158324801581;17.994085594297992;-0.939453125;0.21484375;0.0576171875;-12.0;4.125;-7.75;
1441975697055893;0.52166748046875;-0.4388427734375;-0.6376953125;-0.3587646484375;16.85582168069213;12.456941498786618;0.004258982941116293;-0.958984375;0.2060546875;0.05029296875;-13.375;4.625;-8.5625;
1441975697077894;0.523681640625;-0.43701171875;-0.6375732421875;-0.35821533203125;16.876037515308923;12.45404599137305;0.01371265535099477;-0.978515625;0.19775390625;0.05224609375;-13.5;4.1875;-9.0625;
1441975697094895;0.52545166015625;-0.43536376953125;-0.63726806640625;-0.358154296875;16.897273447257675;12.44687088086108;0.015645474240637315;-0.9794921875;0.1806640625;0.048828125;-12.4375;3.6875;-9.0625;
1441975697115896;0.52691650390625;-0.4342041015625;-0.63677978515625;-0.3582763671875;16.916282871666887;12.445187785685013;0.01969037968234546;-0.97900390625;0.1650390625;0.05712890625;-9.3125;3.375;-8.6875;
1441975697137898;0.52801513671875;-0.43353271484375;-0.63623046875;-0.35845947265625;16.93127296610699;12.44882704220987;0.026229974310286515;-0.96875;0.15771484375;0.05859375;-5.625;3.75;-7.5625;
1441975697154899;0.52886962890625;-0.4332275390625;-0.6357421875;-0.3585205078125;16.941975597215414;12.458202354090032;0.03726460896029879;-0.955078125;0.1552734375;0.0693359375;-2.5;4.0625;-5.9375;
1441975697176900;0.52960205078125;-0.43304443359375;-0.63543701171875;-0.35809326171875;16.947696580547518;12.474239043658097;0.05633219040951917;-0.9541015625;0.1630859375;0.0712890625;-1.5;4.3125;-3.875;
1441975697197901;0.53045654296875;-0.43255615234375;-0.63555908203125;-0.3572998046875;16.951147956783853;12.485866508707627;0.07450542459771292;-0.970703125;0.1806640625;0.06298828125;-2.8125;4.3125;-2.375;
1441975697214902;0.53125;-0.43182373046875;-0.6358642578125;-0.3564453125;16.953788706464135;12.490461520781857;0.0869521015178954;-0.96142578125;0.1767578125;0.06640625;-6.3125;4.0;-1.4375;
1441975697236903;0.53192138671875;-0.431396484375;-0.6361083984375;-0.35552978515625;16.95427535630039;12.501513297364667;0.10461538593860814;-0.94677734375;0.1669921875;0.0791015625;-7.5625;3.875;-0.4375;
1441975697257905;0.53240966796875;-0.43133544921875;-0.63623046875;-0.35455322265625;16.95223301617327;12.520271338924884;0.12826182462721733;-0.9453125;0.1650390625;0.08544921875;-5.75;4.8125;0.5625;
1441975697274906;0.53289794921875;-0.431396484375;-0.6365966796875;-0.3531494140625;16.945919190129686;12.544608011414017;0.15907188792928953;-0.9326171875;0.17041015625;0.08544921875;-4.5;5.4375;1.75;
1441975697296907;0.5335693359375;-0.431640625;-0.6370849609375;-0.3509521484375;16.935011695698826;12.58494106136202;0.20863320597854051;-0.91552734375;0.189453125;0.0908203125;-5.5625;6.6875;2.75;
1441975697318908;0.53460693359375;-0.431640625;-0.63787841796875;-0.347900390625;16.92110320140247;12.63280735226895;0.27096480719243304;-0.9052734375;0.19970703125;0.08642578125;-8.3125;9.25;5.375;
1441975697334909;0.5357666015625;-0.43145751953125;-0.6387939453125;-0.34466552734375;16.9068162586937;12.67835922363112;0.3327766166985067;-0.8955078125;0.19482421875;0.0888671875;-12.9375;11.5;7.875;
1441975697356910;0.536376953125;-0.43218994140625;-0.63916015625;-0.34210205078125;16.890834079553812;12.73028975343257;0.39311672432397954;-0.8876953125;0.1787109375;0.076171875;-14.75;10.875;9.375;
1441975697377911;0.53631591796875;-0.43408203125;-0.63922119140625;-0.3397216796875;16.866888988981763;12.793740405728325;0.45822748450396056;-0.89453125;0.173828125;0.0595703125;-7.0625;9.8125;10.5;
1441975697400913;0.53631591796875;-0.4364013671875;-0.63909912109375;-0.33697509765625;16.839328669447394;12.869611746206177;0.5352787330449199;-0.87841796875;0.22021484375;0.05322265625;-0.8125;10.125;11.1875;
1441975697416914;0.53631591796875;-0.438720703125;-0.6390380859375;-0.33404541015625;16.809546818300014;12.943174184120846;0.6107813999475472;-0.8447265625;0.26171875;0.05712890625;0.5625;12.75;10.5625;
1441975697437915;0.53668212890625;-0.44110107421875;-0.6387939453125;-0.33074951171875;16.779483984486358;13.02554780122162;0.6965451561925684;-0.83251953125;0.2861328125;0.0654296875;-0.375;14.3125;10.0625;
1441975697454916;0.5377197265625;-0.44305419921875;-0.638671875;-0.32672119140625;16.74950708655255;13.112393274889538;0.7925082084760596;-0.82861328125;0.29931640625;0.03955078125;-2.0;15.5;9.3125;
1441975697476917;0.53936767578125;-0.44439697265625;-0.638916015625;-0.32159423828125;16.71641868278838;13.19990215125058;0.8971502882917196;-0.82763671875;0.3056640625;0.0078125;-7.3125;16.9375;9.25;
1441975697497918;0.54132080078125;-0.4449462890625;-0.6397705078125;-0.31585693359375;16.681675329154864;13.272842399256476;0.9940702639598753;-0.84423828125;0.314453125;-0.01806640625;-15.5;18.0;10.875;
1441975697514919;0.54315185546875;-0.44512939453125;-0.64093017578125;-0.30999755859375;16.645346883780576;13.331915823325977;1.0792198811524232;-0.88330078125;0.31005859375;-0.04345703125;-22.25;16.0;12.1875;
1441975697536921;0.5447998046875;-0.4451904296875;-0.64227294921875;-0.30419921875;16.607748897212396;13.380308042443561;1.1539186429656407;-0.91552734375;0.318359375;-0.0615234375;-25.5;13.375;12.6875;
1441975697557922;0.54595947265625;-0.44525146484375;-0.64385986328125;-0.2987060546875;16.56831631444495;13.413568829200855;1.2119210312169484;-0.9462890625;0.30810546875;-0.0771484375;-25.5625;10.4375;14.4375;
1441975697574923;0.54644775390625;-0.44573974609375;-0.64544677734375;-0.29345703125;16.524178404012744;13.438936167960009;1.2582735054785952;-0.93505859375;0.27978515625;-0.0791015625;-24.5;7.5625;17.5;
1441975697596924;0.54632568359375;-0.44720458984375;-0.64678955078125;-0.28839111328125;16.47275585405444;13.466909033682107;1.301386068785594;-0.90234375;0.267578125;-0.06103515625;-20.6875;6.5;20.4375;
1441975697617925;0.54608154296875;-0.44927978515625;-0.64788818359375;-0.28326416015625;16.41702126084799;13.500626883061921;1.3475635865243865;-0.896484375;0.291015625;-0.0546875;-14.8125;6.9375;22.5;
1441975697640927;0.54595947265625;-0.451171875;-0.6490478515625;-0.27783203125;16.360313093807452;13.532209713213613;1.3937178554548852;-0.90966796875;0.32666015625;-0.0751953125;-12.0;7.125;23.3125;
1441975697656927;0.54595947265625;-0.4525146484375;-0.65020751953125;-0.272705078125;16.309731529704695;13.556201277038872;1.4334151130348443;-0.9072265625;0.341796875;-0.1005859375;-14.875;6.1875;23.125;
1441975697677929;0.54571533203125;-0.4539794921875;-0.65118408203125;-0.2684326171875;16.263996274090452;13.574954648157396;1.4635641872079643;-0.8955078125;0.31298828125;-0.11474609375;-16.125;4.4375;22.4375;
1441975697700930;0.54498291015625;-0.4559326171875;-0.6519775390625;-0.26470947265625;16.217335760432878;13.59111245222469;1.4860657730457874;-0.865234375;0.2734375;-0.1064453125;-12.0625;2.75;22.375;
1441975697716931;0.5438232421875;-0.4583740234375;-0.652587890625;-0.2613525390625;16.168698558845893;13.60646252056955;1.503471820712245;-0.806640625;0.2412109375;-0.095703125;-7.375;1.625;24.25;
1441975697737932;0.54229736328125;-0.46185302734375;-0.65264892578125;-0.25830078125;16.115439966935362;13.630627469808125;1.52303228330859;-0.763671875;0.220703125;-0.08251953125;-2.8125;1.25;26.1875;
1441975697754933;0.54058837890625;-0.46588134765625;-0.65216064453125;-0.2557373046875;16.062904186600026;13.66044269812577;1.5430295613256504;-0.74658203125;0.2451171875;-0.0908203125;3.8125;2.0625;26.875;
1441975697776934;0.53900146484375;-0.4698486328125;-0.65155029296875;-0.25347900390625;16.01390511590147;13.689949347735883;1.5618442040358915;-0.74169921875;0.25927734375;-0.1044921875;8.8125;1.9375;25.9375;
1441975697808936;0.53729248046875;-0.4735107421875;-0.651123046875;-0.25140380859375;15.96712771021541;13.712361536460474;1.5741089142487115;-0.70556640625;0.23681640625;-0.11962890625;9.4375;1.125;25.375;
1441975697814936;0.53533935546875;-0.47747802734375;-0.65032958984375;-0.25;15.923317438235756;13.735748094820044;1.582590310016698;-0.6513671875;0.21728515625;-0.1005859375;8.9375;0.375;24.375;
1441975697836938;0.53314208984375;-0.48211669921875;-0.64910888671875;-0.2491455078125;15.879344330236275;13.763765237850352;1.5899459987468976;-0.61083984375;0.1875;-0.091796875;13.375;-0.1875;24.25;
1441975697857939;0.53082275390625;-0.48736572265625;-0.64739990234375;-0.2484130859375;15.832919663022734;13.798890279850008;1.600486804272104;-0.5732421875;0.19189453125;-0.091796875;19.3125;-0.0625;23.4375;
1441975697880940;0.528564453125;-0.49310302734375;-0.64520263671875;-0.24755859375;15.783649291354438;13.84219226339358;1.6169487745631472;-0.5546875;0.234375;-0.1064453125;23.125;0.625;21.875;
1441975697896941;0.5269775390625;-0.49822998046875;-0.64263916015625;-0.24713134765625;15.745395113511337;13.888813958940494;1.6380010606302293;-0.57421875;0.32568359375;-0.12451171875;25.875;2.5625;17.75;
1441975697917942;0.52606201171875;-0.5008544921875;-0.6412353515625;-0.24755859375;15.730641381121677;13.910737003963519;1.6441394242225966;-0.6298828125;0.3203125;-0.1728515625;23.6875;1.4375;13.8125;
1441975697940944;0.52447509765625;-0.50384521484375;-0.63909912109375;-0.2503662109375;15.731138635464553;13.930903402528788;1.6358329638796438;-0.6455078125;0.20068359375;-0.138671875;13.375;-3.0625;11.0625;
1441975697956945;0.52130126953125;-0.51055908203125;-0.6343994140625;-0.25531005859375;15.722946486411775;13.981716921610316;1.6285204928227872;-0.61474609375;0.103515625;-0.07373046875;26.25;-5.6875;10.0;
1441975697977946;0.517578125;-0.52044677734375;-0.62713623046875;-0.2607421875;15.700714773836074;14.071904047216494;1.6408187392985727;-0.5771484375;0.17919921875;-0.009765625;58.125;-0.125;8.5;
1441975698000947;0.51470947265625;-0.528076171875;-0.62091064453125;-0.265869140625;15.692159730121231;14.1454601568108;1.6496076062110427;-0.6396484375;0.29638671875;-0.0751953125;78.4375;5.375;7.8125;
1441975698016948;0.5118408203125;-0.53369140625;-0.6162109375;-0.271240234375;15.696028835028311;14.19118262408497;1.6401723547733518;-0.7763671875;0.3037109375;-0.10107421875;64.5;2.625;4.6875;
1441975698045950;0.5084228515625;-0.53875732421875;-0.6123046875;-0.2763671875;15.697933836950462;14.221506603370775;1.6186022877618005;-0.79150390625;0.189453125;-0.06982421875;54.0;-3.75;7.75;
1441975698060951;0.50543212890625;-0.544677734375;-0.60736083984375;-0.281005859375;15.693875105690312;14.271995682818812;1.6144833655643207;-0.7275390625;0.197265625;0.0390625;52.3125;-1.0;7.8125;
1441975698076951;0.5030517578125;-0.54998779296875;-0.60284423828125;-0.28485107421875;15.68899586696605;14.321184677174529;1.6162758434230422;-0.759765625;0.22265625;0.00732421875;56.0;5.125;8.1875;
1441975698099953;0.50103759765625;-0.554443359375;-0.598876953125;-0.28802490234375;15.68462948086242;14.364235709821585;1.6192418378265878;-0.85986328125;0.25732421875;4.8828125E-4;49.625;7.875;8.0625;
1441975698120954;0.4989013671875;-0.55828857421875;-0.59564208984375;-0.2911376953125;15.682146941351146;14.395354877837743;1.6140107769847578;-0.9755859375;0.25634765625;-0.0048828125;42.3125;9.375;10.6875;
1441975698136955;0.4962158203125;-0.56195068359375;-0.592529296875;-0.29498291015625;15.684755003153677;14.418393922106677;1.5978230423359765;-1.06884765625;0.29345703125;0.0048828125;38.5625;7.6875;11.1875;
1441975698159956;0.493896484375;-0.5655517578125;-0.5894775390625;-0.2979736328125;15.681968275693428;14.445008859297731;1.5892775741337142;-1.0556640625;0.28369140625;0.033203125;41.1875;4.9375;10.375;
1441975698180957;0.49224853515625;-0.570068359375;-0.5853271484375;-0.30035400390625;15.672215253032387;14.494514748997814;1.601526224470627;-1.05908203125;0.3056640625;0.07275390625;39.25;11.5;10.375;
1441975698196958;0.49102783203125;-0.57421875;-0.58099365234375;-0.302734375;15.666512230907365;14.547500807223912;1.619057548023182;-1.1337890625;0.32958984375;0.0068359375;41.5;17.25;11.4375;
1441975698225960;0.49072265625;-0.577392578125;-0.5772705078125;-0.30438232421875;15.663275148442562;14.597752329003756;1.6433174889406192;-1.19287109375;0.3369140625;-0.02490234375;39.5;17.6875;9.5;
1441975698240961;0.49151611328125;-0.5792236328125;-0.57452392578125;-0.3048095703125;15.660838929278635;14.641887107524521;1.675102995690477;-1.1484375;0.35400390625;-0.04345703125;30.5625;18.9375;5.0;
1441975698256962;0.49310302734375;-0.58026123046875;-0.57275390625;-0.3035888671875;15.650770491802241;14.680316374618881;1.713631838596022;-1.07275390625;0.37548828125;-0.02734375;18.3125;21.5625;-0.375;
1441975698279963;0.49615478515625;-0.58001708984375;-0.571533203125;-0.30145263671875;15.645252717592626;14.720062683409529;1.7657976482496411;-1.07080078125;0.421875;-0.048828125;6.4375;25.25;-1.0625;
1441975698300964;0.49957275390625;-0.579345703125;-0.57012939453125;-0.2996826171875;15.646499305204456;14.762596157925785;1.8214287510182159;-1.10888671875;0.392578125;-0.11572265625;-6.4375;25.75;-3.0625;
1441975698316965;0.5028076171875;-0.58087158203125;-0.56585693359375;-0.29937744140625;15.646120121148767;14.842658460486012;1.8948619528109452;-1.07177734375;0.3115234375;-0.14794921875;-8.375;23.1875;-2.625;
1441975698339967;0.50506591796875;-0.5841064453125;-0.55999755859375;-0.30029296875;15.641051550136792;14.937562248997443;1.9670314866627239;-1.07568359375;0.2958984375;-0.19384765625;11.5;27.4375;-4.8125;
1441975698360968;0.5068359375;-0.58538818359375;-0.55682373046875;-0.30078125;15.642067420025016;14.991853454782262;2.0119755235527395;-1.15478515625;0.38671875;-0.28955078125;26.875;23.375;-7.875;
1441975698376969;0.50970458984375;-0.58453369140625;-0.55535888671875;-0.30023193359375;15.650453089890082;15.029703495142451;2.058006884319704;-1.16162109375;0.45703125;-0.25048828125;13.25;15.75;-10.4375;
1441975698399970;0.51251220703125;-0.5841064453125;-0.55316162109375;-0.30023193359375;15.660090820005813;15.076907977420381;2.108184747307255;-1.1005859375;0.38134765625;-0.19921875;-3.5625;16.6875;-10.6875;
1441975698420971;0.515380859375;-0.58502197265625;-0.549560546875;-0.3001708984375;15.659076279934752;15.144575081963861;2.171195986877828;-1.076171875;0.365234375;-0.17822265625;2.3125;18.75;-12.625;
1441975698436972;0.51971435546875;-0.58502197265625;-0.54644775390625;-0.29852294921875;15.6521527397454;15.2159098189493;2.251003367957688;-1.0517578125;0.36083984375;-0.236328125;9.625;22.0625;-11.6875;
1441975698459973;0.52508544921875;-0.5841064453125;-0.543701171875;-0.29583740234375;15.642775630681738;15.288505548587342;2.3420051171581555;-1.07421875;0.3828125;-0.271484375;-2.3125;27.75;-14.4375;
1441975698480975;0.5316162109375;-0.582275390625;-0.54150390625;-0.2918701171875;15.628728181194171;15.360781463276801;2.4442136596060875;-1.06396484375;0.35107421875;-0.2529296875;-10.875;33.6875;-15.5;
1441975698496975;0.53887939453125;-0.580810546875;-0.5386962890625;-0.28656005859375;15.598237195716498;15.443360399981879;2.560204987206519;-1.0224609375;0.32568359375;-0.26513671875;-21.5625;37.75;-16.75;
1441975698519977;0.54638671875;-0.579345703125;-0.53546142578125;-0.28143310546875;15.566307926871982;15.53039867241928;2.6796269476544383;-1.0439453125;0.33056640625;-0.337890625;-25.0;43.25;-14.9375;
1441975698540978;0.55303955078125;-0.5777587890625;-0.532958984375;-0.2763671875;15.533556180444354;15.599821402092783;2.7813550468620707;-1.09423828125;0.27978515625;-0.40966796875;-25.8125;42.0;-12.625;
1441975698556979;0.559814453125;-0.57696533203125;-0.52935791015625;-0.27130126953125;15.49112162905923;15.680114445105785;2.888905832704962;-1.052734375;0.32080078125;-0.37353515625;-25.125;39.4375;-13.1875;
1441975698579980;0.5670166015625;-0.5767822265625;-0.5252685546875;-0.26446533203125;15.425269670987802;15.76080865341983;3.000562535726529;-1.03466796875;0.26708984375;-0.39208984375;-20.125;43.75;-9.8125;
1441975698603982;0.57354736328125;-0.575927734375;-0.52313232421875;-0.25640869140625;15.355630490130313;15.808175090118029;3.0884693302248944;-1.0966796875;0.27734375;-0.42919921875;-23.125;53.875;-4.0;
1441975698616982;0.58099365234375;-0.57373046875;-0.52154541015625;-0.24761962890625;15.288865826929754;15.850799533245674;3.1823271678010814;-1.1845703125;0.3798828125;-0.396484375;-31.6875;53.9375;-1.5;
1441975698639984;0.5888671875;-0.5750732421875;-0.5162353515625;-0.23675537109375;15.167479700206572;15.920916277429283;3.290747585151137;-1.14501953125;0.27099609375;-0.2626953125;-40.6875;63.6875;0.0;
1441975698660985;0.59796142578125;-0.57794189453125;-0.5089111328125;-0.2222900390625;14.994886931130903;15.99613689695638;3.4095695025391377;-1.16259765625;0.36279296875;-0.32666015625;-23.875;87.75;7.0;
1441975698684986;0.60858154296875;-0.579345703125;-0.5025634765625;-0.2034912109375;14.793995651442419;16.04590944171981;3.5293184194773746;-1.2705078125;0.55615234375;-0.46240234375;-27.5625;104.6875;11.25;
1441975698699987;0.6248779296875;-0.5697021484375;-0.5035400390625;-0.17742919921875;14.624388231314883;16.03483174458437;3.683956960847321;-1.2724609375;0.66357421875;-0.90283203125;-55.0625;99.4375;6.6875;
1441975698722988;0.6336669921875;-0.55572509765625;-0.515625;-0.1544189453125;14.55918585843643;15.90513745624479;3.73395811228859;-1.4013671875;0.4267578125;-0.9365234375;-143.4375;115.5625;-9.125;
1441975698735989;0.63433837890625;-0.54656982421875;-0.52740478515625;-0.14410400390625;14.575046981125002;15.780580407125509;3.707368243100977;-1.705078125;0.50244140625;-0.47900390625;-170.4375;48.8125;3.6875;
1441975698758990;0.63006591796875;-0.561767578125;-0.51239013671875;-0.157958984375;14.53965065278593;15.92285422234973;3.701835954112219;-1.84912109375;-0.310546875;0.7275390625;-102.6875;-16.0625;5.375;
1441975698780992;0.6214599609375;-0.582763671875;-0.4932861328125;-0.17584228515625;14.48851436838222;16.08598198963212;3.6623786514455157;-1.1103515625;-0.12158203125;-0.17041015625;144.6875;16.3125;23.5625;
1441975698795993;0.61480712890625;-0.591796875;-0.49273681640625;-0.17034912109375;14.385087652558113;16.034342265686973;3.5809982230015818;-1.4326171875;0.79736328125;-0.6826171875;197.625;7.0;31.375;
1441975698818994;0.61236572265625;-0.58929443359375;-0.5030517578125;-0.1572265625;14.326169747679558;15.899570437239282;3.520229975979795;-1.19775390625;1.1630859375;-0.791015625;31.4375;4.3125;33.8125;
1441975698840995;0.60919189453125;-0.58489990234375;-0.51397705078125;-0.15045166015625;14.33402183289608;15.77874392754109;3.4574211443424647;-1.20556640625;0.78759765625;-0.75341796875;-82.5;-6.625;36.0625;
1441975698855996;0.60369873046875;-0.5860595703125;-0.51861572265625;-0.15216064453125;14.356190607357505;15.721494411170932;3.387938762156637;-1.154296875;0.42333984375;-0.4453125;-70.9375;-18.5625;34.6875;
1441975698878997;0.5963134765625;-0.58929443359375;-0.5218505859375;-0.157470703125;14.389906132789012;15.676035869496136;3.302340428950247;-1.228515625;0.39111328125;-0.3935546875;-2.0;-23.25;35.9375;
1441975698900999;0.58917236328125;-0.59033203125;-0.5279541015625;-0.1602783203125;14.422449264549;15.599962755471275;3.2102011920754716;-1.32958984375;0.38427734375;-0.38330078125;22.75;-31.9375;41.5;
1441975698915999;0.5811767578125;-0.593994140625;-0.53265380859375;-0.16033935546875;14.405625069776145;15.524598629498769;3.113845612138961;-1.2509765625;0.3759765625;-0.3037109375;-0.6875;-33.5;41.5;
1441975698939001;0.572265625;-0.59716796875;-0.53857421875;-0.160888671875;14.395293169692025;15.436309134048154;3.0052776513747856;-1.15234375;0.43212890625;-0.40283203125;1.375;-29.0;55.1875;
1441975698961002;0.5635986328125;-0.5994873046875;-0.5450439453125;-0.1611328125;14.385370990810422;15.34385512777598;2.8985220066353756;-1.091796875;0.43896484375;-0.34814453125;-0.1875;-37.375;54.8125;
1441975698976003;0.55572509765625;-0.600830078125;-0.5518798828125;-0.16009521484375;14.368213366253615;15.24944781183064;2.8005389286161986;-1.0341796875;0.46875;-0.30712890625;-4.75;-38.25;50.1875;
1441975698999004;0.54840087890625;-0.60076904296875;-0.55999755859375;-0.1573486328125;14.34414259831235;15.14365396558304;2.7065357496620597;-1.0654296875;0.4150390625;-0.3125;-16.25;-34.0625;53.9375;
1441975699022006;0.5419921875;-0.601806640625;-0.565673828125;-0.1552734375;14.31350657950531;15.06582303858582;2.6305963834303356;-1.025390625;0.36865234375;-0.25537109375;-31.0625;-30.5625;56.375;
1441975699036006;0.53570556640625;-0.603515625;-0.57012939453125;-0.1544189453125;14.285864431902374;15.002167518834737;2.55951019051707;-0.96337890625;0.3427734375;-0.283203125;-19.75;-25.25;52.25;
1441975699059008;0.52850341796875;-0.605224609375;-0.5751953125;-0.15350341796875;14.253952679316567;14.930242505164157;2.479618814498636;-0.9443359375;0.42041015625;-0.32763671875;-10.3125;-28.1875;45.0625;
1441975699081009;0.52288818359375;-0.6055908203125;-0.5806884765625;-0.15069580078125;14.216144435515123;14.859083560892298;2.416779910963028;-0.904296875;0.544921875;-0.357421875;-10.4375;-35.8125;40.9375;
1441975699098010;0.5196533203125;-0.6046142578125;-0.58563232421875;-0.146484375;14.179178806549382;14.800142513402267;2.380329449039976;-0.78125;0.49853515625;-0.37353515625;-26.125;-30.375;36.9375;
1441975699119011;0.5189208984375;-0.60150146484375;-0.5904541015625;-0.1424560546875;14.164333675516174;14.749449920671584;2.3648314755410813;-0.63916015625;0.46533203125;-0.34423828125;-34.625;-18.625;25.8125;
1441975699141012;0.52093505859375;-0.59759521484375;-0.5933837890625;-0.13946533203125;14.17094495268762;14.724804768804624;2.3765606851532275;-0.560546875;0.51025390625;-0.29296875;-40.875;-11.375;5.0;
1441975699164014;0.52459716796875;-0.59375;-0.59466552734375;-0.13671875;14.183418902230098;14.720678345638321;2.4076955728915808;-0.52001953125;0.49462890625;-0.29541015625;-36.5625;-1.875;-12.75;
1441975699179014;0.5284423828125;-0.58990478515625;-0.595703125;-0.134033203125;14.196840472520154;14.719403239122128;2.4412919344143624;-0.48193359375;0.4287109375;-0.32470703125;-33.5625;5.6875;-18.125;
1441975699201016;0.53289794921875;-0.58648681640625;-0.59564208984375;-0.13140869140625;14.208918091299925;14.73056870419039;2.484412011466066;-0.44189453125;0.44921875;-0.26806640625;-30.4375;9.125;-22.3125;
1441975699218017;0.5382080078125;-0.58392333984375;-0.59423828125;-0.127685546875;14.206602970206823;14.757155779027492;2.542704217674526;-0.39599609375;0.43798828125;-0.26806640625;-25.3125;14.0;-25.25;
1441975699246018;0.54345703125;-0.58050537109375;-0.59356689453125;-0.124267578125;14.212539968613477;14.776223013281582;2.596993823667629;-0.40478515625;0.49658203125;-0.35498046875;-24.375;20.6875;-25.625;
1441975699261019;0.54754638671875;-0.576904296875;-0.59375;-0.1219482421875;14.226855093135251;14.784080844846024;2.6360330552564437;-0.39306640625;0.48388671875;-0.36279296875;-29.1875;16.125;-28.4375;
1441975699278020;0.5501708984375;-0.57525634765625;-0.593017578125;-0.1217041015625;14.241723281792282;14.798623887056;2.6617095493343546;-0.36865234375;0.4365234375;-0.31201171875;-26.75;8.0;-26.5625;
1441975699299021;0.55096435546875;-0.575439453125;-0.591796875;-0.1229248046875;14.252026786177694;14.813691695807046;2.6706979996827016;-0.3779296875;0.41357421875;-0.29443359375;-9.3125;1.5625;-21.9375;
1441975699321023;0.5506591796875;-0.5758056640625;-0.59124755859375;-0.1251220703125;14.26777690296643;14.819818802158567;2.665566071298541;-0.3828125;0.47021484375;-0.2802734375;6.0;-5.625;-18.5625;
1441975699338024;0.54937744140625;-0.5762939453125;-0.59161376953125;-0.127197265625;14.280208529768371;14.814183696609964;2.648545308943271;-0.4033203125;0.50927734375;-0.26318359375;9.625;-13.25;-18.75;
1441975699359025;0.54718017578125;-0.57708740234375;-0.59197998046875;-0.13104248046875;14.303915938357562;14.806533262992382;2.6199235247701624;-0.408203125;0.548828125;-0.255859375;8.5;-18.6875;-16.1875;
1441975699381026;0.5438232421875;-0.57891845703125;-0.591796875;-0.1376953125;14.342092903260781;14.802397841992338;2.577070051045473;-0.43505859375;0.509765625;-0.28564453125;13.875;-28.6875;-15.375;
1441975699398027;0.5389404296875;-0.581787109375;-0.5914306640625;-0.14593505859375;14.38311878284666;14.7952957985983;2.517990828689077;-0.4990234375;0.5107421875;-0.328125;27.25;-40.9375;-15.875;
1441975699419028;0.53326416015625;-0.58404541015625;-0.5927734375;-0.15216064453125;14.40897424038068;14.76656936623342;2.448893921364319;-0.5166015625;0.4990234375;-0.34521484375;36.9375;-50.1875;-12.25;
1441975699441029;0.5264892578125;-0.5882568359375;-0.59375;-0.15576171875;14.39429384709424;14.737541445204874;2.3784876263443193;-0.4287109375;0.533203125;-0.25634765625;27.0625;-49.3125;-8.3125;
1441975699457030;0.51824951171875;-0.59320068359375;-0.595703125;-0.1571044921875;14.34968084448631;14.694561218927541;2.29832908372542;-0.36865234375;0.5771484375;-0.27001953125;27.8125;-43.4375;5.3125;
1441975699479032;0.508056640625;-0.59808349609375;-0.59954833984375;-0.1571044921875;14.285973081636758;14.62829397605234;2.199596481317356;-0.365234375;0.56884765625;-0.259765625;21.5;-42.0625;21.5625;
1441975699501033;0.49700927734375;-0.60382080078125;-0.6033935546875;-0.1561279296875;14.202412237654535;14.563108974302493;2.100175994319826;-0.337890625;0.548828125;-0.17431640625;15.0;-46.25;35.125;
1441975699518034;0.485107421875;-0.60986328125;-0.60784912109375;-0.1527099609375;14.089210558569837;14.49375600468821;2.0033462901160206;-0.2958984375;0.560546875;-0.16552734375;15.9375;-44.9375;42.375;
1441975699539035;0.47198486328125;-0.6160888671875;-0.61346435546875;-0.1463623046875;13.940811974298407;14.416163100645809;1.9076307951826166;-0.2998046875;0.623046875;-0.1494140625;9.5625;-40.1875;52.875;
1441975699561036;0.45751953125;-0.6220703125;-0.62017822265625;-0.13824462890625;13.76856238443757;14.331033378879846;1.8107394374569223;-0.32470703125;0.658203125;-0.15087890625;-1.0;-37.125;69.0;
1441975699578037;0.44171142578125;-0.6279296875;-0.62750244140625;-0.1300048828125;13.585430164724514;14.24348148061326;1.7103097698284317;-0.32275390625;0.6689453125;-0.15380859375;-10.125;-38.9375;81.5625;
1441975699599039;0.42498779296875;-0.6337890625;-0.63470458984375;-0.121826171875;13.39405213900448;14.160760460190316;1.6116779438183721;-0.31494140625;0.6494140625;-0.13720703125;-12.8125;-44.375;89.0;
1441975699622040;0.408935546875;-0.6395263671875;-0.64093017578125;-0.1143798828125;13.21003743441674;14.092378971176046;1.5241745996527445;-0.32470703125;0.66552734375;-0.10791015625;-10.4375;-46.1875;93.125;
1441975699644041;0.3922119140625;-0.64532470703125;-0.64691162109375;-0.10650634765625;13.015388705045211;14.029326237780694;1.440661286459586;-0.34716796875;0.7109375;-0.12939453125;-8.5;-43.0;100.0;
1441975699659042;0.37481689453125;-0.65130615234375;-0.65216064453125;-0.10064697265625;12.830916828487648;13.973956545456996;1.3527970995131795;-0.42333984375;0.82470703125;-0.12353515625;-7.5;-43.3125;103.875;
1441975699681043;0.35662841796875;-0.6573486328125;-0.656982421875;-0.09588623046875;12.64835873826631;13.923613143709318;1.261933913497335;-0.51611328125;0.8857421875;-0.18408203125;-0.375;-51.6875;100.3125;
1441975699697044;0.3402099609375;-0.66229248046875;-0.66107177734375;-0.0931396484375;12.496951469705861;13.881050176223486;1.1777222563944774;-0.5869140625;0.91748046875;-0.19287109375;1.75;-60.375;95.6875;
1441975699719045;0.32684326171875;-0.664794921875;-0.66583251953125;-0.08935546875;12.36417686279451;13.836114472338545;1.1136673516071656;-0.64453125;0.79541015625;-0.1591796875;3.625;-58.6875;89.3125;
1441975699743047;0.3138427734375;-0.670654296875;-0.6666259765625;-0.08563232421875;12.222816417234698;13.827691119200056;1.063203779404152;-0.68896484375;0.64892578125;-0.03759765625;-6.6875;-40.875;86.9375;
1441975699757048;0.30047607421875;-0.67779541015625;-0.6661376953125;-0.08148193359375;12.071291100941227;13.831646853780693;1.016675231590648;-0.65576171875;0.62939453125;0.00244140625;23.1875;-29.375;90.3125;
1441975699779049;0.28814697265625;-0.68353271484375;-0.666259765625;-0.07708740234375;11.929463950038706;13.830508038268167;0.9751778887140717;-0.52783203125;0.6689453125;0.04052734375;35.25;-25.75;87.625;
1441975699801050;0.278076171875;-0.68817138671875;-0.66632080078125;-0.072021484375;11.801262405860731;13.830837302651805;0.9476026995005751;-0.4931640625;0.7529296875;0.07861328125;29.5625;-21.125;78.5625;
1441975699824051;0.27117919921875;-0.69012451171875;-0.66790771484375;-0.0643310546875;11.68088909831744;13.820252300323688;0.942438204470749;-0.46533203125;0.7744140625;0.0615234375;22.5625;-11.5;69.6875;
1441975699839052;0.2672119140625;-0.69195556640625;-0.6683349609375;-0.05670166015625;11.58237569822134;13.819908399785435;0.9531071358667618;-0.42333984375;0.7939453125;0.0869140625;3.0;8.375;61.375;
1441975699861054;0.26373291015625;-0.69549560546875;-0.66656494140625;-0.049560546875;11.486704930184843;13.837056239528593;0.9680052939481362;-0.4423828125;0.8251953125;0.111328125;7.625;21.625;50.5;
1441975699884055;0.26068115234375;-0.697265625;-0.66650390625;-0.04119873046875;11.388605872666496;13.839810346734112;0.9862239054858165;-0.43212890625;0.93896484375;-0.01513671875;16.6875;21.5625;45.25;
1441975699899056;0.25726318359375;-0.696533203125;-0.669189453125;-0.03045654296875;11.274998652978033;13.819359932648538;1.0072231902986715;-0.33203125;0.95263671875;-0.056640625;-1.0;23.1875;40.8125;
1441975699921057;0.2529296875;-0.69476318359375;-0.6732177734375;-0.0155029296875;11.122599501129844;13.786892264630897;1.0384182852013348;-0.27099609375;0.96240234375;0.017578125;-20.8125;28.25;45.6875;
1441975699944058;0.24627685546875;-0.6932373046875;-0.6773681640625;0.00201416015625;10.931898663361839;13.750442894176686;1.0694550978030841;-0.1591796875;1.05322265625;0.00732421875;-37.0625;37.875;56.0;
1441975699959059;0.23748779296875;-0.69342041015625;-0.67999267578125;0.02203369140625;10.700116597555102;13.722951982456083;1.1033890663224288;-0.07763671875;1.0615234375;0.02978515625;-39.3125;38.9375;72.5625;
1441975699989061;0.22686767578125;-0.6944580078125;-0.6815185546875;0.0426025390625;10.448058131384128;13.69975172161413;1.1334399096022763;-0.02001953125;1.0693359375;-0.021484375;-34.0625;41.3125;92.125;
1441975700004062;0.212158203125;-0.6961669921875;-0.682861328125;0.06414794921875;10.156146421113068;13.673332389054684;1.1505454285385892;-0.03662109375;1.1181640625;-0.02587890625;-30.3125;38.125;119.25;
1441975700019063;0.1937255859375;-0.6976318359375;-0.684326171875;0.0867919921875;9.828153824194926;13.640120537159596;1.1575782689924463;0.00537109375;1.1708984375;-0.01806640625;-29.75;25.8125;140.375;
1441975700041064;0.1728515625;-0.6988525390625;-0.68524169921875;0.11041259765625;9.473597854552228;13.605017519038089;1.1609681117854465;0.08837890625;1.162109375;0.0068359375;-33.25;15.75;159.0;
1441975700071066;0.15008544921875;-0.701171875;-0.68389892578125;0.13470458984375;9.093877102467681;13.581105858570675;1.1625531628775485;0.13232421875;1.10498046875;0.04296875;-34.0625;11.0625;173.375;
1441975700080066;0.12469482421875;-0.7037353515625;-0.6812744140625;0.15869140625;8.693637671273427;13.561605800241356;1.1547180924824987;0.18994140625;1.08740234375;0.01318359375;-23.125;7.5625;186.125;
1441975700101067;0.0977783203125;-0.70465087890625;-0.6793212890625;0.18023681640625;8.30412075209004;13.535008805822107;1.1337230823281512;0.21240234375;1.06103515625;-0.00439453125;-19.5625;-2.875;197.375;
1441975700117068;0.06915283203125;-0.70361328125;-0.678955078125;0.1982421875;7.933632597708419;13.498757738734005;1.094727844846824;0.216796875;1.0859375;0.02001953125;-27.5625;-17.6875;193.9375;
1441975700140069;0.04107666015625;-0.70159912109375;-0.678955078125;0.2125244140625;7.597074873869614;13.463923616557231;1.0453301799636647;0.19580078125;0.97216796875;-0.01220703125;-42.6875;-37.375;185.25;
1441975700161071;0.015869140625;-0.7017822265625;-0.6763916015625;0.22308349609375;7.304394475201488;13.456506948668343;0.9901187355123071;0.20556640625;0.8369140625;0.05126953125;-44.9375;-49.6875;167.875;
1441975700185072;-0.00616455078125;-0.703857421875;-0.67230224609375;0.22930908203125;7.0665538688152285;13.472312777966197;0.9257521363010741;0.16552734375;0.744140625;0.04345703125;-21.5;-55.3125;146.625;
1441975700200073;-0.0250244140625;-0.70477294921875;-0.67059326171875;0.23040771484375;6.900467641979318;13.483272594749602;0.8524208395948883;0.1767578125;0.68798828125;0.021484375;-4.0625;-62.8125;119.125;
1441975700221074;-0.0391845703125;-0.70416259765625;-0.67242431640625;0.2247314453125;6.83350781701826;13.483729991066067;0.7707629128096132;0.142578125;0.62353515625;-0.0107421875;-15.3125;-69.125;88.875;
1441975700244075;-0.04779052734375;-0.70269775390625;-0.67767333984375;0.21160888671875;6.876861547993336;13.47556403286052;0.6813838128722907;0.0791015625;0.6552734375;-0.021484375;-31.3125;-75.8125;44.75;
1441975700260076;-0.0499267578125;-0.7020263671875;-0.68402099609375;0.1920166015625;7.025264114094932;13.471325319261382;0.5903106699151114;0.04150390625;0.5537109375;0.0029296875;-41.0625;-83.0625;-11.0;
1441975700281078;-0.04644775390625;-0.703857421875;-0.6883544921875;0.16937255859375;7.24014601210586;13.48513542456884;0.5068832901158227;-0.01953125;0.4775390625;0.033203125;-34.5;-85.4375;-62.5;
1441975700304079;-0.0364990234375;-0.7080078125;-0.6905517578125;0.1436767578125;7.529578869041543;13.515110913758392;0.4362763458314487;-0.076171875;0.451171875;0.02880859375;-12.3125;-78.375;-104.625;
1441975700320080;-0.02081298828125;-0.71380615234375;-0.69073486328125;0.1138916015625;7.896910810900367;13.55798625036546;0.37354404108813366;-0.13330078125;0.47119140625;0.02880859375;10.6875;-68.0625;-140.25;
1441975700341081;-1.8310546875E-4;-0.71856689453125;-0.69091796875;0.080078125;8.337778321276542;13.593904739071263;0.31899406483038567;-0.2041015625;0.52392578125;0.00830078125;29.125;-63.3125;-177.875;
1441975700364082;0.02392578125;-0.72100830078125;-0.6912841796875;0.0423583984375;8.83955160017474;13.61682850122807;0.26707724077312056;-0.2509765625;0.56591796875;-0.02880859375;27.25;-59.8125;-213.5;
1441975700388084;0.0513916015625;-0.72064208984375;-0.69146728515625;0.0;9.407513686182517;13.625936970570985;0.21290861917030418;-0.314453125;0.58251953125;-0.02978515625;19.0;-60.625;-243.4375;
1441975700401084;0.08245849609375;-0.718505859375;-0.68914794921875;-0.0458984375;10.034612040096494;13.634050229349615;0.1609152553211974;-0.353515625;0.56982421875;0.00146484375;10.6875;-66.125;-276.125;
1441975700424086;0.11724853515625;-0.714599609375;-0.68359375;-0.091552734375;10.692525518465292;13.645935417460926;0.12700300576455323;-0.40673828125;0.5712890625;0.0693359375;16.5;-65.3125;-306.1875;
1441975700448087;0.15374755859375;-0.7105712890625;-0.67364501953125;-0.13330078125;11.33617888528796;13.677916379776299;0.12142175146876852;-0.53271484375;0.28515625;0.12744140625;21.9375;-48.375;-319.8125;
1441975700462088;0.188232421875;-0.7076416015625;-0.65814208984375;-0.17535400390625;11.972906458280542;13.738733723469009;0.11742247001173994;-0.77734375;0.33251953125;0.01806640625;34.75;-22.5625;-311.4375;
1441975700484089;0.220947265625;-0.70013427734375;-0.64208984375;-0.22088623046875;12.636955340165763;13.777694535950134;0.09154387764831862;-0.9365234375;0.46484375;-0.12890625;61.0625;-26.75;-307.5625;
1441975700504090;0.2537841796875;-0.68408203125;-0.62982177734375;-0.26641845703125;13.31697381499383;13.754547337205961;0.04566763088150366;-1.0400390625;0.53759765625;-0.1796875;51.0625;-52.0;-320.3125;
1441975700521091;0.28729248046875;-0.664794921875;-0.61651611328125;-0.30908203125;13.99164854685658;13.717591626694741;0.003883886037181712;-1.099609375;0.44921875;-0.16015625;4.8125;-67.5625;-327.3125;
1441975700545093;0.31976318359375;-0.64727783203125;-0.597900390625;-0.3482666015625;14.643204065831506;13.720119616067064;17.98701468198314;-1.1494140625;0.2197265625;-0.12451171875;-8.0625;-57.0;-324.5625;
1441975700560093;0.34814453125;-0.63153076171875;-0.5750732421875;-0.386474609375;15.268071924749732;13.74974660008977;17.970200209916605;-1.330078125;0.083984375;-0.16552734375;14.375;-36.4375;-312.8125;
1441975700581095;0.37237548828125;-0.61572265625;-0.550048828125;-0.42401123046875;15.869931979767511;13.779891587307219;17.93775035637258;-1.48974609375;0.01513671875;-0.12890625;42.875;-35.125;-299.3125;
1441975700605096;0.396240234375;-0.597900390625;-0.5255126953125;-0.45758056640625;16.4493524335216;13.810789998305014;17.923865586922634;-1.52685546875;0.14111328125;-0.0537109375;59.6875;-41.1875;-291.5625;
1441975700620097;0.42083740234375;-0.577392578125;-0.50262451171875;-0.48675537109375;17.009572265443932;13.849349822568053;17.944476861138362;-1.56103515625;0.228515625;-0.09033203125;43.5625;-35.0;-284.625;
1441975700642098;0.44232177734375;-0.557861328125;-0.47723388671875;-0.51519775390625;17.553206153166833;14.005563851063545;0.06504912959147419;-1.65087890625;0.1318359375;-0.154296875;17.75;-29.75;-276.375;
1441975700664099;0.45654296875;-0.543212890625;-0.44677734375;-0.54486083984375;17.91975102453564;2.9939459324509414;6.963896359495115;-1.77685546875;-0.0380859375;-0.0859375;36.375;-26.4375;-268.25;
1441975700680100;0.46929931640625;-0.52752685546875;-0.4173583984375;-0.5721435546875;17.444976720366355;4.58916019057369;8.47706279937413;-1.80126953125;0.1630859375;-0.12744140625;90.5;-23.9375;-257.0;
1441975700701102;0.48370361328125;-0.50750732421875;-0.39031982421875;-0.5968017578125;16.95163550062967;4.767859386510084;8.603902184078281;-1.74365234375;0.37548828125;-0.22607421875;83.25;-28.25;-252.25;
1441975700724103;0.49420166015625;-0.48724365234375;-0.36199951171875;-0.62237548828125;16.463626326292598;4.8986739833685;8.664113398531272;-1.68017578125;0.232421875;-0.22998046875;53.4375;-37.5;-254.625;
1441975700748104;0.50091552734375;-0.46771240234375;-0.3323974609375;-0.64801025390625;15.990079361989023;5.008940121267714;8.684478680691464;-1.55322265625;0.24462890625;-0.1767578125;72.75;-45.625;-252.1875;
1441975700761105;0.50738525390625;-0.4468994140625;-0.30462646484375;-0.6708984375;15.532890464918964;5.0926608518856415;8.692271809202028;-1.427734375;0.36328125;-0.19970703125;91.5;-48.0;-247.5;
1441975700784106;0.51348876953125;-0.425537109375;-0.278564453125;-0.691162109375;15.095762803872816;5.158121943104104;8.69285622801573;-1.3017578125;0.3876953125;-0.21728515625;77.3125;-51.5625;-239.25;
1441975700800107;0.51715087890625;-0.40509033203125;-0.25396728515625;-0.70989990234375;14.69112153037868;5.226203489766236;8.692945335171181;-1.205078125;0.3232421875;-0.15380859375;65.5;-52.125;-228.3125;
1441975700821108;0.5179443359375;-0.38580322265625;-0.23126220703125;-0.7276611328125;14.322217266919388;5.30408648224833;8.697592977369107;-1.12060546875;0.31494140625;-0.1708984375;68.8125;-53.75;-211.375;
1441975700844110;0.51708984375;-0.3682861328125;-0.21038818359375;-0.74346923828125;13.992282135849605;5.3768101513227915;8.69668637308522;-0.9912109375;0.3232421875;-0.17919921875;74.6875;-56.375;-191.9375;
1441975700860111;0.51263427734375;-0.3541259765625;-0.191650390625;-0.75836181640625;13.718684279591367;5.460594172717203;8.694268972934927;-0.861328125;0.330078125;-0.15771484375;74.125;-52.125;-171.75;
1441975700881112;0.50543212890625;-0.343505859375;-0.17529296875;-0.77191162109375;13.50307614615496;5.549307777877635;8.68882633673889;-0.779296875;0.3759765625;-0.14111328125;85.625;-46.1875;-143.8125;
1441975700904113;0.49859619140625;-0.33978271484375;-0.16705322265625;-0.77984619140625;13.414359552468065;5.613654115450951;8.686915988874256;-0.66796875;0.5361328125;-0.2470703125;93.1875;-39.3125;-116.625;
1441975700921114;0.4918212890625;-0.33868408203125;-0.16259765625;-0.7855224609375;13.378637196125291;5.670670091071909;8.691108303392726;-0.58056640625;0.51318359375;-0.25;67.375;-37.25;-93.125;
1441975700941115;0.4857177734375;-0.34222412109375;-0.16278076171875;-0.7877197265625;13.420735879168742;5.710472776270892;8.695714818169197;-0.548828125;0.42529296875;-0.1708984375;53.5;-28.1875;-60.75;
1441975700964117;0.482177734375;-0.34912109375;-0.16815185546875;-0.7857666015625;13.529621976183481;5.723147526805796;8.704566406987674;-0.53515625;0.41064453125;-0.2001953125;37.375;-14.75;-23.5;
1441975700980118;0.474853515625;-0.36163330078125;-0.17730712890625;-0.78253173828125;13.725030536787346;5.752983568977683;8.721246834582447;-0.53857421875;0.2724609375;-0.15234375;7.6875;-1.625;15.0;
1441975701001119;0.46435546875;-0.379638671875;-0.18975830078125;-0.77740478515625;14.003224435027057;5.794996901073272;8.743083738061971;-0.55322265625;0.32275390625;-0.12939453125;17.0;12.9375;53.5625;
1441975701024120;0.45562744140625;-0.39459228515625;-0.20196533203125;-0.77197265625;14.248990252914703;5.834120117934439;8.775116153107051;-0.6416015625;0.4462890625;-0.19189453125;24.5625;24.4375;82.4375;
1441975701040121;0.4466552734375;-0.41302490234375;-0.218017578125;-0.76318359375;14.560128562832931;5.869329722021838;8.816399357516055;-0.705078125;0.51513671875;-0.26171875;14.25;29.625;105.5;
1441975701061122;0.44268798828125;-0.433837890625;-0.24102783203125;-0.74688720703125;14.946853931109638;5.856878323726089;8.864238609574436;-0.7607421875;0.6494140625;-0.35302734375;1.875;40.75;133.75;
1441975701084123;0.43804931640625;-0.45751953125;-0.2681884765625;-0.72589111328125;15.40438742548613;5.842050563894185;8.924848424833122;-0.98291015625;0.5478515625;-0.27880859375;-52.8125;57.5;167.8125;
1441975701100124;0.42901611328125;-0.4849853515625;-0.2974853515625;-0.70159912109375;15.935427033893445;5.8627868178224745;9.010545123170687;-1.27490234375;0.3974609375;-0.13427734375;-68.875;71.4375;202.125;
1441975701123126;0.41864013671875;-0.51220703125;-0.33087158203125;-0.67303466796875;16.51127801619992;5.953465330486476;9.18427006513434;-1.6181640625;0.357421875;-0.12060546875;-58.3125;83.9375;237.6875;
1441975701144127;0.40057373046875;-0.5418701171875;-0.36529541015625;-0.642333984375;17.13645872491248;6.3879396759162335;9.677165860541288;-1.900390625;0.0556640625;-0.03662109375;-75.125;84.25;270.6875;
1441975701159128;0.3682861328125;-0.5804443359375;-0.3941650390625;-0.61004638671875;17.68137314254957;9.426162349830012;12.689920129831743;-2.0771484375;-0.33837890625;0.13818359375;-48.25;86.875;317.1875;
1441975701183129;0.33154296875;-0.620361328125;-0.42205810546875;-0.572021484375;17.167845368845587;13.29055777921998;16.51989840317412;-2.18212890625;-0.19140625;0.07080078125;36.0625;107.8125;367.0;
1441975701204130;0.2994384765625;-0.65289306640625;-0.45635986328125;-0.52520751953125;16.35513147009447;13.822658009679564;17.09083648503559;-2.40771484375;0.2861328125;0.0283203125;45.625;124.6875;391.75;
1441975701220131;0.26910400390625;-0.67596435546875;-0.498046875;-0.471923828125;15.495326168866239;13.897647544979428;17.27318761111151;-2.6953125;0.53564453125;0.10791015625;-27.1875;130.3125;402.625;
1441975701243133;0.23651123046875;-0.69427490234375;-0.536865234375;-0.41705322265625;14.64034403150644;13.893615979914562;17.37703285429084;-2.9052734375;0.24462890625;0.06494140625;-96.0;118.125;418.875;
1441975701264134;0.19378662109375;-0.72052001953125;-0.55523681640625;-0.3675537109375;13.814110683149861;13.988816906950696;17.443146023315414;-2.85009765625;-0.29833984375;0.2109375;-94.75;109.5;417.4375;
1441975701279135;0.144775390625;-0.75140380859375;-0.55682373046875;-0.3231201171875;13.03006729628997;14.148235971210404;17.46244663690883;-2.3857421875;-0.263671875;0.0263671875;42.6875;103.625;402.75;
1441975701303136;0.1004638671875;-0.776123046875;-0.55517578125;-0.2818603515625;12.329829933326868;14.279988747098477;17.458666967635978;-2.29296875;0.13134765625;-0.1572265625;145.75;91.0;382.1875;
1441975701324137;0.0704345703125;-0.789794921875;-0.55743408203125;-0.24615478515625;11.786046519592553;14.346320044681184;17.468242615872963;-2.15771484375;0.60400390625;0.1220703125;134.0;83.3125;340.6875;
1441975701340138;0.05718994140625;-0.7906494140625;-0.5733642578125;-0.20733642578125;11.316561251952798;14.310427697586556;17.53900716788703;-1.97607421875;0.693359375;0.19140625;67.3125;94.5625;282.125;
1441975701363139;0.05926513671875;-0.7755126953125;-0.60540771484375;-0.1690673828125;10.951024442489938;14.143102115347993;17.65639302960201;-1.73583984375;0.615234375;0.14404296875;-61.3125;137.4375;229.1875;
