1441975623279673;0.0670166015625;-0.744140625;-0.63616943359375;-0.19293212890625;11.186009524367943;13.859878739182482;17.548360969987705;-1.65625;-0.0478515625;0.2001953125;32.75;47.4375;156.0625;
1441975623302675;0.0760498046875;-0.71875;-0.671875;-0.1622314453125;10.959438947835944;13.635810333238993;17.668828536030052;-1.4326171875;-0.25927734375;0.16015625;-122.8125;92.25;148.0;
1441975623323676;0.087158203125;-0.67620849609375;-0.718994140625;-0.1351318359375;10.794273044824575;13.287953755305665;17.769576620261496;-1.2236328125;-0.0283203125;0.015625;-266.3125;124.0;123.0625;
1441975623339677;0.09149169921875;-0.6373291015625;-0.75738525390625;-0.1092529296875;10.612975574177343;12.987351896357595;17.85420906276778;-1.287109375;-0.37451171875;-0.07421875;-381.3125;94.1875;107.125;
1441975623362678;0.09405517578125;-0.62005615234375;-0.7735595703125;-0.091796875;10.502956583961463;12.86150256936039;17.924712910831964;-1.3046875;-0.74658203125;0.03125;-325.75;68.875;100.1875;
1441975623383679;0.10101318359375;-0.627197265625;-0.7672119140625;-0.08837890625;10.541792467316217;12.923026317503032;17.973550381341802;-1.2587890625;-0.66748046875;-0.009765625;-142.375;51.4375;91.125;
1441975623399680;0.1036376953125;-0.646484375;-0.751220703125;-0.08428955078125;10.534684218863966;13.074403504161149;0.021862656833004507;-1.1328125;-0.25244140625;0.0244140625;54.3125;34.875;69.0;
1441975623422681;0.11273193359375;-0.661376953125;-0.73663330078125;-0.08551025390625;10.621091667347736;13.201699807063152;0.06902966025215897;-0.9619140625;0.2109375;-0.10498046875;136.5;42.1875;26.1875;
1441975623443683;0.13348388671875;-0.66705322265625;-0.72674560546875;-0.09588623046875;10.877773655042875;13.274142424611416;0.1171533951175382;-1.009765625;0.5439453125;-0.16162109375;110.9375;47.4375;-22.9375;
1441975623465684;0.15472412109375;-0.66473388671875;-0.72314453125;-0.1065673828125;11.143313839615722;13.289063931294214;0.15878835406513492;-1.09912109375;0.79541015625;-0.103515625;47.1875;48.9375;-68.6875;
1441975623482685;0.18060302734375;-0.65777587890625;-0.7210693359375;-0.12200927734375;11.48924460740341;13.28018693486598;0.19479323311426333;-1.16845703125;0.85546875;0.01220703125;-0.0625;47.875;-115.875;
1441975623503686;0.20977783203125;-0.64959716796875;-0.7169189453125;-0.1417236328125;11.900551356231869;13.276793653524773;0.2273407375445241;-1.17236328125;0.82177734375;0.09130859375;-22.8125;45.375;-157.875;
1441975623526687;0.2413330078125;-0.64385986328125;-0.70684814453125;-0.1661376953125;12.37170482072089;13.3123775400764;0.26176841707383125;-1.1201171875;0.76416015625;0.1728515625;-16.3125;44.8125;-192.5625;
1441975623542688;0.27545166015625;-0.63946533203125;-0.69110107421875;-0.19403076171875;12.896497435824601;13.38767837168869;0.3104304813522652;-1.17138671875;0.71923828125;0.16064453125;19.375;46.4375;-223.125;
1441975623563690;0.309326171875;-0.6337890625;-0.67333984375;-0.22198486328125;13.42605182486777;13.478829584512349;0.3736680887826406;-1.2841796875;0.623046875;0.037109375;46.6875;52.8125;-249.5625;
1441975623586691;0.3397216796875;-0.62469482421875;-0.6572265625;-0.24981689453125;13.934616648445532;13.549688082459905;0.42400082351530477;-1.4892578125;0.5615234375;-0.099609375;47.9375;51.875;-252.3125;
1441975623602692;0.36871337890625;-0.61224365234375;-0.64202880859375;-0.27777099609375;14.44348434083456;13.605581112980481;0.46900998367287844;-1.5390625;0.6611328125;-0.11962890625;32.875;31.8125;-245.8125;
1441975623623693;0.39593505859375;-0.59820556640625;-0.6258544921875;-0.30615234375;14.952461885817465;13.664975290925243;0.5138592514826886;-1.44482421875;0.64111328125;-0.07861328125;19.75;20.375;-249.8125;
1441975623645694;0.42132568359375;-0.58331298828125;-0.60784912109375;-0.33587646484375;15.468762364600357;13.737961765559932;0.5610540983391789;-1.40625;0.60498046875;-0.04638671875;21.75;12.375;-252.125;
1441975623662695;0.4447021484375;-0.567626953125;-0.5889892578125;-0.364990234375;15.97390129439222;13.830235742901646;0.6244944195723524;-1.3740234375;0.54248046875;-0.09130859375;30.75;3.3125;-257.75;
1441975623683696;0.465576171875;-0.55133056640625;-0.56964111328125;-0.3935546875;16.464008035370387;13.949008004900977;0.7102095361281311;-1.34912109375;0.50439453125;-0.1005859375;33.5;-1.375;-254.1875;
1441975623705698;0.4835205078125;-0.5357666015625;-0.5491943359375;-0.4215087890625;16.930661300293092;14.14696436611463;0.8640656054664901;-1.28125;0.43017578125;-0.0419921875;37.0625;-6.625;-247.9375;
1441975623722699;0.49835205078125;-0.5211181640625;-0.5283203125;-0.4483642578125;17.362126239229887;14.548576719482337;1.2126845428942952;-1.20654296875;0.3681640625;-0.00634765625;48.125;-9.6875;-238.1875;
1441975623743700;0.50921630859375;-0.50775146484375;-0.50714111328125;-0.47509765625;17.73485677047013;15.88380518657258;2.4798285049079087;-1.16748046875;0.275390625;-0.03515625;57.0;-13.3125;-223.875;
1441975623766701;0.51458740234375;-0.49652099609375;-0.48626708984375;-0.50225830078125;17.765853067820494;2.8196440039577393;7.32559008723743;-1.18115234375;0.09814453125;-0.06005859375;71.0;-21.0;-207.0625;
1441975623782702;0.5162353515625;-0.48748779296875;-0.466064453125;-0.52789306640625;17.47785643293702;4.239752216159574;8.644880617188427;-1.09716796875;0.126953125;0.021484375;93.125;-32.3125;-187.25;
1441975623803703;0.51727294921875;-0.47906494140625;-0.44873046875;-0.54913330078125;17.20512541184714;4.620852975322807;8.94221777020225;-0.9794921875;0.17236328125;0.03466796875;103.0625;-34.0;-165.625;
1441975623826705;0.51959228515625;-0.4698486328125;-0.43658447265625;-0.5645751953125;16.97813552227744;4.8011661405827555;9.076062220355226;-0.947265625;0.14453125;-0.013671875;85.5625;-31.1875;-141.75;
1441975623842706;0.52166748046875;-0.46148681640625;-0.42913818359375;-0.5751953125;16.81006170129388;4.916872819628601;9.16945996157755;-0.93408203125;0.07421875;-0.04150390625;48.3125;-30.375;-115.8125;
1441975623863707;0.5220947265625;-0.45489501953125;-0.4239501953125;-0.58380126953125;16.68436707999821;5.019420275321902;9.252147081032945;-0.9375;-0.068359375;-0.00244140625;24.125;-30.4375;-90.0;
1441975623885708;0.52020263671875;-0.4517822265625;-0.42034912109375;-0.5904541015625;16.61201176308961;5.108960957202816;9.31538459163478;-0.88818359375;-0.08740234375;0.0458984375;21.5;-27.5625;-67.0625;
1441975623902709;0.5169677734375;-0.45172119140625;-0.41912841796875;-0.59423828125;16.595825150034592;5.18513126299168;9.36787137163682;-0.84765625;-0.0546875;0.0498046875;27.3125;-21.0;-43.0;
1441975623931711;0.5133056640625;-0.4534912109375;-0.4212646484375;-0.59454345703125;16.632080708216087;5.257487603756109;9.429941514595805;-0.84521484375;0.00146484375;0.02734375;24.875;-15.625;-19.0;
1441975623945711;0.51055908203125;-0.45587158203125;-0.42730712890625;-0.59075927734375;16.712959152434337;5.32272105068348;9.509013011998405;-0.87158203125;0.0654296875;0.01806640625;11.4375;-12.5;2.875;
1441975623969713;0.51007080078125;-0.45770263671875;-0.43695068359375;-0.5826416015625;16.824986229989953;5.367517861726064;9.598665736607607;-0.892578125;0.12744140625;0.01318359375;-12.3125;-9.4375;21.6875;
1441975623983714;0.51153564453125;-0.45831298828125;-0.44952392578125;-0.57122802734375;16.954769921956828;5.409761038489812;9.712727490656947;-0.927734375;0.1142578125;-0.00244140625;-43.3125;-6.4375;38.5625;
1441975624005715;0.51361083984375;-0.4586181640625;-0.46380615234375;-0.5574951171875;17.10201799077356;5.468873012513451;9.857670505181046;-0.9345703125;0.07177734375;0.0048828125;-69.9375;-4.625;52.1875;
1441975624022716;0.51556396484375;-0.45928955078125;-0.4788818359375;-0.542236328125;17.264637553377703;5.5673226626488495;10.04699888261103;-0.931640625;0.03564453125;0.0;-84.0625;-3.1875;65.25;
1441975624043717;0.516357421875;-0.4608154296875;-0.49407958984375;-0.52630615234375;17.4392775462066;5.777231387384381;10.344103771681345;-0.96435546875;0.00341796875;-0.01220703125;-88.9375;-0.9375;77.25;
1441975624065718;0.51458740234375;-0.463134765625;-0.50848388671875;-0.51202392578125;17.600706296945756;6.325512004313315;10.962866750763663;-1.06298828125;-0.03955078125;-0.03955078125;-84.875;-2.125;89.5;
1441975624082719;0.508544921875;-0.4674072265625;-0.52264404296875;-0.499755859375;17.714039804785205;7.835742156643084;12.519251272566626;-1.08447265625;-0.1015625;-0.041015625;-67.75;-8.9375;98.5;
1441975624103720;0.50006103515625;-0.4735107421875;-0.535888671875;-0.48846435546875;17.68539063635509;10.011252056048626;14.72329695691551;-0.95849609375;-0.04345703125;-0.029296875;-43.625;-15.75;106.25;
1441975624134722;0.49053955078125;-0.48016357421875;-0.54833984375;-0.47772216796875;17.531123674565983;11.25479378522223;15.987072073599878;-0.86181640625;0.05322265625;-0.0439453125;-25.8125;-17.6875;111.6875;
1441975624142723;0.48040771484375;-0.487060546875;-0.559814453125;-0.467529296875;17.337030819950158;11.818018646770795;16.56382428123998;-0.87646484375;0.12109375;-0.046875;-17.75;-18.875;111.375;
1441975624164724;0.46990966796875;-0.49444580078125;-0.56964111328125;-0.45855712890625;17.140379626431688;12.11521551463669;16.863927084460336;-0.912109375;0.181640625;-0.0361328125;-10.9375;-18.8125;109.125;
1441975624185725;0.45928955078125;-0.5029296875;-0.577392578125;-0.4503173828125;16.950931056675344;12.330549666933832;17.070642545365285;-0.92529296875;0.22412109375;-0.0498046875;-0.5;-18.0;103.0625;
1441975624202726;0.44891357421875;-0.5107421875;-0.58380126953125;-0.4437255859375;16.777302449118128;12.458238821177359;17.183729522481396;-0.94580078125;0.2646484375;-0.05859375;9.4375;-18.8125;93.0625;
1441975624232728;0.43902587890625;-0.5174560546875;-0.5894775390625;-0.43829345703125;16.619180801293755;12.532599422415155;17.24258400738442;-0.9521484375;0.2763671875;-0.0595703125;14.4375;-21.125;82.8125;
1441975624245729;0.4300537109375;-0.52301025390625;-0.59454345703125;-0.4337158203125;16.479035259023455;12.576685690130118;17.272878171694376;-0.90478515625;0.27197265625;-0.03173828125;15.1875;-22.0625;74.5625;
1441975624263730;0.42218017578125;-0.52801513671875;-0.598388671875;-0.4300537109375;16.36085729074529;12.613111464129359;17.294033719298167;-0.8447265625;0.248046875;0.009765625;13.5;-19.8125;66.75;
1441975624284731;0.4154052734375;-0.533203125;-0.60040283203125;-0.427490234375;16.267003834443543;12.657380116014386;17.317108013679835;-0.806640625;0.22412109375;0.05078125;15.5625;-14.1875;57.6875;
1441975624314733;0.40960693359375;-0.53826904296875;-0.60113525390625;-0.4256591796875;16.19227323570527;12.704775228473267;17.340582209764726;-0.791015625;0.23388671875;0.06201171875;21.8125;-8.25;47.0;
1441975624322733;0.40521240234375;-0.54241943359375;-0.60150146484375;-0.42401123046875;16.134295709286228;12.746511393166498;17.36346871180129;-0.79443359375;0.2568359375;0.05419921875;24.9375;-4.8125;37.25;
1441975624350735;0.40216064453125;-0.54473876953125;-0.6026611328125;-0.42236328125;16.087872823802318;12.76509824162899;17.374682474792305;-0.78369140625;0.2412109375;0.03173828125;19.1875;-3.4375;30.875;
1441975624365735;0.4000244140625;-0.546142578125;-0.6041259765625;-0.42047119140625;16.04847209038909;12.776533701387663;17.385650255845594;-0.74755859375;0.18115234375;0.0576171875;8.0625;-3.0625;27.75;
1441975624382736;0.39849853515625;-0.54754638671875;-0.60516357421875;-0.41864013671875;16.01657509775409;12.793187067518152;17.402176858969547;-0.70703125;0.14892578125;0.06640625;1.875;-1.25;26.3125;
1441975624404738;0.3975830078125;-0.5484619140625;-0.60601806640625;-0.41705322265625;15.993284051924764;12.806074211294833;17.41687983116619;-0.6845703125;0.1513671875;0.05859375;1.25;1.4375;22.5;
1441975624425739;0.39715576171875;-0.5489501953125;-0.607177734375;-0.41522216796875;15.97211744710577;12.815874830093097;17.432752522806627;-0.689453125;0.16552734375;0.06884765625;-0.1875;2.5;17.625;
1441975624442740;0.39752197265625;-0.54913330078125;-0.60791015625;-0.4134521484375;15.960817792868212;12.828555036070117;17.45327679526459;-0.7021484375;0.2099609375;0.0830078125;-4.4375;4.3125;14.375;
1441975624464741;0.3990478515625;-0.54876708984375;-0.6080322265625;-0.4122314453125;15.966633877753988;12.840823077503817;17.474953674023798;-0.75830078125;0.2646484375;0.083984375;-6.0625;6.75;7.9375;
1441975624494743;0.40185546875;-0.54718017578125;-0.60772705078125;-0.41217041015625;15.99503613562462;12.839763775402858;17.48590655720125;-0.875;0.30419921875;0.06298828125;-8.375;7.3125;-0.625;
1441975624508744;0.40521240234375;-0.54437255859375;-0.6075439453125;-0.41278076171875;16.034715404039268;12.821112051980709;17.48279322880281;-0.97802734375;0.25341796875;0.05126953125;-11.25;4.9375;-6.6875;
1441975624524745;0.40850830078125;-0.54193115234375;-0.60650634765625;-0.414306640625;16.082373960485835;12.804845856805175;17.47563414349731;-0.99560546875;0.18310546875;0.080078125;-15.0;3.375;-9.125;
1441975624548746;0.41143798828125;-0.54058837890625;-0.60400390625;-0.41680908203125;16.136987781197288;12.802360766378303;17.47088649743749;-0.9931640625;0.15625;0.1123046875;-7.875;5.125;-11.625;
1441975624562747;0.4140625;-0.5400390625;-0.60076904296875;-0.41961669921875;16.192360413847886;12.81103056610226;17.47109829060267;-1.01318359375;0.16748046875;0.1083984375;3.375;6.9375;-15.8125;
1441975624592748;0.4166259765625;-0.538330078125;-0.598876953125;-0.4219970703125;16.241246546766707;12.797549682367128;17.457508681432373;-1.0205078125;0.1728515625;0.060546875;8.75;5.25;-17.0;
1441975624605749;0.4193115234375;-0.53533935546875;-0.598388671875;-0.423828125;16.284328759217455;12.760726587227952;17.430323067756557;-0.97900390625;0.13232421875;0.05810546875;0.0625;0.75;-13.625;
1441975624622750;0.4215087890625;-0.5322265625;-0.59832763671875;-0.42559814453125;16.320966230563894;12.71477873997999;17.394377051712492;-0.95263671875;0.07373046875;0.06591796875;-9.8125;-3.0625;-8.625;
1441975624644751;0.42254638671875;-0.530029296875;-0.59832763671875;-0.4273681640625;16.344898046522935;12.672415139283384;17.356196373040824;-0.9287109375;-0.00146484375;0.072265625;-10.5625;-5.5625;-2.1875;
1441975624665753;0.42193603515625;-0.52960205078125;-0.597900390625;-0.4290771484375;16.35233524889537;12.648398673035416;17.325447343252176;-0.88427734375;-0.03369140625;0.08447265625;-3.9375;-6.5625;4.5625;
1441975624682754;0.419921875;-0.53070068359375;-0.597412109375;-0.43035888671875;16.34220364278939;12.642588608334037;17.30551965184692;-0.861328125;-0.00634765625;0.09033203125;7.0625;-6.375;10.8125;
1441975624710755;0.41717529296875;-0.5325927734375;-0.5970458984375;-0.43115234375;16.320771043890765;12.647979066124872;17.29416145827181;-0.87255859375;0.06298828125;0.08740234375;14.4375;-6.0625;15.4375;
1441975624725756;0.4139404296875;-0.5347900390625;-0.59698486328125;-0.431640625;16.29125137900333;12.655656161763073;17.28456184946686;-0.9072265625;0.12744140625;0.08251953125;17.25;-6.0625;18.375;
1441975624742757;0.410888671875;-0.5372314453125;-0.5966796875;-0.4320068359375;16.26333457402628;12.670733137517137;17.281815146967745;-0.93603515625;0.18310546875;0.09765625;17.75;-6.0;19.25;
1441975624764758;0.40838623046875;-0.5394287109375;-0.5960693359375;-0.43243408203125;16.242642616304618;12.687091949313182;17.281573644606773;-0.974609375;0.23095703125;0.0859375;17.8125;-5.0;17.0625;
1441975624785759;0.40643310546875;-0.5411376953125;-0.59552001953125;-0.43292236328125;16.227703715616755;12.698699285434335;17.2795716632625;-0.99658203125;0.25439453125;0.0810546875;16.6875;-3.5;13.3125;
1441975624802760;0.40521240234375;-0.5423583984375;-0.5946044921875;-0.43377685546875;16.224024076544268;12.706984534086109;17.27564981531592;-0.99267578125;0.27099609375;0.09814453125;14.1875;-2.1875;9.1875;
1441975624824762;0.40478515625;-0.543212890625;-0.59332275390625;-0.43487548828125;16.231109859168768;12.715105727690398;17.273146288720415;-0.97412109375;0.2529296875;0.10693359375;12.5625;0.0;4.5;
1441975624845763;0.40460205078125;-0.54376220703125;-0.59185791015625;-0.436279296875;16.24365560565462;12.718971960219553;17.2665654821209;-0.95654296875;0.22314453125;0.10888671875;11.4375;1.6875;1.125;
1441975624862764;0.404541015625;-0.54425048828125;-0.59039306640625;-0.437744140625;16.257648558693177;12.722037279341183;17.25953814938174;-0.919921875;0.19140625;0.11083984375;11.375;2.125;-0.625;
1441975624884765;0.40484619140625;-0.54437255859375;-0.5894775390625;-0.4385986328125;16.269356950604635;12.723955859137147;17.25685158049659;-0.890625;0.18603515625;0.11328125;10.75;2.375;-1.8125;
1441975624906766;0.40576171875;-0.54388427734375;-0.58917236328125;-0.43878173828125;16.280782437503763;12.72296080268018;17.258503853679137;-0.87255859375;0.20458984375;0.103515625;5.8125;2.9375;-2.0625;
1441975624921767;0.407470703125;-0.54217529296875;-0.5897216796875;-0.4384765625;16.29466343639992;12.708011763572554;17.255926573887987;-0.888671875;0.22998046875;0.0888671875;-2.3125;2.8125;-3.3125;
1441975624944769;0.40972900390625;-0.539794921875;-0.590576171875;-0.438232421875;16.313342028109385;12.68365425942008;17.24817181599125;-0.9091796875;0.22314453125;0.091796875;-11.9375;2.1875;-3.9375;
1441975624966770;0.4119873046875;-0.53741455078125;-0.59100341796875;-0.43841552734375;16.336625455585274;12.657849153548467;17.236486521078454;-0.9462890625;0.2138671875;0.08642578125;-16.4375;0.8125;-5.125;
1441975624982771;0.41387939453125;-0.53533935546875;-0.5909423828125;-0.4393310546875;16.36246850274594;12.629754115228645;17.217019551956472;-0.994140625;0.197265625;0.0791015625;-14.4375;-0.4375;-6.5;
1441975625011772;0.4151611328125;-0.5335693359375;-0.59063720703125;-0.44061279296875;16.38566534564959;12.599855083092757;17.191336870042324;-1.0087890625;0.181640625;0.0712890625;-9.125;-2.5;-7.125;
1441975625026773;0.4158935546875;-0.5321044921875;-0.59014892578125;-0.44232177734375;16.406528952250596;12.56722903293424;17.158688269034258;-0.99267578125;0.17138671875;0.0732421875;-4.8125;-4.5;-6.5625;
1441975625041774;0.41632080078125;-0.531005859375;-0.58953857421875;-0.444091796875;16.424761423868404;12.537804551728712;17.1267703887434;-0.9765625;0.166015625;0.0751953125;-1.125;-6.0625;-6.0625;
1441975625064775;0.41650390625;-0.5299072265625;-0.589111328125;-0.44580078125;16.4394186989572;12.505690132750535;17.09216909275979;-0.9716796875;0.1728515625;0.0732421875;1.375;-6.75;-5.5625;
1441975625086777;0.41644287109375;-0.52886962890625;-0.58892822265625;-0.4473876953125;16.44964433653785;12.472214531750138;17.056386523867943;-0.96240234375;0.17431640625;0.07861328125;1.5;-7.3125;-4.75;
1441975625101778;0.416259765625;-0.52801513671875;-0.58868408203125;-0.44879150390625;16.457829349555077;12.443193794425019;17.024537783156052;-0.94580078125;0.1748046875;0.0888671875;1.3125;-7.25;-3.625;
1441975625123779;0.4161376953125;-0.52740478515625;-0.58856201171875;-0.4498291015625;16.463439625459042;12.421478459264673;17.00087440177161;-0.93896484375;0.18701171875;0.09423828125;2.0625;-6.625;-2.9375;
1441975625146780;0.4163818359375;-0.52655029296875;-0.5887451171875;-0.45037841796875;16.468579339245697;12.401340976588333;16.982848842751025;-0.9365234375;0.20263671875;0.0771484375;0.875;-5.875;-2.75;
1441975625161781;0.41717529296875;-0.52520751953125;-0.5892333984375;-0.45050048828125;16.475619156800953;12.37914720107176;16.967884607587454;-0.94189453125;0.2158203125;0.07177734375;-3.125;-5.25;-2.5;
1441975625184782;0.418212890625;-0.523681640625;-0.58990478515625;-0.45050048828125;16.48334276386702;12.355232475548645;16.953309148686966;-0.95361328125;0.20849609375;0.06396484375;-7.875;-4.6875;-2.5625;
1441975625206784;0.41937255859375;-0.5220947265625;-0.59051513671875;-0.450439453125;16.49231500751005;12.33194977341877;16.939895796139883;-0.9716796875;0.21142578125;0.06884765625;-10.3125;-4.25;-2.9375;
1441975625222784;0.4205322265625;-0.52056884765625;-0.5909423828125;-0.4505615234375;16.503002347860722;12.30839580910613;16.924971507358013;-0.98583984375;0.20703125;0.0673828125;-10.625;-4.0625;-3.1875;
1441975625244786;0.42156982421875;-0.51922607421875;-0.59112548828125;-0.45086669921875;16.51452325771652;12.286341232155934;16.909429028603064;-0.9765625;0.18994140625;0.06689453125;-9.5;-4.0625;-3.125;
1441975625266787;0.42218017578125;-0.51824951171875;-0.5911865234375;-0.451416015625;16.523366844232104;12.265692333947285;16.891937760080065;-0.97265625;0.1689453125;0.0673828125;-7.3125;-4.125;-2.3125;
1441975625283788;0.42242431640625;-0.51776123046875;-0.591064453125;-0.451904296875;16.52906746212903;12.253280812160792;16.87987097451849;-0.9638671875;0.1552734375;0.080078125;-3.5;-3.8125;-0.8125;
1441975625303789;0.4224853515625;-0.5174560546875;-0.591064453125;-0.45208740234375;16.530905791073746;12.246159810744278;16.87328263931346;-0.96484375;0.15966796875;0.083984375;-0.9375;-3.3125;0.8125;
1441975625326790;0.42254638671875;-0.5172119140625;-0.5914306640625;-0.451904296875;16.528809978946203;12.242280103267191;16.87187050254103;-0.96044921875;0.16455078125;0.07958984375;-0.625;-3.0;2.6875;
1441975625342791;0.42266845703125;-0.516845703125;-0.59210205078125;-0.451416015625;16.524322131211687;12.238569496834284;16.87292277946871;-0.95361328125;0.17578125;0.07763671875;-2.25;-2.75;4.1875;
1441975625364793;0.42291259765625;-0.51629638671875;-0.5928955078125;-0.45068359375;16.5195358241879;12.234786445196006;16.875854478401543;-0.94189453125;0.17578125;0.0830078125;-5.0;-2.4375;5.375;
1441975625386794;0.42315673828125;-0.515869140625;-0.59381103515625;-0.44976806640625;16.51300088187658;12.234512421280767;16.882820731274496;-0.9423828125;0.1728515625;0.0859375;-6.625;-1.625;6.1875;
1441975625403795;0.42333984375;-0.515625;-0.5946044921875;-0.44879150390625;16.50616003254856;12.238537583423469;16.89321042355368;-0.9326171875;0.181640625;0.0947265625;-7.0;-0.6875;6.5;
1441975625426796;0.42364501953125;-0.51556396484375;-0.59521484375;-0.44769287109375;16.500690281681376;12.248816740154323;16.909502713585585;-0.93310546875;0.193359375;0.0927734375;-6.0625;0.1875;6.3125;
1441975625446797;0.42425537109375;-0.51531982421875;-0.59588623046875;-0.44659423828125;16.497707022731895;12.256988517548686;16.92525992655961;-0.9482421875;0.21044921875;0.08251953125;-5.625;0.875;5.3125;
1441975625462798;0.42510986328125;-0.51470947265625;-0.596435546875;-0.44580078125;16.499497504260074;12.257331121489653;16.933711238927295;-0.9482421875;0.22119140625;0.08154296875;-7.25;1.3125;3.75;
1441975625484799;0.42596435546875;-0.51409912109375;-0.59661865234375;-0.44537353515625;16.505098692773956;12.255590560671516;16.937963618890407;-0.9462890625;0.20556640625;0.091796875;-8.0625;1.375;1.625;
1441975625506801;0.42681884765625;-0.51373291015625;-0.596435546875;-0.44525146484375;16.51372722060757;12.256448448744802;16.942153186579496;-0.9453125;0.19677734375;0.10302734375;-5.6875;2.125;0.125;
1441975625522802;0.427734375;-0.5133056640625;-0.59613037109375;-0.4451904296875;16.524040295049986;12.25672013707992;16.945585412601204;-0.93994140625;0.1943359375;0.10302734375;-2.8125;2.4375;-1.375;
1441975625544803;0.428955078125;-0.51275634765625;-0.595947265625;-0.4449462890625;16.535640353224643;12.257959148578463;16.95208688441949;-0.9404296875;0.1923828125;0.1005859375;-3.125;2.75;-2.125;
1441975625566804;0.4302978515625;-0.51190185546875;-0.595947265625;-0.4447021484375;16.547723414994408;12.253481426358984;16.954631497751983;-0.9453125;0.19189453125;0.09619140625;-4.9375;3.1875;-2.3125;
1441975625582805;0.43170166015625;-0.51104736328125;-0.5958251953125;-0.44439697265625;16.560899617932648;12.251009462558802;16.95919233968527;-0.94921875;0.17919921875;0.1064453125;-6.5625;3.5;-2.375;
1441975625604806;0.43304443359375;-0.51031494140625;-0.595703125;-0.44415283203125;16.57351962000652;12.24946375341275;16.963960369258206;-0.9580078125;0.17431640625;0.10009765625;-6.6875;3.5625;-2.1875;
1441975625626808;0.43408203125;-0.509765625;-0.5955810546875;-0.4439697265625;16.583439508803906;12.248702011705664;16.96793257050258;-0.95458984375;0.1630859375;0.09814453125;-5.75;3.3125;-1.4375;
1441975625657809;0.4349365234375;-0.5093994140625;-0.59539794921875;-0.4437255859375;16.59161257544635;12.251457465123565;16.97437830536807;-0.951171875;0.16259765625;0.10009765625;-4.4375;2.9375;-0.4375;
1441975625664810;0.4356689453125;-0.5091552734375;-0.59521484375;-0.4434814453125;16.59849495161096;12.255722715953869;16.98162930246981;-0.9541015625;0.169921875;0.0927734375;-3.25;2.6875;0.125;
1441975625686811;0.43621826171875;-0.509033203125;-0.5950927734375;-0.44329833984375;16.603404286619654;12.259872051617068;16.987876969595007;-0.9541015625;0.1728515625;0.09423828125;-2.5625;2.4375;0.4375;
1441975625703812;0.4366455078125;-0.50897216796875;-0.59490966796875;-0.4432373046875;16.608033908430542;12.263251892738747;16.992298816820867;-0.94677734375;0.1796875;0.09423828125;-1.5625;2.0;0.5625;
1441975625723813;0.4368896484375;-0.50897216796875;-0.59478759765625;-0.44317626953125;16.610612169326256;12.266287940267473;16.995855813633842;-0.94873046875;0.17822265625;0.099609375;-0.8125;1.8125;0.75;
1441975625746814;0.437255859375;-0.50885009765625;-0.5947265625;-0.4429931640625;16.613611215489502;12.269111761194889;17.000439568758537;-0.9462890625;0.1884765625;0.0966796875;-0.375;1.5;0.8125;
1441975625762815;0.437744140625;-0.50860595703125;-0.5947265625;-0.4427490234375;16.61726118264263;12.270874224093241;17.005017835391527;-0.95263671875;0.19287109375;0.091796875;-1.375;1.1875;0.4375;
1441975625783817;0.43841552734375;-0.5081787109375;-0.59478759765625;-0.44256591796875;16.622670289527687;12.269131344571383;17.007131872965658;-0.953125;0.19091796875;0.09033203125;-3.0625;1.0625;0.125;
1441975625806818;0.43890380859375;-0.50787353515625;-0.5947265625;-0.44256591796875;16.627799210836688;12.266915219187997;17.00701252288351;-0.9580078125;0.1826171875;0.09228515625;-3.4375;1.3125;-0.0625;
1441975625822819;0.43927001953125;-0.5076904296875;-0.59454345703125;-0.44256591796875;16.632454620371956;12.267126788176675;17.008279768188995;-0.9638671875;0.18310546875;0.09814453125;-2.0625;1.125;-0.25;
1441975625851820;0.43975830078125;-0.507568359375;-0.59442138671875;-0.44244384765625;16.637082065836385;12.27028451147892;17.013181989160138;-0.95703125;0.18408203125;0.09521484375;-0.9375;1.125;-0.125;
1441975625866821;0.4403076171875;-0.50726318359375;-0.594482421875;-0.442138671875;16.640737111583835;12.271768747169851;17.01818471949342;-0.96044921875;0.18896484375;0.08740234375;-1.625;1.1875;0.0625;
1441975625882822;0.44091796875;-0.5068359375;-0.5946044921875;-0.4417724609375;16.64455032937724;12.271862262558095;17.022683796969652;-0.9599609375;0.1865234375;0.08837890625;-3.375;1.125;0.375;
1441975625903823;0.44146728515625;-0.5064697265625;-0.59478759765625;-0.44146728515625;16.647538072482572;12.271332360198947;17.02619195593686;-0.96337890625;0.18017578125;0.08203125;-4.125;0.9375;0.6875;
1441975625927825;0.44183349609375;-0.50634765625;-0.5948486328125;-0.44122314453125;16.649479096441922;12.274181149411373;17.03131947160303;-0.95947265625;0.18017578125;0.08642578125;-3.875;0.75;1.0;
1441975625942826;0.442138671875;-0.50616455078125;-0.59490966796875;-0.44097900390625;16.651076766353945;12.275651601281142;17.03508436624282;-0.962890625;0.1787109375;0.08642578125;-2.1875;0.625;1.5;
1441975625963827;0.44232177734375;-0.50616455078125;-0.59490966796875;-0.4407958984375;16.651863467816938;12.279270566986428;17.039758631931434;-0.955078125;0.1806640625;0.08349609375;-2.125;0.4375;1.75;
1441975625986828;0.44244384765625;-0.5062255859375;-0.5948486328125;-0.440673828125;16.652639934809734;12.283246110489161;17.044085938168692;-0.9677734375;0.17919921875;0.08447265625;-1.125;0.375;2.0;
1441975626002829;0.442626953125;-0.50616455078125;-0.59490966796875;-0.44049072265625;16.653168508110767;12.285312878727552;17.04755973764193;-0.97412109375;0.18017578125;0.07861328125;-0.1875;0.0;2.375;
1441975626023830;0.44268798828125;-0.506103515625;-0.5950927734375;-0.44024658203125;16.651658704167136;12.286584482488703;17.05042231807263;-0.9716796875;0.17919921875;0.08837890625;-1.25;0.0625;2.5625;
1441975626047832;0.4427490234375;-0.506103515625;-0.59515380859375;-0.4400634765625;16.65104202683552;12.289039767901201;17.05376511832814;-0.95947265625;0.17919921875;0.08837890625;-1.4375;0.0625;2.6875;
1441975626062832;0.44268798828125;-0.50628662109375;-0.59515380859375;-0.43994140625;16.649609674915833;12.293622008632532;17.0579955965657;-0.94970703125;0.17626953125;0.095703125;-0.5;0.4375;2.75;
1441975626085834;0.44268798828125;-0.50640869140625;-0.59521484375;-0.43975830078125;16.648181797465245;12.297843076932242;17.06256842735918;-0.9541015625;0.18408203125;0.091796875;0.5;0.5;2.6875;
1441975626106835;0.44281005859375;-0.50640869140625;-0.59527587890625;-0.4395751953125;16.64805241458174;12.30062343341239;17.066404059327887;-0.95458984375;0.18408203125;0.09326171875;-0.125;0.625;2.75;
1441975626122836;0.44293212890625;-0.50634765625;-0.5953369140625;-0.43939208984375;16.648079699004942;12.302349522458066;17.069369482640568;-0.95751953125;0.1767578125;0.087890625;-0.9375;0.375;2.6875;
1441975626145837;0.4429931640625;-0.50628662109375;-0.59539794921875;-0.4393310546875;16.648087379180257;12.301997765240811;17.069721239857827;-0.95361328125;0.17431640625;0.08740234375;-1.0625;0.1875;2.5;
1441975626166838;0.443115234375;-0.50628662109375;-0.59539794921875;-0.439208984375;16.64859863731122;12.304415398110116;17.072842379083195;-0.95361328125;0.177734375;0.091796875;-0.5;0.0625;2.4375;
1441975626182839;0.443115234375;-0.50628662109375;-0.59539794921875;-0.43914794921875;16.648361416474756;12.305284825277937;17.073895932904797;-0.955078125;0.18017578125;0.08544921875;-0.5625;0.0625;2.125;
1441975626205841;0.44317626953125;-0.50628662109375;-0.5953369140625;-0.439208984375;16.649497456636446;12.305263128994952;17.07369010996803;-0.9560546875;0.1845703125;0.08642578125;-0.0625;-0.25;1.625;
1441975626226842;0.4432373046875;-0.50628662109375;-0.5953369140625;-0.439208984375;16.649989811706742;12.305603609411229;17.074198214885644;-0.96044921875;0.19091796875;0.09130859375;0.5625;-0.1875;0.9375;
1441975626242843;0.44329833984375;-0.5062255859375;-0.59527587890625;-0.43927001953125;16.651284757879402;12.304526609934907;17.073121215409326;-0.95654296875;0.19287109375;0.080078125;0.1875;-0.3125;0.1875;
1441975626265844;0.44329833984375;-0.5062255859375;-0.59527587890625;-0.43927001953125;16.651284757879402;12.304526609934907;17.073121215409326;-0.95703125;0.18359375;0.09130859375;-0.3125;-0.4375;-0.25;
1441975626286845;0.443359375;-0.50616455078125;-0.59521484375;-0.4393310546875;16.652579549424892;12.303447521209385;17.072042126683804;-0.9521484375;0.18359375;0.08935546875;-0.375;-0.3125;-0.625;
1441975626302846;0.44342041015625;-0.50616455078125;-0.59515380859375;-0.4393310546875;16.65347853578421;12.304297158762566;17.07289176423698;-0.9541015625;0.1796875;0.08251953125;0.0;-0.3125;-0.8125;
1441975626325848;0.4434814453125;-0.506103515625;-0.59515380859375;-0.43939208984375;16.654366624268267;12.302707254120737;17.0714694733236;-0.95654296875;0.185546875;0.08740234375;0.25;-0.25;-0.8125;
1441975626346849;0.44354248046875;-0.506103515625;-0.5950927734375;-0.43939208984375;16.655265705460046;12.303557560997364;17.072319780200228;-0.9560546875;0.1845703125;0.080078125;-0.1875;-0.25;-0.875;
1441975626362850;0.443603515625;-0.506103515625;-0.59503173828125;-0.43939208984375;16.656164685740205;12.304409016110496;17.07317123531336;-0.94970703125;0.18896484375;0.0791015625;-0.1875;-0.4375;-0.8125;
1441975626385851;0.44366455078125;-0.506103515625;-0.594970703125;-0.439453125;16.657300558064307;12.304385997067648;17.07296410241564;-0.955078125;0.181640625;0.08154296875;-0.125;-0.4375;-0.75;
1441975626406852;0.4437255859375;-0.50604248046875;-0.594970703125;-0.439453125;16.657951832336202;12.303668376824946;17.07259819898411;-0.958984375;0.1826171875;0.07861328125;0.5;-0.4375;-0.5625;
1441975626422853;0.44378662109375;-0.50604248046875;-0.59466552734375;-0.43975830078125;16.661661714143918;12.30217372879891;17.0695125977701;-0.96630859375;0.1875;0.083984375;0.875;-0.4375;-0.5;
1441975626445854;0.44384765625;-0.50604248046875;-0.59442138671875;-0.4400634765625;16.66496359310608;12.300155421295406;17.06607108213649;-0.9619140625;0.18408203125;0.0830078125;1.25;-0.5;-0.375;
1441975626466856;0.44384765625;-0.506103515625;-0.59423828125;-0.44024658203125;16.666734936259285;12.300106327752149;17.064782894824482;-0.955078125;0.18115234375;0.083984375;1.1875;-0.5;0.0625;
1441975626482857;0.44384765625;-0.50628662109375;-0.593994140625;-0.44036865234375;16.66836083247214;12.30358938219826;17.06667521289836;-0.95068359375;0.1826171875;0.08935546875;1.25;-0.4375;0.5;
1441975626512858;0.44384765625;-0.50628662109375;-0.593994140625;-0.44036865234375;16.66836083247214;12.30358938219826;17.06667521289836;-0.95654296875;0.18896484375;0.07568359375;1.375;-0.25;0.75;
1441975626533859;0.44390869140625;-0.5062255859375;-0.59393310546875;-0.44036865234375;16.669419226242145;12.303378248103156;17.066648011804286;-0.94873046875;0.18896484375;0.08154296875;0.3125;-0.1875;0.6875;
1441975626543860;0.44390869140625;-0.50634765625;-0.59375;-0.44049072265625;16.670795954930355;12.305285967852063;17.067316704511903;-0.95458984375;0.181640625;0.08154296875;-0.1875;-0.25;0.6875;
1441975626565861;0.4439697265625;-0.50634765625;-0.59375;-0.44049072265625;16.671287920982603;12.30563205785986;17.067830591844317;-0.95458984375;0.1884765625;0.08251953125;1.125;-0.25;0.625;
1441975626593863;0.4439697265625;-0.50634765625;-0.59368896484375;-0.44049072265625;16.67169532932728;12.30614623895798;17.06817697561782;-0.9619140625;0.1962890625;0.078125;0.6875;-0.0625;0.125;
1441975626602863;0.44403076171875;-0.50634765625;-0.59368896484375;-0.4405517578125;16.672423527415898;12.305605907173367;17.067620549260454;-0.96533203125;0.1962890625;0.080078125;-0.625;0.0;-0.375;
1441975626625865;0.44427490234375;-0.50634765625;-0.59332275390625;-0.44073486328125;16.677544554360754;12.307422058760261;17.068549476462287;-0.96240234375;0.1845703125;0.083984375;-0.125;0.5;-0.6875;
1441975626646866;0.4444580078125;-0.50640869140625;-0.59295654296875;-0.44097900390625;16.68225064899896;12.30908202115179;17.068786777128274;-0.95458984375;0.18212890625;0.0888671875;1.0;0.875;-0.8125;
1441975626662867;0.44451904296875;-0.50634765625;-0.59295654296875;-0.4410400390625;16.683138089314028;12.307459469593814;17.06733207482997;-0.95654296875;0.1796875;0.09033203125;1.4375;1.0;-0.5;
1441975626685868;0.44476318359375;-0.50628662109375;-0.5928955078125;-0.44091796875;16.68519878041734;12.310094942457217;17.071022483360924;-0.9501953125;0.1806640625;0.087890625;0.0;0.9375;0.1875;
1441975626706869;0.4449462890625;-0.5062255859375;-0.59283447265625;-0.44085693359375;16.687003743303844;12.311489651711463;17.07312047322952;-0.94921875;0.18017578125;0.0869140625;-1.125;0.8125;0.8125;
1441975626729871;0.44500732421875;-0.50634765625;-0.5926513671875;-0.44085693359375;16.688395581027297;12.315572239459765;17.07649978036347;-0.94775390625;0.17724609375;0.08544921875;-0.4375;0.625;1.0625;
1441975626745872;0.4449462890625;-0.506591796875;-0.59246826171875;-0.4410400390625;16.689194041188866;12.318419684350054;17.077389305399983;-0.94970703125;0.1787109375;0.0849609375;0.875;0.5;1.1875;
1441975626766873;0.44482421875;-0.5067138671875;-0.59228515625;-0.441162109375;16.689586953248426;12.31964687282361;17.07704208438383;-0.9599609375;0.1865234375;0.08544921875;1.9375;0.125;0.9375;
1441975626790874;0.44488525390625;-0.50677490234375;-0.59210205078125;-0.4412841796875;16.691613210500957;12.32086199234773;17.077370220475558;-0.95947265625;0.18896484375;0.08642578125;1.75;-0.25;0.625;
1441975626805875;0.4449462890625;-0.50677490234375;-0.59185791015625;-0.4415283203125;16.694683687635298;12.319716516805347;17.07498617437291;-0.962890625;0.189453125;0.08203125;1.0;-0.125;0.125;
1441975626826876;0.44500732421875;-0.50677490234375;-0.59161376953125;-0.4417724609375;16.697753790462922;12.318562695871188;17.072593835168032;-0.95751953125;0.18359375;0.087890625;1.125;-0.0625;0.0625;
1441975626848877;0.445068359375;-0.50677490234375;-0.59161376953125;-0.4417724609375;16.698244326848805;12.31892077456385;17.073119921513943;-0.95556640625;0.1806640625;0.08837890625;1.125;0.25;-0.375;
1441975626865878;0.4454345703125;-0.50665283203125;-0.59149169921875;-0.44171142578125;16.70208817077858;12.320857750750736;17.076279694437922;-0.96240234375;0.189453125;0.09130859375;0.25;0.5625;-0.4375;
1441975626886880;0.4459228515625;-0.50634765625;-0.59149169921875;-0.44158935546875;16.706344956117054;12.320101858651526;17.07815280330336;-0.96044921875;0.19140625;0.08251953125;-1.3125;0.9375;-0.6875;
1441975626910881;0.4464111328125;-0.5059814453125;-0.59149169921875;-0.44158935546875;16.71123806489319;12.316422459208095;17.07691836395265;-0.95703125;0.19140625;0.08447265625;-2.5625;1.0625;-1.0625;
1441975626925882;0.44683837890625;-0.5057373046875;-0.59130859375;-0.44158935546875;16.716541384900644;12.31616260657303;17.078064641948348;-0.9521484375;0.18310546875;0.09130859375;-2.375;1.0625;-1.4375;
1441975626946883;0.44720458984375;-0.50555419921875;-0.59112548828125;-0.44171142578125;16.7216660123985;12.314800279584313;17.077389246627835;-0.9501953125;0.18310546875;0.087890625;-1.1875;1.25;-1.5;
1441975626968884;0.447509765625;-0.50543212890625;-0.5909423828125;-0.44171142578125;16.725665576252926;12.316025997865436;17.07931796744302;-0.951171875;0.185546875;0.09033203125;-0.5625;1.1875;-1.4375;
1441975626984885;0.44781494140625;-0.50518798828125;-0.5909423828125;-0.441650390625;16.728527893559914;12.314352639750458;17.079402080910366;-0.94921875;0.1923828125;0.08837890625;-0.6875;1.3125;-1.4375;
1441975627007887;0.4482421875;-0.50482177734375;-0.59100341796875;-0.44158935546875;16.7322856200264;12.310647232133634;17.078324570827096;-0.955078125;0.19677734375;0.09423828125;-1.6875;1.1875;-1.5625;
1441975627036888;0.44866943359375;-0.50439453125;-0.5911865234375;-0.44140625;16.73491537883001;12.3066036499729;17.077795522763275;-0.94775390625;0.18994140625;0.0966796875;-2.625;1.25;-1.375;
1441975627044889;0.44915771484375;-0.504150390625;-0.59136962890625;-0.44091796875;16.73636913995352;12.310959843423161;17.086201625174716;-0.94580078125;0.1875;0.103515625;-3.0;1.5625;-0.8125;
1441975627067890;0.44976806640625;-0.50372314453125;-0.59185791015625;-0.440185546875;16.73629685777718;12.313750223069613;17.095501755393673;-0.9443359375;0.19970703125;0.08837890625;-4.0625;2.0;-0.3125;
1441975627090891;0.4503173828125;-0.50335693359375;-0.5924072265625;-0.4393310546875;16.73468241458363;12.318596887871736;17.107042381504584;-0.93359375;0.197265625;0.09716796875;-6.3125;2.75;0.375;
1441975627104892;0.4508056640625;-0.50311279296875;-0.593017578125;-0.438232421875;16.73086999960814;12.328424043970047;17.123933033468433;-0.92431640625;0.18701171875;0.09814453125;-6.25;3.1875;1.875;
1441975627127893;0.4512939453125;-0.5029296875;-0.5938720703125;-0.436767578125;16.723782423419003;12.342579956216952;17.146743802001584;-0.93798828125;0.19775390625;0.091796875;-6.3125;3.0625;2.875;
1441975627148895;0.45196533203125;-0.50238037109375;-0.59515380859375;-0.43499755859375;16.71508284793157;12.351796672425667;17.16831569212184;-0.93896484375;0.2255859375;0.0859375;-8.375;3.375;3.125;
1441975627164896;0.4527587890625;-0.50152587890625;-0.596435546875;-0.433349609375;16.708690589279986;12.354361655096438;17.18412593219704;-0.9326171875;0.22265625;0.0908203125;-11.875;3.125;3.8125;
1441975627187897;0.453125;-0.50103759765625;-0.597412109375;-0.43218994140625;16.701846650348386;12.356212594174076;17.194636055614257;-0.93603515625;0.1884765625;0.09033203125;-12.8125;2.5;4.9375;
1441975627208898;0.4527587890625;-0.50152587890625;-0.5980224609375;-0.43115234375;16.689271055500278;12.372022470591828;17.212781880091992;-0.9248046875;0.1630859375;0.09619140625;-8.0;1.8125;6.375;
1441975627224899;0.45220947265625;-0.50213623046875;-0.59881591796875;-0.429931640625;16.672883877035392;12.389385604920518;17.232667814046238;-0.919921875;0.189453125;0.09228515625;-1.875;1.75;7.9375;
1441975627247900;0.45166015625;-0.50238037109375;-0.60003662109375;-0.42852783203125;16.653982724094394;12.398743286438267;17.247382172422792;-0.90966796875;0.2080078125;0.080078125;-1.8125;1.0625;8.625;
1441975627268901;0.45111083984375;-0.50262451171875;-0.60107421875;-0.4273681640625;16.63728163539876;12.406068758244347;17.25882519380782;-0.8916015625;0.201171875;0.09130859375;-4.9375;0.5;9.5;
1441975627284902;0.4500732421875;-0.50360107421875;-0.6015625;-0.42657470703125;16.619623874568312;12.422221890002882;17.272933825799036;-0.87060546875;0.1845703125;0.1005859375;-3.375;0.8125;9.75;
1441975627313904;0.448974609375;-0.5052490234375;-0.60150146484375;-0.42596435546875;16.603719823296547;12.451086423035326;17.295490393798538;-0.88037109375;0.21240234375;0.09228515625;2.4375;0.8125;8.5;
1441975627328905;0.44818115234375;-0.50634765625;-0.60150146484375;-0.42547607421875;16.591960550156518;12.47031544257861;17.31070649285728;-0.904296875;0.25830078125;0.0654296875;6.3125;0.8125;6.0625;
1441975627344906;0.44781494140625;-0.50677490234375;-0.6014404296875;-0.42547607421875;16.58815034830868;12.475428403903994;17.313357315013146;-0.908203125;0.2666015625;0.05810546875;3.75;-0.1875;2.9375;
1441975627367907;0.44757080078125;-0.5069580078125;-0.60089111328125;-0.42626953125;16.592667039239387;12.471434179692071;17.304231865123878;-0.90673828125;0.2373046875;0.05859375;2.0625;-1.3125;0.4375;
1441975627388908;0.44683837890625;-0.50732421875;-0.5999755859375;-0.42791748046875;16.598854230527728;12.459319736160722;17.28150446394872;-0.89697265625;0.18212890625;0.06201171875;4.8125;-2.625;-1.125;
1441975627412910;0.44537353515625;-0.5086669921875;-0.59844970703125;-0.42987060546875;16.60151637250876;12.459853896008692;17.263873247087382;-0.861328125;0.140625;0.080078125;10.1875;-3.8125;-0.6875;
1441975627427911;0.443603515625;-0.51055908203125;-0.59686279296875;-0.43170166015625;16.59998437583466;12.469593937596688;17.25315136946689;-0.849609375;0.14892578125;0.0791015625;17.875;-3.375;0.3125;
1441975627448912;0.44171142578125;-0.5123291015625;-0.59539794921875;-0.43353271484375;16.597090630060155;12.47549801036886;17.238961980559747;-0.87646484375;0.19384765625;0.06884765625;20.125;-3.3125;0.625;
1441975627464913;0.43994140625;-0.513916015625;-0.59381103515625;-0.4356689453125;16.59782522671214;12.47623037353453;17.219232374654812;-0.88232421875;0.20361328125;0.06005859375;19.375;-4.6875;0.375;
1441975627495914;0.4376220703125;-0.5162353515625;-0.59130859375;-0.4385986328125;16.601375626417223;12.483105854934712;17.19701501786816;-0.873046875;0.1845703125;0.05810546875;19.75;-5.5;-0.875;
1441975627508915;0.4349365234375;-0.51904296875;-0.5880126953125;-0.4423828125;16.609415898542313;12.491288298196864;17.168870886586515;-0.86572265625;0.18505859375;0.0546875;27.9375;-5.8125;-2.4375;
1441975627532917;0.431884765625;-0.52178955078125;-0.58447265625;-0.4468994140625;16.619459143231897;12.488309039717912;17.125871396488975;-0.8525390625;0.17626953125;0.0400390625;35.0625;-7.5;-4.6875;
1441975627547917;0.42840576171875;-0.5245361328125;-0.58062744140625;-0.4520263671875;16.63061334273142;12.4766798472619;17.070368024993886;-0.8310546875;0.162109375;0.0390625;38.5625;-9.9375;-6.375;
1441975627568919;0.4241943359375;-0.52734375;-0.57647705078125;-0.45794677734375;16.640855214964947;12.452778067303216;16.997151562184992;-0.7939453125;0.13623046875;0.041015625;41.9375;-12.25;-6.9375;
1441975627592920;0.4190673828125;-0.53106689453125;-0.57159423828125;-0.4644775390625;16.648393607035267;12.436285709948233;16.922200364464764;-0.74267578125;0.111328125;0.060546875;47.625;-14.5;-7.0625;
1441975627615921;0.41302490234375;-0.5352783203125;-0.5662841796875;-0.47149658203125;16.651873901745127;12.419392901115923;16.84016285397283;-0.712890625;0.1064453125;0.056640625;56.5;-15.5625;-6.3125;
1441975627628922;0.40631103515625;-0.53948974609375;-0.56121826171875;-0.478515625;16.647994573455946;12.39708487684713;16.751459454859216;-0.7021484375;0.115234375;0.0634765625;63.1875;-17.375;-5.6875;
1441975627644923;0.3997802734375;-0.54315185546875;-0.556640625;-0.48516845703125;16.64180097884427;12.368075897525486;16.660606414427924;-0.6904296875;0.12451171875;0.07177734375;64.125;-19.25;-4.3125;
1441975627667924;0.39306640625;-0.545654296875;-0.55328369140625;-0.49163818359375;16.626751982933154;12.312805976379495;16.5503106715021;-0.6923828125;0.12109375;0.07373046875;59.5625;-20.4375;-2.75;
1441975627688925;0.3853759765625;-0.54803466796875;-0.55078125;-0.49786376953125;16.595998063357897;12.252136758242981;16.43522865896314;-0.67041015625;0.11376953125;0.1376953125;53.4375;-21.8125;-0.875;
1441975627704926;0.3773193359375;-0.550537109375;-0.54962158203125;-0.5025634765625;16.546948237865603;12.21021799797691;16.345646924025917;-0.67529296875;0.13671875;0.22119140625;53.25;-21.5;3.9375;
1441975627727928;0.371337890625;-0.5517578125;-0.54986572265625;-0.50543212890625;16.501345736804247;12.17393866936986;16.280730410266774;-0.71728515625;0.22900390625;0.25439453125;47.0625;-18.6875;8.4375;
1441975627748929;0.36798095703125;-0.55035400390625;-0.5521240234375;-0.50689697265625;16.46238496533581;12.11231014164197;16.215551901705336;-0.86376953125;0.3017578125;0.2412109375;27.9375;-15.4375;6.5625;
1441975627764930;0.36639404296875;-0.547119140625;-0.55548095703125;-0.50787353515625;16.43036221307626;12.028889779441016;16.143654876143998;-1.02001953125;0.29248046875;0.21923828125;2.5;-18.125;6.6875;
1441975627787931;0.36505126953125;-0.54351806640625;-0.5587158203125;-0.50921630859375;16.401270739834303;11.938865174859;16.065537802891207;-1.06298828125;0.2587890625;0.248046875;-12.4375;-17.8125;4.75;
1441975627808932;0.3634033203125;-0.5401611328125;-0.5614013671875;-0.510986328125;16.372960623975786;11.852033993974425;15.986181674935526;-1.06640625;0.22021484375;0.27734375;-12.5625;-17.5625;4.5625;
1441975627824933;0.3612060546875;-0.5372314453125;-0.5638427734375;-0.5128173828125;16.340385713432884;11.774564921450574;15.912434309370854;-0.9951171875;0.146484375;0.3017578125;-7.3125;-16.375;6.75;
1441975627847935;0.35772705078125;-0.534912109375;-0.56695556640625;-0.51434326171875;16.290218066028704;11.711283572120792;15.850175972434418;-0.923828125;0.123046875;0.29541015625;-3.3125;-17.125;8.8125;
1441975627870936;0.3533935546875;-0.53277587890625;-0.57135009765625;-0.5146484375;16.220729499166495;11.665695042624572;15.809739625293737;-0.88427734375;0.162109375;0.28662109375;-1.125;-20.6875;14.0;
1441975627884937;0.35028076171875;-0.529052734375;-0.57745361328125;-0.51385498046875;16.147161557313133;11.608608974057372;15.774126716223298;-0.8310546875;0.208984375;0.244140625;-5.25;-24.75;21.375;
1441975627913938;0.34796142578125;-0.52392578125;-0.58477783203125;-0.51239013671875;16.069804064243623;11.539992975394318;15.73888201379297;-0.78369140625;0.193359375;0.2451171875;-21.75;-25.625;23.125;
1441975627928939;0.34503173828125;-0.51910400390625;-0.59210205078125;-0.51080322265625;15.986574432074093;11.481226394447324;15.711196930136515;-0.72412109375;0.15380859375;0.26416015625;-32.8125;-26.0;25.875;
1441975627945940;0.34088134765625;-0.51568603515625;-0.5986328125;-0.50946044921875;15.899166881571908;11.443967695420394;15.694394450764358;-0.6435546875;0.1279296875;0.2822265625;-29.6875;-25.375;29.375;
1441975627967941;0.33514404296875;-0.5142822265625;-0.60400390625;-0.5084228515625;15.807737285315275;11.434363964246565;15.690483351795237;-0.587890625;0.13623046875;0.2744140625;-18.6875;-25.0;31.4375;
1441975627988943;0.329833984375;-0.513671875;-0.6087646484375;-0.5067138671875;15.72423710214412;11.440982996307314;15.701913383212965;-0.5439453125;0.15966796875;0.24951171875;-3.875;-24.1875;33.625;
1441975628004944;0.32568359375;-0.51318359375;-0.61322021484375;-0.50457763671875;15.652787957199983;11.451111545664364;15.720323264364787;-0.5263671875;0.17578125;0.2373046875;-2.25;-18.25;33.5625;
1441975628027945;0.3212890625;-0.5125732421875;-0.61767578125;-0.50262451171875;15.57924163958516;11.457825766654736;15.734425198255233;-0.57421875;0.2021484375;0.23779296875;-5.625;-13.5;30.8125;
1441975628050946;0.31549072265625;-0.51202392578125;-0.62274169921875;-0.50054931640625;15.488676913165902;11.466056715669978;15.74782097438569;-0.62890625;0.16650390625;0.25146484375;-4.125;-15.5625;34.6875;
1441975628064947;0.30914306640625;-0.513427734375;-0.62677001953125;-0.498046875;15.401169506545159;11.499719404453797;15.777514772931632;-0.623046875;0.150390625;0.306640625;0.1875;-17.6875;42.125;
1441975628087948;0.30255126953125;-0.5167236328125;-0.62994384765625;-0.49468994140625;15.316853641207823;11.55875184859491;15.826271136210394;-0.59423828125;0.1689453125;0.2998046875;10.375;-11.5;45.25;
1441975628126951;0.297119140625;-0.51812744140625;-0.63507080078125;-0.48992919921875;15.225187719486446;11.600442538348585;15.876521084368143;-0.623046875;0.2724609375;0.25927734375;16.375;-6.25;44.25;
1441975628131951;0.2928466796875;-0.5169677734375;-0.64208984375;-0.4844970703125;15.12800330214347;11.61397469848959;15.917202825239427;-0.72607421875;0.40478515625;0.263671875;-4.375;-8.875;43.875;
1441975628148952;0.28961181640625;-0.51861572265625;-0.647705078125;-0.4771728515625;15.046544995730125;11.666705872780335;15.99345307445568;-0.84423828125;0.43798828125;0.3349609375;-22.5;-11.25;45.6875;
1441975628170953;0.29010009765625;-0.5189208984375;-0.6527099609375;-0.4697265625;15.000955477103973;11.704274439844479;16.068325458930495;-1.03125;0.58740234375;0.21533203125;-20.125;-3.4375;47.375;
1441975628184954;0.29119873046875;-0.5179443359375;-0.65692138671875;-0.46417236328125;14.969645781673169;11.718663024997861;16.117760416732327;-1.2568359375;0.59228515625;0.18310546875;-34.25;1.5;40.3125;
1441975628207955;0.2901611328125;-0.51776123046875;-0.66070556640625;-0.4595947265625;14.924004999229341;11.735415412612225;16.156709397800928;-1.2431640625;0.4970703125;0.1796875;-33.4375;-3.875;32.875;
1441975628230956;0.2886962890625;-0.51824951171875;-0.6650390625;-0.4537353515625;14.867321001625434;11.763514022902202;16.209218040987142;-1.041015625;0.478515625;0.19580078125;-21.1875;-7.0625;31.625;
1441975628258958;0.28759765625;-0.51806640625;-0.67071533203125;-0.4462890625;14.800451510289264;11.789572721145449;16.27156610707921;-0.9619140625;0.4892578125;0.14453125;-22.375;-5.5;38.375;
1441975628267959;0.2857666015625;-0.5162353515625;-0.677490234375;-0.43914794921875;14.720469532127197;11.794893487719618;16.318405859495;-0.99462890625;0.5830078125;0.10986328125;-36.0;-6.5;41.8125;
1441975628296960;0.28271484375;-0.51654052734375;-0.68255615234375;-0.4329833984375;14.642490480041445;11.816618805647488;16.363737184690432;-1.013671875;0.6181640625;0.1396484375;-43.0;-15.3125;42.75;
1441975628311961;0.28125;-0.51898193359375;-0.6845703125;-0.427734375;14.599747600894698;11.858787010189182;16.4160168891488;-1.03271484375;0.6845703125;0.11181640625;-27.25;-17.0;39.5625;
1441975628327962;0.27880859375;-0.52203369140625;-0.68536376953125;-0.42437744140625;14.560765034528853;11.898708716031472;16.45197067676308;-1.05419921875;0.58349609375;-4.8828125E-4;-14.0;-10.1875;34.375;
1441975628350963;0.27252197265625;-0.52728271484375;-0.6849365234375;-0.42266845703125;14.498331007016946;11.95040432832405;16.472955109066667;-1.08984375;0.5791015625;0.04345703125;-0.375;-13.875;30.5;
1441975628371965;0.2655029296875;-0.53399658203125;-0.6834716796875;-0.42108154296875;14.434766414730742;12.015067413760304;16.49670109010757;-1.08740234375;0.6044921875;0.10986328125;25.5625;-22.75;35.5;
1441975628387965;0.26019287109375;-0.5396728515625;-0.68194580078125;-0.41961669921875;14.387429599498708;12.070316119783882;16.51863673921881;-0.96044921875;0.59423828125;0.0888671875;36.5625;-18.625;34.5;
1441975628410967;0.25408935546875;-0.5440673828125;-0.68096923828125;-0.4193115234375;14.334374426770625;12.107284305012215;16.521818545350932;-0.9912109375;0.537109375;0.07177734375;29.5625;-16.125;32.125;
1441975628432968;0.24554443359375;-0.54986572265625;-0.67840576171875;-0.4210205078125;14.275529399438344;12.149754139979143;16.50785867770812;-1.0322265625;0.58642578125;0.17578125;29.375;-21.5;29.375;
1441975628447969;0.2392578125;-0.55621337890625;-0.6727294921875;-0.42535400390625;14.265529289369061;12.195140053520886;16.484697124609646;-1.021484375;0.70556640625;0.24072265625;48.875;-27.1875;21.5;
1441975628470970;0.234619140625;-0.56280517578125;-0.66534423828125;-0.4307861328125;14.285008441063841;12.243561965776118;16.460490141320136;-1.10400390625;0.6962890625;0.2197265625;59.1875;-23.3125;1.25;
1441975628491971;0.23309326171875;-0.56591796875;-0.6597900390625;-0.43603515625;14.323233471669752;12.261209880293514;16.431769710451107;-1.228515625;0.81689453125;0.22119140625;61.3125;-18.8125;-13.75;
1441975628507972;0.2325439453125;-0.57550048828125;-0.64776611328125;-0.44189453125;14.407330812284151;12.348415972372576;16.435244798875896;-1.0517578125;0.77587890625;0.2919921875;38.0;-9.875;-28.0;
1441975628530974;0.234619140625;-0.57086181640625;-0.63232421875;-0.46826171875;14.623347484826562;12.231372320660059;16.21520498659607;-0.7294921875;0.94873046875;-1.74951171875;84.25;18.875;-37.75;
1441975628551975;0.22442626953125;-0.5732421875;-0.626708984375;-0.47784423828125;14.600438121371623;12.217068029021686;16.1170095876119;-2.28125;1.2548828125;0.63720703125;63.6875;-70.5625;-150.125;
1441975628566976;0.22589111328125;-0.5694580078125;-0.6361083984375;-0.46917724609375;14.52531326928192;12.202326157490381;16.1713721770492;-1.1865234375;1.5029296875;0.71240234375;67.4375;-31.8125;-59.75;
1441975628597977;0.23248291015625;-0.55499267578125;-0.65667724609375;-0.45477294921875;14.409942977447589;12.096350355702521;16.232938824550292;-1.38818359375;1.955078125;0.2763671875;-59.8125;11.375;47.0;
1441975628611978;0.2496337890625;-0.5367431640625;-0.6710205078125;-0.446533203125;14.451904720376877;11.948362721740864;16.25997942618657;-0.68798828125;1.4052734375;0.45458984375;-158.9375;7.875;54.0;
1441975628627979;0.263671875;-0.5262451171875;-0.67633056640625;-0.44293212890625;14.536445399349587;11.86448414652697;16.276935389874925;-0.58740234375;1.0205078125;0.48095703125;-171.25;27.625;-19.8125;
1441975628664981;0.2646484375;-0.5281982421875;-0.6751708984375;-0.44183349609375;14.549035947130928;11.8893400580281;16.29871001931474;-1.4853515625;0.7939453125;0.6494140625;-92.8125;36.3125;-27.1875;
1441975628671982;0.2613525390625;-0.53717041015625;-0.66790771484375;-0.4439697265625;14.569388869747485;11.973361922390286;16.317804587551898;-1.29541015625;0.6220703125;0.50927734375;10.8125;15.75;9.25;
1441975628687983;0.26202392578125;-0.54522705078125;-0.66290283203125;-0.44134521484375;14.594815274461828;12.068746658627772;16.384032795453397;-1.2939453125;0.74951171875;0.25732421875;61.9375;3.25;-2.625;
1441975628710984;0.27105712890625;-0.5416259765625;-0.66717529296875;-0.4337158203125;14.624863827796716;12.06748319493305;16.456385121620524;-1.3349609375;0.7744140625;-0.01123046875;25.1875;12.375;8.0625;
1441975628731985;0.28131103515625;-0.5321044921875;-0.67572021484375;-0.42572021484375;14.642281894004496;12.005946809069135;16.50357264946999;-1.4658203125;0.60302734375;0.119140625;-68.5625;21.875;21.75;
1441975628747986;0.28302001953125;-0.52777099609375;-0.682861328125;-0.41851806640625;14.591507576361177;11.984772978447687;16.54347674062749;-1.51123046875;0.39404296875;0.27880859375;-98.6875;14.5;33.75;
1441975628770987;0.2808837890625;-0.5255126953125;-0.69091796875;-0.40948486328125;14.492779259921729;11.9847110309209;16.595287086582058;-1.4482421875;0.50146484375;0.31494140625;-53.6875;-3.9375;53.25;
1441975628791989;0.27606201171875;-0.52813720703125;-0.69720458984375;-0.3985595703125;14.369384692810296;12.034902756134805;16.675311790009157;-1.24951171875;0.64892578125;0.37548828125;-42.625;-3.3125;63.9375;
1441975628807990;0.27532958984375;-0.52960205078125;-0.7042236328125;-0.38458251953125;14.265938322016131;12.08523396962139;16.782930895913857;-1.1044921875;0.77734375;0.27880859375;-20.8125;3.0;72.625;
1441975628830991;0.27923583984375;-0.52484130859375;-0.7139892578125;-0.3699951171875;14.19092979584005;12.08106712415765;16.879371026189173;-0.98779296875;0.794921875;0.13671875;-46.75;18.75;69.25;
1441975628851992;0.285400390625;-0.51458740234375;-0.72406005859375;-0.3599853515625;14.160049553132778;12.01597397157446;16.92548538644745;-0.9609375;0.794921875;0.142578125;-91.25;22.125;53.6875;
1441975628875993;0.28887939453125;-0.50811767578125;-0.72906494140625;-0.35626220703125;14.155421368290384;11.968472226641452;16.93487181539331;-0.87841796875;0.6171875;0.21875;-102.75;15.375;27.3125;
1441975628897995;0.291748046875;-0.511474609375;-0.72637939453125;-0.35467529296875;14.186337842182267;12.011318568583203;16.972442981750216;-0.81298828125;0.5732421875;0.33203125;-55.0;4.1875;3.9375;
1441975628911995;0.30035400390625;-0.5169677734375;-0.72149658203125;-0.349365234375;14.261419559332776;12.099633184394046;17.070479007314695;-0.69775390625;0.48583984375;0.1279296875;7.4375;19.8125;-2.375;
1441975628927996;0.31451416015625;-0.5185546875;-0.71728515625;-0.34307861328125;14.380262299756245;12.170296967115904;17.183844238673274;-0.6640625;0.63330078125;0.04296875;-0.25;59.9375;-14.0625;
1441975628949998;0.331298828125;-0.51324462890625;-0.71527099609375;-0.3394775390625;14.532343991841337;12.176079167436937;17.25883981321405;-0.779296875;0.66259765625;-0.0078125;-32.9375;72.5;-30.25;
1441975628971999;0.34808349609375;-0.5074462890625;-0.71099853515625;-0.34039306640625;14.718173889938301;12.169789572908847;17.301916655133674;-0.74072265625;0.51708984375;0.1044921875;-60.9375;65.5625;-51.9375;
1441975628988000;0.36248779296875;-0.509521484375;-0.70062255859375;-0.34381103515625;14.911701119888106;12.24306724654601;17.367751737249495;-0.73291015625;0.2919921875;0.22802734375;-39.5;63.875;-64.875;
1441975629010001;0.37457275390625;-0.5125732421875;-0.68994140625;-0.347900390625;15.086051295061935;12.326061958185846;17.43111368811569;-0.841796875;0.2919921875;0.12060546875;16.9375;67.875;-62.0625;
1441975629033002;0.38421630859375;-0.513427734375;-0.68182373046875;-0.35205078125;15.229997710753647;12.377026628960456;17.46983969165502;-0.9404296875;0.359375;0.14404296875;27.75;61.0625;-58.9375;
1441975629047003;0.39263916015625;-0.5115966796875;-0.6748046875;-0.35888671875;15.377533488597614;12.380962821186172;17.461293433106686;-0.8759765625;0.39013671875;0.17236328125;17.375;44.625;-57.1875;
1441975629070004;0.40045166015625;-0.51300048828125;-0.6658935546875;-0.3648681640625;15.517634890618218;12.43135133721469;17.485059574985566;-0.86376953125;0.30859375;0.30029296875;16.25;33.125;-64.25;
1441975629093006;0.4063720703125;-0.51513671875;-0.6585693359375;-0.36859130859375;15.61954404843648;12.492346572170257;17.523631494895866;-0.90380859375;0.2685546875;0.1865234375;31.5;37.875;-53.75;
1441975629107007;0.41082763671875;-0.51715087890625;-0.6514892578125;-0.373291015625;15.712970406829754;12.541981394076695;17.544982581272457;-0.83154296875;0.28759765625;0.20068359375;28.3125;37.5;-38.5;
1441975629130008;0.41546630859375;-0.5181884765625;-0.6446533203125;-0.378662109375;15.812709047966683;12.578172586513347;17.555083935299397;-0.74072265625;0.32958984375;0.21826171875;32.5625;31.3125;-43.125;
1441975629154009;0.41998291015625;-0.518310546875;-0.6390380859375;-0.3829345703125;15.901765824154829;12.605719903757251;17.565884308754306;-0.7451171875;0.32373046875;0.2021484375;29.3125;26.5;-48.625;
1441975629168010;0.425048828125;-0.520751953125;-0.63134765625;-0.38677978515625;15.996694218925851;12.683266319774834;17.61673646425621;-0.70166015625;0.271484375;0.32177734375;23.1875;33.0625;-42.25;
1441975629190011;0.43017578125;-0.52423095703125;-0.6240234375;-0.38824462890625;16.072260526209117;12.796416958261439;17.708592554783873;-0.607421875;0.140625;0.25244140625;35.0;43.5625;-35.4375;
1441975629213013;0.43670654296875;-0.5255126953125;-0.61865234375;-0.387939453125;16.14370987677587;12.89855659106655;17.810816619018944;-0.57666015625;0.20458984375;0.23974609375;30.8125;52.375;-29.0;
1441975629228014;0.44256591796875;-0.5272216796875;-0.612060546875;-0.3892822265625;16.222142035502763;13.006566759237353;17.90739894062405;-0.57421875;0.19482421875;0.24365234375;9.9375;53.75;-27.5625;
1441975629250015;0.44537353515625;-0.532470703125;-0.6044921875;-0.390869140625;16.26754944218368;13.149868250534126;0.016757935362876026;-0.6376953125;0.12158203125;0.2587890625;21.0625;51.875;-27.625;
1441975629279016;0.44598388671875;-0.538818359375;-0.597900390625;-0.3916015625;16.27947829686756;13.290534671110668;0.11945488044352495;-0.6953125;0.19873046875;0.2275390625;43.25;49.0;-16.625;
1441975629294017;0.4468994140625;-0.5439453125;-0.59320068359375;-0.39068603515625;16.276795751150363;13.413668851030746;0.21939032987948473;-0.68212890625;0.2900390625;0.21533203125;46.75;44.6875;-8.125;
1441975629311018;0.4483642578125;-0.54705810546875;-0.59027099609375;-0.3890380859375;16.27259659043721;13.505137928205833;0.30238259002027984;-0.65185546875;0.31201171875;0.17138671875;30.8125;40.5;-4.625;
1441975629333020;0.44940185546875;-0.54998779296875;-0.58782958984375;-0.3873291015625;16.262690461085285;13.585219564299681;0.3748961179039234;-0.67529296875;0.29541015625;0.1845703125;16.25;36.75;-3.25;
1441975629354021;0.4503173828125;-0.55389404296875;-0.5848388671875;-0.38519287109375;16.244799587168345;13.682271087114664;0.4608603260495472;-0.685546875;0.3173828125;0.22314453125;15.4375;37.0625;-2.4375;
1441975629370022;0.45306396484375;-0.55450439453125;-0.5843505859375;-0.3819580078125;16.23631971128546;13.740276464942829;0.5330554403100359;-0.69384765625;0.33349609375;0.15771484375;18.8125;37.625;0.125;
1441975629393023;0.45361328125;-0.55572509765625;-0.58502197265625;-0.37841796875;16.204449197294416;13.771228598055721;0.574423937490416;-0.71484375;0.21240234375;0.18212890625;-6.6875;35.5;3.6875;
1441975629414024;0.4512939453125;-0.55865478515625;-0.586669921875;-0.37432861328125;16.138782319445795;13.7828070023928;0.5876989359287588;-0.6455078125;0.13525390625;0.2255859375;-3.375;30.125;19.3125;
1441975629430025;0.447265625;-0.5645751953125;-0.58819580078125;-0.36785888671875;16.029590060659753;13.819237713040973;0.6189308368507586;-0.53759765625;0.15234375;0.26953125;5.125;26.4375;34.125;
1441975629453026;0.44281005859375;-0.57275390625;-0.59051513671875;-0.35662841796875;15.866581573536143;13.880945960087178;0.684095025070493;-0.490234375;0.17919921875;0.26123046875;13.1875;34.4375;52.6875;
1441975629474028;0.435791015625;-0.58258056640625;-0.59320068359375;-0.3448486328125;15.673902857637593;13.92592656054676;0.7230959351568078;-0.55126953125;0.26904296875;0.15673828125;5.4375;44.6875;74.375;
1441975629498029;0.42681884765625;-0.58917236328125;-0.600341796875;-0.33209228515625;15.466201636339358;13.893532331093395;0.7046261221273167;-0.6279296875;0.4189453125;0.0341796875;11.25;32.875;83.6875;
1441975629513030;0.4169921875;-0.597412109375;-0.60919189453125;-0.31329345703125;15.19261683091045;13.875529337372855;0.7167262986692983;-0.662109375;0.41943359375;0.1875;-8.5;22.0;96.75;
1441975629534031;0.4024658203125;-0.60968017578125;-0.6175537109375;-0.2916259765625;14.849499189578088;13.869768099110335;0.7233333373911957;-0.62841796875;0.490234375;0.21630859375;-26.5625;27.625;132.375;
1441975629550032;0.3831787109375;-0.62310791015625;-0.62646484375;-0.269287109375;14.465013229238357;13.848012323695276;0.7007578741960546;-0.64208984375;0.59375;0.07470703125;-10.3125;27.5;166.6875;
1441975629573033;0.36053466796875;-0.63507080078125;-0.6383056640625;-0.2435302734375;14.031338903431118;13.799123483121207;0.6655693299248095;-0.564453125;0.81103515625;0.0458984375;-1.6875;12.8125;186.625;
1441975629594034;0.333984375;-0.64703369140625;-0.65118408203125;-0.21392822265625;13.53819814746991;13.746625387701016;0.6315278956460088;-0.5966796875;0.92041015625;0.03369140625;-19.625;4.375;212.0;
1441975629610035;0.3028564453125;-0.66058349609375;-0.66265869140625;-0.181396484375;12.986366646425392;13.709436421077381;0.6004224242287167;-0.6318359375;0.9462890625;0.001953125;-26.1875;1.3125;243.875;
1441975629633037;0.2681884765625;-0.67486572265625;-0.671630859375;-0.14678955078125;12.394325496905969;13.68914576593328;0.5729250032472901;-0.5732421875;1.017578125;0.02783203125;-14.6875;-0.0625;273.375;
1441975629654038;0.23150634765625;-0.6876220703125;-0.67919921875;-0.1112060546875;11.786356282761814;13.670990788906632;0.545419066304874;-0.447265625;1.12255859375;-0.01806640625;-3.125;-0.9375;292.75;
1441975629677039;0.19366455078125;-0.6978759765625;-0.68536376953125;-0.07598876953125;11.180876952096428;13.65138159199432;0.5154292396702275;-0.3359375;1.0927734375;-0.033203125;-3.5;-4.5;301.375;
1441975629693040;0.15557861328125;-0.70501708984375;-0.69073486328125;-0.0421142578125;10.591855875889841;13.626231009799033;0.4824024612887468;-0.2705078125;1.03955078125;-0.06396484375;-7.125;-10.4375;301.625;
1441975629722042;0.1187744140625;-0.7076416015625;-0.696533203125;-0.0101318359375;10.035680377109168;13.586212718119105;0.45023623856862877;-0.21484375;1.1162109375;-0.08349609375;-15.125;-17.0625;294.125;
1441975629730042;0.08392333984375;-0.706298828125;-0.70263671875;0.02105712890625;9.505926930809757;13.533819296790918;0.4276203219156566;-0.18359375;1.03466796875;-0.08935546875;-33.8125;-21.25;279.1875;
1441975629753044;0.05047607421875;-0.70513916015625;-0.70562744140625;0.048828125;9.013597503168302;13.498495496366102;0.4026404543683797;-0.22998046875;0.95703125;-0.09326171875;-50.625;-17.25;267.9375;
1441975629782045;0.02008056640625;-0.70379638671875;-0.70660400390625;0.0709228515625;8.59027959098135;13.475338900867028;0.37006055974006336;-0.20361328125;0.90234375;-0.111328125;-36.4375;-23.625;250.125;
1441975629790046;-0.00811767578125;-0.701904296875;-0.7069091796875;0.087158203125;8.23094172334685;13.457848334955695;0.32395068221843853;-0.205078125;0.85888671875;-0.14599609375;-26.9375;-33.625;216.25;
1441975629813047;-0.03375244140625;-0.69927978515625;-0.707275390625;0.09869384765625;7.929494771059694;13.442136454221734;0.26977148058011535;-0.26953125;0.888671875;-0.12060546875;-24.75;-47.875;185.5625;
1441975629834048;-0.0556640625;-0.695068359375;-0.70880126953125;0.1068115234375;7.685676949775974;13.41882727595642;0.21800643506042375;-0.25927734375;0.7548828125;-0.1416015625;-27.0;-55.625;156.5;
1441975629850049;-0.07220458984375;-0.6917724609375;-0.71014404296875;0.10955810546875;7.527902394945056;13.403589993930497;0.16508127515399357;-0.1875;0.59130859375;-0.080078125;-35.75;-53.6875;126.0625;
1441975629881051;-0.0833740234375;-0.69073486328125;-0.7103271484375;0.10687255859375;7.456928209166182;13.405122440202296;0.10894215984191588;-0.09423828125;0.47265625;-0.001953125;-29.3125;-53.875;92.1875;
1441975629896052;-0.0877685546875;-0.6917724609375;-0.71014404296875;0.0975341796875;7.495477477351806;13.41822363615967;0.050710700523302225;-0.04052734375;0.41845703125;0.01416015625;-13.1875;-55.625;43.75;
1441975629910053;-0.08685302734375;-0.69287109375;-0.71099853515625;0.083740234375;7.614223862826623;13.426479071337647;17.99623095415762;-0.08251953125;0.32421875;-0.01318359375;-4.0625;-55.5;-9.6875;
1441975629932054;-0.08203125;-0.69427490234375;-0.7119140625;0.06732177734375;7.786259318326737;13.433755387245363;17.947111022615957;-0.12451171875;0.203125;-0.01025390625;-6.375;-51.3125;-49.125;
1441975629957055;-0.07403564453125;-0.69720458984375;-0.71142578125;0.0489501953125;8.000389237898705;13.450703749237807;17.902287465520107;-0.11572265625;0.15869140625;0.01806640625;-3.0;-46.0625;-77.0625;
1441975629970056;-0.06170654296875;-0.699462890625;-0.7115478515625;0.0263671875;8.28369369538059;13.459752786558607;17.859049468951373;-0.06787109375;0.22998046875;-0.00830078125;8.0;-42.0;-106.125;
1441975630016059;-0.045654296875;-0.69970703125;-0.7130126953125;-1.220703125E-4;8.627720191721169;13.452020598725868;17.81596869912723;-0.10400390625;0.3046875;-0.05517578125;1.8125;-40.3125;-140.0;
1441975630019059;-0.02703857421875;-0.6983642578125;-0.7147216796875;-0.029052734375;9.011049215396515;13.433459879829673;17.7726241897338;-0.19384765625;0.27099609375;-0.05908203125;-13.1875;-40.125;-169.0;
1441975630030059;-0.00653076171875;-0.69842529296875;-0.71319580078125;-0.05999755859375;9.427166722273988;13.4298823276726;17.72755511732587;-0.2470703125;0.24951171875;9.765625E-4;-19.75;-39.9375;-188.4375;
1441975630061061;0.01824951171875;-0.69818115234375;-0.7093505859375;-0.095458984375;9.915890301217273;13.428902661964974;17.68032645921794;-0.265625;0.31689453125;0.02099609375;-1.625;-39.9375;-205.1875;
1441975630076062;0.0458984375;-0.6949462890625;-0.7049560546875;-0.13446044921875;10.457062979013186;13.411237528406446;17.62666364917755;-0.306640625;0.46923828125;-0.046875;3.1875;-41.1875;-241.4375;
1441975630097063;0.076904296875;-0.688720703125;-0.6993408203125;-0.17547607421875;11.044027225280614;13.378851948022717;17.571956668129378;-0.42919921875;0.501953125;-0.0517578125;-7.5625;-45.375;-267.5;
1441975630112064;0.1097412109375;-0.68280029296875;-0.6898193359375;-0.2144775390625;11.63750244792483;13.360568721745597;17.530978633522427;-0.60595703125;0.34765625;0.05419921875;-15.4375;-41.5625;-287.75;
1441975630136065;0.14312744140625;-0.67791748046875;-0.67547607421875;-0.25250244140625;12.238905594335916;13.364366897843118;17.49856841152666;-0.77392578125;0.3759765625;0.0703125;-1.1875;-24.4375;-289.375;
1441975630157067;0.17803955078125;-0.6693115234375;-0.658935546875;-0.2935791015625;12.887230522439602;13.350146305725756;17.449966830416685;-0.861328125;0.48974609375;0.021484375;19.75;-14.25;-294.0;
1441975630173068;0.21551513671875;-0.65216064453125;-0.64453125;-0.33612060546875;13.573413394047234;13.267321709321081;17.370446087929093;-0.9736328125;0.5146484375;-0.080078125;12.4375;-24.8125;-318.5;
1441975630195069;0.25250244140625;-0.63067626953125;-0.63043212890625;-0.37567138671875;14.238773899877824;13.137329253105651;17.263588527496722;-1.19873046875;0.36474609375;0.005859375;-29.625;-36.9375;-336.6875;
1441975630217070;0.2889404296875;-0.60858154296875;-0.61456298828125;-0.4105224609375;14.873249764324273;12.98754151230247;17.143453525950978;-1.4052734375;0.15771484375;0.0703125;-48.8125;-36.0;-326.0;
1441975630233071;0.32379150390625;-0.58758544921875;-0.59619140625;-0.4410400390625;15.47329671150998;12.823523834895072;17.00440772525208;-1.5390625;0.03173828125;0.02294921875;-50.6875;-21.125;-311.125;
1441975630256072;0.355712890625;-0.5682373046875;-0.5748291015625;-0.46929931640625;16.042519779339163;12.62062616742838;16.80944389081172;-1.6640625;-0.0185546875;0.04541015625;-41.3125;-4.6875;-295.125;
1441975630277074;0.38555908203125;-0.54937744140625;-0.55145263671875;-0.49542236328125;16.582882182713423;12.306486376830243;16.495169003010513;-1.6982421875;-0.02978515625;0.0927734375;-21.75;3.4375;-284.3125;
1441975630292074;0.4139404296875;-0.530029296875;-0.52703857421875;-0.51959228515625;17.078707813321532;11.669822924087363;15.857425166812508;-1.79248046875;0.01171875;0.0673828125;-12.8125;7.8125;-278.0;
1441975630316076;0.4404296875;-0.51104736328125;-0.5009765625;-0.54217529296875;17.448167642644496;10.050014545607784;14.229157384481379;-1.85986328125;0.021484375;0.03759765625;-11.6875;10.375;-274.3125;
1441975630337077;0.46295166015625;-0.4935302734375;-0.47210693359375;-0.5650634765625;17.41541871852646;7.291959142400551;11.43738352971679;-1.8896484375;0.037109375;0.05908203125;-3.6875;14.5;-271.125;
1441975630352078;0.4814453125;-0.477783203125;-0.44085693359375;-0.587890625;17.048052456808563;5.944491612712113;10.031992235719533;-1.87744140625;0.064453125;0.0439453125;22.0;14.1875;-268.75;
1441975630376079;0.497314453125;-0.46160888671875;-0.4090576171875;-0.61016845703125;16.59636201572567;5.453293672288375;9.475320194536467;-1.82568359375;0.1982421875;-0.00634765625;45.9375;14.875;-265.5;
1441975630397080;0.5118408203125;-0.44390869140625;-0.37774658203125;-0.63116455078125;16.125516992368144;5.23934288009635;9.200005589971934;-1.75048828125;0.30224609375;-0.0556640625;53.875;9.375;-263.8125;
1441975630412081;0.52288818359375;-0.427001953125;-0.345947265625;-0.65167236328125;15.666769600505818;5.146363264867242;9.031389380927143;-1.66015625;0.26025390625;-0.05419921875;50.25;2.375;-261.125;
1441975630436083;0.5308837890625;-0.41131591796875;-0.31524658203125;-0.67059326171875;15.241026345866107;5.111112155463696;8.913907223571785;-1.53564453125;0.23095703125;-0.0107421875;64.0;1.5;-251.25;
1441975630457084;0.53704833984375;-0.396240234375;-0.287353515625;-0.68701171875;14.855069617233728;5.103676999911883;8.83094830211638;-1.2705078125;0.3056640625;-0.0224609375;70.4375;0.875;-233.5625;
1441975630473085;0.53985595703125;-0.383056640625;-0.26312255859375;-0.701904296875;14.526227662751229;5.12698075538227;8.777491407940435;-1.0927734375;0.3154296875;-0.01220703125;64.1875;-2.75;-211.625;
1441975630496086;0.53509521484375;-0.3736572265625;-0.24072265625;-0.71844482421875;14.260598097521099;5.206019704777098;8.744978485245818;-1.04052734375;0.251953125;0.03271484375;67.125;-8.125;-180.5;
1441975630517087;0.52740478515625;-0.3668212890625;-0.221923828125;-0.73358154296875;14.05511736001332;5.297763140123599;8.72308684093528;-0.95068359375;0.4677734375;0.06494140625;103.625;-13.3125;-150.0;
1441975630541089;0.52215576171875;-0.36669921875;-0.21661376953125;-0.7388916015625;14.0185033434501;5.343261831911063;8.718395692904302;-0.857421875;0.8408203125;-0.11669921875;107.5;-17.25;-122.8125;
1441975630556089;0.5157470703125;-0.36932373046875;-0.2181396484375;-0.74163818359375;14.060720605902699;5.395744290706069;8.740566531611414;-0.87451171875;0.70263671875;-0.20751953125;48.75;-23.9375;-93.0;
1441975630577091;0.50433349609375;-0.3817138671875;-0.22509765625;-0.74114990234375;14.245164331049082;5.457446603485282;8.758289568046006;-0.892578125;0.552734375;-0.0087890625;28.5;-19.25;-42.9375;
1441975630592092;0.4945068359375;-0.40130615234375;-0.2393798828125;-0.73291015625;14.558409812300985;5.476085404294973;8.766545775380497;-0.81640625;0.7158203125;-0.0439453125;39.4375;5.625;19.375;
1441975630616093;0.484619140625;-0.416748046875;-0.25482177734375;-0.72564697265625;14.840573903594535;5.521983893977388;8.81337120066467;-0.830078125;0.7626953125;-0.2568359375;11.5625;21.9375;75.1875;
1441975630637094;0.46533203125;-0.44061279296875;-0.2738037109375;-0.71722412109375;15.247496764415146;5.637385132300288;8.892705087585638;-1.02587890625;0.55078125;-0.13623046875;6.1875;18.9375;124.5;
1441975630653095;0.447998046875;-0.4678955078125;-0.2978515625;-0.70123291015625;15.737094233799931;5.7351900320075995;8.988788384100557;-1.13232421875;0.80810546875;-0.14990234375;44.875;32.625;182.875;
1441975630676096;0.45941162109375;-0.49163818359375;-0.34735107421875;-0.6531982421875;16.401715408044534;5.504099598666448;9.0213230880506;-1.48095703125;1.27294921875;-0.5185546875;10.75;61.4375;240.6875;
1441975630697098;0.44677734375;-0.5201416015625;-0.39227294921875;-0.6131591796875;17.12558342670685;5.655836524364554;9.307312318437232;-1.53173828125;0.8564453125;-0.57861328125;-261.9375;116.8125;311.875;
1441975630713098;0.40283203125;-0.56396484375;-0.41680908203125;-0.58819580078125;17.773326916957892;8.727481236021047;12.270266216314832;-1.818359375;0.3759765625;0.11474609375;-129.125;75.9375;348.375;
1441975630735100;0.3651123046875;-0.6025390625;-0.451904296875;-0.54730224609375;17.165704580606782;13.353910287944027;16.893469649060346;-1.99169921875;0.40234375;-0.2373046875;115.9375;61.6875;379.0625;
1441975630757101;0.332763671875;-0.6265869140625;-0.49993896484375;-0.496826171875;16.278866776344472;13.563583401359473;17.21826263613515;-2.22900390625;0.9140625;-0.455078125;11.6875;91.1875;428.0625;
1441975630772102;0.29150390625;-0.65411376953125;-0.5386962890625;-0.44390869140625;15.347236062094087;13.664220605444658;17.373464795321745;-2.451171875;0.30810546875;-0.06103515625;-108.25;64.9375;452.1875;
1441975630795103;0.24334716796875;-0.6839599609375;-0.5660400390625;-0.39068603515625;14.408326699061437;13.763988381736517;17.462571309793432;-2.42626953125;0.18310546875;-0.1318359375;-44.75;75.5;480.0;
1441975630817104;0.19952392578125;-0.70074462890625;-0.596435546875;-0.33685302734375;13.52398728878562;13.751119280127545;17.50036426791082;-2.32470703125;0.7080078125;-0.34716796875;20.8125;78.375;479.75;
1441975630839106;0.16705322265625;-0.70233154296875;-0.6334228515625;-0.2786865234375;12.708871525414883;13.65192156313447;17.5732445297096;-2.333984375;0.81396484375;-0.14208984375;-41.875;64.125;439.0625;
1441975630855107;0.15350341796875;-0.69122314453125;-0.670654296875;-0.22113037109375;12.07692437234482;13.508924884269124;17.718174742366834;-2.0478515625;0.96728515625;0.1474609375;-144.5625;87.375;421.3125;
1441975630877108;0.1431884765625;-0.66656494140625;-0.71099853515625;-0.17236328125;11.568219164321548;13.275940015247787;17.827575044435086;-2.05419921875;0.919921875;0.01953125;-223.5;130.625;335.6875;
