1441975740385371;0.0726318359375;-0.7696533203125;-0.60418701171875;-0.193359375;11.26672259730315;14.110622873754513;17.62063159358331;-2.3984375;1.17822265625;0.0068359375;-89.4375;167.1875;344.9375;
1441975740406373;0.0692138671875;-0.73870849609375;-0.65618896484375;-0.13812255859375;10.714898185592872;13.802783713800018;17.76288108252897;-2.1455078125;0.7998046875;-0.01025390625;-256.8125;192.5;302.4375;
1441975740422373;0.063232421875;-0.69976806640625;-0.70587158203125;-0.09014892578125;10.244032887612267;13.462720430653839;17.886234895532162;-2.052734375;0.4287109375;-0.12890625;-357.0;176.375;251.625;
1441975740445375;0.05120849609375;-0.6634521484375;-0.74481201171875;-0.0511474609375;9.828674493951933;13.167623531179212;17.976143465863473;-1.9931640625;-0.18408203125;-0.400390625;-372.25;130.25;230.5625;
1441975740465376;0.03631591796875;-0.642822265625;-0.7650146484375;-0.01727294921875;9.446009068673337;13.006214989802404;0.05821954669349346;-1.66259765625;-0.61962890625;-0.30419921875;-311.5;75.0625;213.0625;
1441975740482377;0.0191650390625;-0.63653564453125;-0.77099609375;0.01019287109375;9.094970384740572;12.955266561280776;0.11496027850970574;-1.18798828125;-0.33837890625;-0.26416015625;-173.9375;50.0;221.8125;
1441975740512379;0.0037841796875;-0.64166259765625;-0.76641845703125;0.03033447265625;8.810165049329573;12.991241762012304;0.14725515643875536;-0.89404296875;-0.07421875;-0.1943359375;-56.25;21.0625;198.125;
1441975740533380;-0.00885009765625;-0.653564453125;-0.75537109375;0.0478515625;8.564644469143028;13.08007450852831;0.17455294533336554;-0.6962890625;0.14306640625;-0.0634765625;34.625;3.5;157.6875;
1441975740542380;-0.01776123046875;-0.666015625;-0.74298095703125;0.06500244140625;8.351389975943162;13.175407488637058;0.21044271082782265;-0.54833984375;0.26806640625;0.08447265625;91.3125;5.375;135.25;
1441975740565382;-0.0185546875;-0.670654296875;-0.7374267578125;0.0784912109375;8.237807414533012;13.210969915930942;0.2630078489410057;-0.37451171875;0.517578125;0.14990234375;100.125;20.625;117.625;
1441975740593383;-0.01434326171875;-0.66461181640625;-0.7418212890625;0.08868408203125;8.200131588971601;13.162948359947599;0.3261628834508404;-0.28515625;0.7919921875;0.115234375;44.8125;42.5;89.0;
1441975740602384;-0.00653076171875;-0.65081787109375;-0.7532958984375;0.09503173828125;8.232674590642006;13.056345783798296;0.3904686122187513;-0.23486328125;0.8388671875;0.09130859375;-40.0625;57.5;50.0;
1441975740625385;0.00604248046875;-0.635986328125;-0.7655029296875;0.0977783203125;8.338990532409015;12.945633097554088;0.45578058480905104;-0.21240234375;0.708984375;0.1650390625;-93.8125;61.5625;13.625;
1441975740646386;0.02386474609375;-0.6251220703125;-0.77410888671875;0.0972900390625;8.514216646426679;12.87002726545557;0.5217011601937523;-0.22509765625;0.5478515625;0.197265625;-96.1875;68.875;-21.3125;
1441975740661387;0.0455322265625;-0.61822509765625;-0.77923583984375;0.09283447265625;8.748849254322147;12.829993152190866;0.5802134555052438;-0.30859375;0.47900390625;0.1328125;-67.125;77.0625;-48.5;
1441975740685389;0.06927490234375;-0.61279296875;-0.78277587890625;0.08349609375;9.035074749743405;12.80746057860955;0.6225913431664288;-0.39013671875;0.48681640625;0.03955078125;-41.0625;76.9375;-73.5;
1441975740706390;0.0906982421875;-0.60693359375;-0.78631591796875;0.07196044921875;9.316897709716725;12.784292414534375;0.6459994638573812;-0.4462890625;0.51025390625;-0.0380859375;-32.6875;68.0;-99.125;
1441975740721391;0.1129150390625;-0.60333251953125;-0.78753662109375;0.05572509765625;9.634985655101048;12.781858131532289;0.6512810356594523;-0.51953125;0.47509765625;-0.0478515625;-26.8125;54.75;-122.5;
1441975740752392;0.13653564453125;-0.6053466796875;-0.783447265625;0.03424072265625;9.993166783698488;12.825247367746913;0.6421336965829675;-0.5947265625;0.4453125;0.009765625;-4.625;41.875;-144.0625;
1441975740766393;0.16058349609375;-0.61279296875;-0.77374267578125;0.0078125;10.382256541783663;12.913452074176021;0.6211279210160406;-0.64599609375;0.49853515625;0.0234375;43.1875;32.0625;-166.75;
1441975740782394;0.1844482421875;-0.6229248046875;-0.75994873046875;-0.02349853515625;10.803377581607787;13.027877617437017;0.5887813009798443;-0.73046875;0.5478515625;0.01513671875;90.875;19.6875;-184.6875;
1441975740812396;0.20867919921875;-0.6324462890625;-0.7437744140625;-0.05792236328125;11.25600349507675;13.148543017481567;0.5549636237463708;-0.7919921875;0.63037109375;-0.01123046875;121.25;5.75;-203.375;
1441975740826397;0.2335205078125;-0.63916015625;-0.72662353515625;-0.0950927734375;11.744418174145242;13.260971672090802;0.5203413760172076;-0.86328125;0.71826171875;-0.04443359375;130.125;-1.125;-220.0625;
1441975740842398;0.25836181640625;-0.643310546875;-0.70806884765625;-0.13458251953125;12.261512395238853;13.367745739043404;0.48464006395135756;-0.99169921875;0.8154296875;-0.04345703125;125.1875;-7.875;-237.5625;
1441975740864399;0.28277587890625;-0.64532470703125;-0.6871337890625;-0.17767333984375;12.815896066290435;13.473353543131221;0.4417910695078876;-1.1044921875;0.87890625;-0.021484375;123.8125;-15.25;-252.6875;
1441975740886400;0.30633544921875;-0.64501953125;-0.66363525390625;-0.22314453125;13.397846302555402;13.57837521609264;0.39538882053875124;-1.2431640625;0.875;-0.048828125;129.625;-28.125;-270.75;
1441975740902401;0.3299560546875;-0.6405029296875;-0.6390380859375;-0.26947021484375;14.006972261739772;13.67027395012447;0.35018886745094635;-1.28955078125;0.9287109375;-0.09765625;134.5;-38.3125;-286.0625;
1441975740924402;0.35369873046875;-0.630615234375;-0.61572265625;-0.3133544921875;14.617104871360734;13.734239442260405;0.3104489897436708;-1.29248046875;0.88037109375;-0.0966796875;124.4375;-44.625;-300.625;
1441975740947404;0.37738037109375;-0.61798095703125;-0.592041015625;-0.3538818359375;15.215072674129042;13.798386532892723;0.29118087995850567;-1.31591796875;0.76318359375;-0.02197265625;96.4375;-44.625;-301.4375;
1441975740970405;0.39898681640625;-0.6041259765625;-0.56781005859375;-0.3917236328125;15.787813849323568;13.868471605826137;0.28366379618115156;-1.3984375;0.62744140625;0.0166015625;81.25;-36.4375;-295.375;
1441975740984406;0.419189453125;-0.58782958984375;-0.544921875;-0.42645263671875;16.336573732588104;13.926485797573658;0.2812182014679029;-1.494140625;0.52734375;-0.06298828125;77.0625;-36.0625;-283.1875;
1441975741008407;0.43804931640625;-0.56964111328125;-0.52435302734375;-0.4569091796875;16.84771165411947;13.970541892681899;0.28581486117336435;-1.4951171875;0.40966796875;-0.09765625;60.125;-39.3125;-271.125;
1441975741022408;0.455322265625;-0.550537109375;-0.5057373046875;-0.48358154296875;17.320483309301487;14.005936453259716;0.2962254826568595;-1.466796875;0.3310546875;-0.095703125;39.375;-39.75;-253.625;
1441975741044409;0.4696044921875;-0.5328369140625;-0.48822021484375;-0.5072021484375;17.743279419664372;14.068483049073766;0.33283738649051176;-1.45068359375;0.16748046875;-0.0537109375;24.8125;-38.875;-233.375;
1441975741067410;0.4793701171875;-0.51837158203125;-0.470947265625;-0.5289306640625;17.89055679604975;4.96003003627538;9.182076046073751;-1.4150390625;0.03564453125;-0.015625;26.25;-36.75;-207.9375;
1441975741082411;0.48492431640625;-0.5074462890625;-0.4542236328125;-0.5487060546875;17.583200665709693;5.085183918178362;9.249585825067495;-1.3515625;-0.01904296875;0.005859375;42.1875;-34.375;-180.1875;
1441975741104412;0.48760986328125;-0.4990234375;-0.439697265625;-0.5655517578125;17.335300875188956;5.159071171571591;9.264847790524199;-1.27294921875;0.009765625;-0.00439453125;57.6875;-31.375;-152.3125;
1441975741127414;0.48895263671875;-0.493408203125;-0.42999267578125;-0.5767822265625;17.171896406644272;5.204059300093336;9.2692440992443;-1.1982421875;0.0615234375;-0.033203125;58.75;-29.125;-124.0625;
1441975741150415;0.4903564453125;-0.48870849609375;-0.42431640625;-0.58367919921875;17.061659636870477;5.236220331992275;9.282409768862626;-1.11181640625;0.09033203125;-0.03857421875;40.875;-25.3125;-96.75;
1441975741164416;0.4918212890625;-0.48504638671875;-0.421875;-0.5872802734375;16.995014505280544;5.259379712401073;9.30270844385452;-1.06005859375;0.095703125;-0.0322265625;19.0625;-20.8125;-71.3125;
1441975741187417;0.49261474609375;-0.48309326171875;-0.4217529296875;-0.58837890625;16.970331022264006;5.279055767059632;9.326717412147149;-0.978515625;0.06640625;-0.009765625;3.0;-15.8125;-47.5;
1441975741208418;0.4927978515625;-0.4827880859375;-0.42388916015625;-0.5869140625;16.98698249298022;5.295451326717848;9.354961511286497;-0.89990234375;0.0595703125;0.0;-4.25;-10.4375;-25.9375;
1441975741225419;0.492431640625;-0.48394775390625;-0.42840576171875;-0.58294677734375;17.04359957317534;5.315522079165675;9.395272018857213;-0.84130859375;0.06982421875;0.00146484375;-11.4375;-5.25;-5.375;
1441975741247421;0.49151611328125;-0.486083984375;-0.43524169921875;-0.57684326171875;17.13389571350614;5.355725142123791;9.46421658428902;-0.8642578125;0.0703125;-0.00341796875;-19.875;-2.0625;14.4375;
1441975741268422;0.489990234375;-0.489013671875;-0.44384765625;-0.56903076171875;17.251030078087137;5.429892450906283;9.573078781514626;-0.91455078125;0.064453125;0.009765625;-28.125;0.125;32.75;
1441975741284423;0.487548828125;-0.492919921875;-0.45361328125;-0.5599365234375;17.391026823475443;5.567476541236043;9.74687103024333;-0.95068359375;0.048828125;0.0078125;-33.75;1.0625;48.75;
1441975741307424;0.484130859375;-0.49786376953125;-0.4642333984375;-0.54974365234375;17.549648058439384;5.843160656868517;10.05851055248911;-0.99658203125;0.03369140625;0.00341796875;-35.3125;2.125;63.375;
1441975741336426;0.47967529296875;-0.50396728515625;-0.47528076171875;-0.53857421875;17.717308437047166;6.5136875747199765;10.762620222683218;-1.06201171875;0.0341796875;0.01513671875;-34.8125;4.5;76.25;
1441975741344426;0.47418212890625;-0.51092529296875;-0.4864501953125;-0.52679443359375;17.837468493599864;8.745794958889896;13.0248832363748;-1.14306640625;0.04931640625;0.01904296875;-32.5;7.4375;87.6875;
1441975741367428;0.46820068359375;-0.5177001953125;-0.49749755859375;-0.51507568359375;17.761647916867425;11.602073026270714;15.909835199362915;-1.18310546875;0.07421875;0.0205078125;-29.0;8.5;95.875;
1441975741388429;0.46173095703125;-0.52435302734375;-0.5091552734375;-0.50274658203125;17.577658343827622;12.555276475750926;16.89411717893911;-1.140625;0.09423828125;0.0146484375;-27.25;7.9375;100.875;
1441975741404430;0.45501708984375;-0.53045654296875;-0.521728515625;-0.4892578125;17.364348931803303;12.896551890446464;17.27325625495563;-1.056640625;0.10400390625;0.0224609375;-29.75;6.3125;106.3125;
1441975741428431;0.44818115234375;-0.5360107421875;-0.5350341796875;-0.4749755859375;17.139054112062944;13.044755792045006;17.464971582909403;-0.97216796875;0.09130859375;0.02490234375;-36.3125;5.3125;112.0;
1441975741450432;0.44110107421875;-0.541015625;-0.54864501953125;-0.460205078125;16.908379403089732;13.112605065446061;17.579583951750525;-0.904296875;0.08447265625;0.033203125;-41.6875;4.0;116.1875;
1441975741464433;0.4339599609375;-0.5452880859375;-0.56201171875;-0.44561767578125;16.682312696727923;13.13748445606604;17.65209306170759;-0.86669921875;0.10595703125;0.02685546875;-45.125;2.5625;117.8125;
1441975741487434;0.4268798828125;-0.54864501953125;-0.574951171875;-0.43157958984375;16.466000456476337;13.135270111875084;17.69772593065487;-0.87646484375;0.14453125;0.00390625;-46.375;-0.25;115.1875;
1441975741508436;0.41998291015625;-0.55108642578125;-0.58721923828125;-0.4185791015625;16.264581362470352;13.115162343328238;17.72394208499569;-0.90185546875;0.18896484375;-0.01416015625;-46.75;-3.3125;109.4375;
1441975741524437;0.41363525390625;-0.55279541015625;-0.59814453125;-0.40692138671875;16.085283676655294;13.090868929051293;17.742139613168344;-0.92041015625;0.2333984375;-0.01904296875;-45.375;-6.9375;101.6875;
1441975741555438;0.40740966796875;-0.5543212890625;-0.60784912109375;-0.39666748046875;15.922403025900454;13.065717755504167;17.75293173304913;-0.884765625;0.2490234375;-0.00439453125;-42.5625;-9.875;93.125;
1441975741568439;0.40167236328125;-0.55596923828125;-0.61566162109375;-0.38812255859375;15.782646722856196;13.04855277445192;17.762403301766184;-0.81884765625;0.28173828125;0.01220703125;-35.9375;-10.6875;83.0;
1441975741584440;0.39678955078125;-0.55731201171875;-0.6217041015625;-0.3814697265625;15.670761555882054;13.034340295728457;17.76755396358856;-0.78271484375;0.31005859375;0.00927734375;-27.1875;-10.0;69.75;
1441975741615442;0.3931884765625;-0.55792236328125;-0.6263427734375;-0.37664794921875;15.589274332160539;13.018752270740926;17.767707562940842;-0.76904296875;0.3291015625;0.009765625;-19.9375;-9.625;55.25;
1441975741628442;0.39068603515625;-0.5572509765625;-0.63055419921875;-0.37322998046875;15.531332516113437;12.991603947264846;17.757849970660992;-0.76513671875;0.318359375;0.0;-17.4375;-10.625;41.5;
1441975741644443;0.3892822265625;-0.5556640625;-0.63409423828125;-0.3709716796875;15.495230618500628;12.95958468805623;17.743598013055895;-0.7265625;0.287109375;0.01171875;-19.125;-11.9375;30.3125;
1441975741667445;0.38897705078125;-0.553466796875;-0.6368408203125;-0.3699951171875;15.481121441178448;12.925173053056616;17.725755003635502;-0.68701171875;0.26220703125;0.0185546875;-20.1875;-11.8125;20.125;
1441975741688446;0.3895263671875;-0.5511474609375;-0.63836669921875;-0.37017822265625;15.486806841066908;12.894859363603286;17.70779441316526;-0.6572265625;0.2275390625;0.0263671875;-18.875;-10.875;10.1875;
1441975741704447;0.390625;-0.549072265625;-0.63885498046875;-0.37127685546875;15.50634672619759;12.870438281530788;17.69078537404727;-0.65576171875;0.21044921875;0.03271484375;-14.5625;-9.0;1.3125;
1441975741727448;0.3922119140625;-0.54693603515625;-0.6385498046875;-0.373291015625;15.53909869717168;12.846878300869372;17.671144994039167;-0.6611328125;0.2236328125;0.02783203125;-9.5625;-7.5625;-6.375;
1441975741756450;0.39453125;-0.54473876953125;-0.637451171875;-0.3759765625;15.585564071123821;12.826368236488577;17.65249389129841;-0.6728515625;0.2451171875;0.03662109375;-6.25;-6.1875;-14.3125;
1441975741764450;0.39764404296875;-0.54193115234375;-0.63580322265625;-0.3795166015625;15.647831509318095;12.800667431489261;17.628566986030673;-0.70751953125;0.2587890625;0.0205078125;-5.0;-5.6875;-21.3125;
1441975741786452;0.40130615234375;-0.53857421875;-0.63360595703125;-0.38409423828125;15.724689727666798;12.767119061869002;17.595281990920633;-0.755859375;0.25439453125;0.01904296875;-4.75;-6.0;-28.5625;
1441975741808453;0.4051513671875;-0.53509521484375;-0.6309814453125;-0.38916015625;15.808029282470564;12.730246423680137;17.556873561540424;-0.79150390625;0.23388671875;0.02099609375;-4.25;-7.1875;-34.5625;
1441975741824454;0.4095458984375;-0.531494140625;-0.62762451171875;-0.39495849609375;15.903634840443644;12.691143616278543;17.513860918930863;-0.80810546875;0.2412109375;0.02587890625;-2.375;-7.4375;-39.5;
1441975741846455;0.4144287109375;-0.52752685546875;-0.623779296875;-0.401123046875;16.008459321146535;12.646748141419419;17.46556817034746;-0.8330078125;0.2333984375;0.021484375;-0.25;-6.4375;-45.5;
1441975741860456;0.41943359375;-0.5233154296875;-0.6197509765625;-0.4075927734375;16.117020950811465;12.593453196198883;17.40803451193352;-0.87109375;0.2236328125;0.01513671875;-0.25;-6.1875;-50.125;
1441975741883457;0.42431640625;-0.5191650390625;-0.6156005859375;-0.4141845703125;16.22496117133692;12.53337731371475;17.342506121217763;-0.87548828125;0.20703125;0.02099609375;-0.1875;-6.6875;-52.125;
1441975741906458;0.42938232421875;-0.51513671875;-0.61102294921875;-0.42071533203125;16.335439318252305;12.471908005514402;17.274747052946626;-0.87744140625;0.2001953125;0.0380859375;1.3125;-5.6875;-53.5;
1441975741920459;0.4346923828125;-0.5111083984375;-0.60626220703125;-0.42694091796875;16.44678659076762;12.407734782396986;17.205396270100255;-0.9248046875;0.1953125;0.0419921875;2.9375;-3.8125;-54.5625;
1441975741943460;0.44012451171875;-0.5068359375;-0.60174560546875;-0.43292236328125;16.556221270546295;12.331303218780118;17.126283146738505;-1.0;0.1826171875;0.0341796875;1.5;-2.5;-54.0;
1441975741958461;0.445556640625;-0.50238037109375;-0.59759521484375;-0.438232421875;16.65988780089043;12.245843265519525;17.041736814949317;-1.0458984375;0.146484375;0.04443359375;-0.3125;-2.125;-51.375;
1441975741980463;0.4505615234375;-0.4984130859375;-0.59375;-0.44287109375;16.75313774495924;12.161536243106994;16.958562617947432;-1.044921875;0.10546875;0.05859375;-3.375;-0.375;-47.5625;
1441975742003464;0.4549560546875;-0.49517822265625;-0.5902099609375;-0.44671630859375;16.8338733351856;12.08688340957678;16.88439328477751;-1.00244140625;0.07958984375;0.0869140625;-2.75;2.5;-42.0625;
1441975742018465;0.4588623046875;-0.49273681640625;-0.58721923828125;-0.44927978515625;16.900276948612575;12.035394692481832;16.835030068755213;-0.96142578125;0.07421875;0.0966796875;-1.5;5.0625;-35.875;
1441975742041466;0.4622802734375;-0.49066162109375;-0.5853271484375;-0.4505615234375;16.949925709359757;11.99942680688647;16.80561510944728;-0.9375;0.08984375;0.08349609375;-2.625;7.0625;-29.3125;
1441975742066468;0.46551513671875;-0.48876953125;-0.58441162109375;-0.45050048828125;16.986649869289323;11.982885955613089;16.80128764621756;-0.95458984375;0.1123046875;0.08837890625;-6.75;7.625;-21.5625;
1441975742078468;0.4681396484375;-0.48724365234375;-0.58416748046875;-0.44970703125;17.01066503481819;11.9804134818332;16.812298247053825;-0.984375;0.1162109375;0.087890625;-11.875;8.375;-13.625;
1441975742100469;0.4700927734375;-0.48638916015625;-0.58416748046875;-0.4486083984375;17.025149640124663;11.994677458977462;16.837774241452028;-0.986328125;0.10009765625;0.0966796875;-13.4375;8.375;-6.1875;
1441975742123471;0.47064208984375;-0.4869384765625;-0.5841064453125;-0.44757080078125;17.025730961850716;12.033788612236048;16.879687991374624;-0.98681640625;0.078125;0.10595703125;-10.0625;8.875;0.875;
1441975742145472;0.4697265625;-0.48883056640625;-0.583984375;-0.44659423828125;17.011772582715107;12.094204683208048;16.93451953889123;-0.98779296875;0.08251953125;0.111328125;-1.4375;8.3125;7.6875;
1441975742160473;0.46783447265625;-0.4915771484375;-0.5841064453125;-0.44537353515625;16.984907290360113;12.168135460256917;16.99902974746889;-0.9755859375;0.11083984375;0.11865234375;6.9375;7.375;13.3125;
1441975742183474;0.46551513671875;-0.49444580078125;-0.5848388671875;-0.443603515625;16.9475513520823;12.242279987559368;17.065542153044717;-0.96484375;0.13525390625;0.109375;10.9375;5.875;18.1875;
1441975742206476;0.463134765625;-0.49713134765625;-0.5863037109375;-0.441162109375;16.902099257667913;12.311857380383508;17.1318963198968;-0.953125;0.154296875;0.12060546875;8.9375;5.6875;22.25;
1441975742220476;0.46075439453125;-0.49957275390625;-0.5882568359375;-0.43841552734375;16.852320154233226;12.371344809097051;17.191150574802368;-0.9384765625;0.169921875;0.12548828125;5.125;5.375;25.6875;
1441975742243478;0.45806884765625;-0.501953125;-0.59027099609375;-0.4356689453125;16.79949429925316;12.42187768249373;17.240972480185384;-0.94384765625;0.16748046875;0.12255859375;2.0625;4.4375;28.1875;
1441975742266479;0.45513916015625;-0.504638671875;-0.59234619140625;-0.432861328125;16.742808073988108;12.47220260505274;17.289346473002077;-0.947265625;0.162109375;0.1298828125;2.375;3.25;29.9375;
1441975742280480;0.45220947265625;-0.5072021484375;-0.59442138671875;-0.4300537109375;16.686181188626886;12.516186919464634;17.331748697149173;-0.95068359375;0.17822265625;0.13037109375;3.8125;3.25;31.3125;
1441975742303481;0.449462890625;-0.509521484375;-0.5965576171875;-0.42724609375;16.631117641402042;12.553300727708413;17.36868532726365;-0.95458984375;0.1806640625;0.13818359375;3.875;3.25;31.875;
1441975742326482;0.44683837890625;-0.51171875;-0.5987548828125;-0.42431640625;16.57624632317741;12.587434367669598;17.40388284846818;-0.962890625;0.17724609375;0.13525390625;2.25;2.9375;31.8125;
1441975742340483;0.4444580078125;-0.513427734375;-0.60113525390625;-0.42138671875;16.523592756741028;12.611536501654761;17.431700399246193;-0.95703125;0.18798828125;0.126953125;1.0;2.625;31.375;
1441975742371485;0.44256591796875;-0.51458740234375;-0.603759765625;-0.418212890625;16.47379023756577;12.629568722840009;17.457865449350734;-0.94189453125;0.19189453125;0.13037109375;-1.75;2.3125;30.375;
1441975742386486;0.44110107421875;-0.51519775390625;-0.6065673828125;-0.41497802734375;16.427672831207445;12.640142385560521;17.480105079206975;-0.9462890625;0.1982421875;0.125;-6.1875;2.25;28.8125;
1441975742400487;0.440185546875;-0.5152587890625;-0.60931396484375;-0.41180419921875;16.388297323473736;12.64546017983536;17.49992122806017;-0.94482421875;0.20263671875;0.119140625;-9.75;1.8125;27.25;
1441975742423488;0.43963623046875;-0.51483154296875;-0.61187744140625;-0.4090576171875;16.356615667567446;12.642883455839403;17.51253956629067;-0.9560546875;0.19970703125;0.11279296875;-13.0;1.375;24.6875;
1441975742446489;0.439208984375;-0.51446533203125;-0.61395263671875;-0.4068603515625;16.331307107371718;12.640214774015792;17.522210014972494;-0.97021484375;0.1875;0.11083984375;-13.375;0.5625;21.8125;
1441975742460490;0.43878173828125;-0.51416015625;-0.6156005859375;-0.4052734375;16.311371061540587;12.635697972996612;17.526817473054354;-0.96337890625;0.18505859375;0.103515625;-11.3125;-0.0625;19.1875;
1441975742483491;0.4383544921875;-0.51385498046875;-0.6168212890625;-0.40423583984375;16.296707984791656;12.629267911905881;17.526669380864078;-0.9619140625;0.18603515625;0.09814453125;-8.125;-0.9375;16.0;
1441975742506493;0.4381103515625;-0.5135498046875;-0.6175537109375;-0.40374755859375;16.28908700155942;12.622549650584567;17.523716573350832;-0.94873046875;0.1884765625;0.095703125;-5.5625;-1.5625;12.625;
1441975742520493;0.43798828125;-0.5130615234375;-0.61798095703125;-0.40386962890625;16.28786107761813;12.610587258066598;17.513706762053165;-0.951171875;0.19580078125;0.0849609375;-3.3125;-2.1875;9.0;
1441975742543495;0.438232421875;-0.51220703125;-0.61822509765625;-0.40423583984375;16.292972087166625;12.594931358838625;17.500872822402606;-0.9560546875;0.19873046875;0.08837890625;-2.1875;-2.875;5.3125;
1441975742559496;0.43865966796875;-0.51104736328125;-0.61846923828125;-0.4049072265625;16.30196136202941;12.573023297295297;17.482277727591214;-0.94677734375;0.19384765625;0.0849609375;-2.875;-3.5;1.9375;
1441975742581497;0.43951416015625;-0.5096435546875;-0.61846923828125;-0.40576171875;16.317356497207754;12.550116132579298;17.46336237645811;-0.9404296875;0.1962890625;0.09033203125;-3.875;-3.625;-1.0625;
1441975742603498;0.440673828125;-0.5079345703125;-0.6182861328125;-0.40692138671875;16.338594170698027;12.522624641392449;17.440187817641345;-0.9423828125;0.20361328125;0.08544921875;-4.375;-3.5;-4.5625;
1441975742618499;0.44207763671875;-0.50592041015625;-0.61798095703125;-0.40838623046875;16.36475277980107;12.489263908984826;17.41146801276517;-0.94921875;0.193359375;0.078125;-5.25;-3.8125;-7.5;
1441975742640500;0.443603515625;-0.50396728515625;-0.61737060546875;-0.41009521484375;16.394498911649876;12.456231830780338;17.381638758840367;-0.9609375;0.18994140625;0.0830078125;-5.5;-4.125;-10.125;
1441975742663502;0.44525146484375;-0.501953125;-0.61651611328125;-0.4119873046875;16.427545787513054;12.421702232832141;17.34960547960236;-0.974609375;0.19921875;0.078125;-4.3125;-4.1875;-12.625;
1441975742679503;0.4471435546875;-0.499755859375;-0.615478515625;-0.4141845703125;16.465348761688976;12.382210150988367;17.31239220603055;-0.9736328125;0.20458984375;0.07666015625;-4.125;-3.8125;-15.25;
1441975742700504;0.44915771484375;-0.49755859375;-0.6141357421875;-0.4166259765625;16.50683189793393;12.34094274275976;17.2721573117341;-0.9794921875;0.2041015625;0.078125;-3.625;-3.6875;-18.0625;
1441975742722505;0.45111083984375;-0.4954833984375;-0.612548828125;-0.4193115234375;16.549756342492234;12.297826023003356;17.228125506118403;-0.98388671875;0.193359375;0.0888671875;-2.4375;-2.8125;-20.3125;
1441975742745506;0.4532470703125;-0.493408203125;-0.61077880859375;-0.42205810546875;16.595253004125663;12.253750361305471;17.182946775015242;-0.9794921875;0.19384765625;0.0986328125;-0.25;-1.875;-21.75;
1441975742760507;0.45538330078125;-0.4913330078125;-0.6090087890625;-0.42474365234375;16.640154388800827;12.207580497232525;17.13586370254749;-0.984375;0.1875;0.10205078125;0.125;-0.9375;-22.75;
1441975742782508;0.457763671875;-0.48895263671875;-0.60760498046875;-0.427001953125;16.683376151406787;12.157483527556348;17.088741897827244;-0.99072265625;0.1796875;0.099609375;-0.5625;-0.625;-22.8125;
1441975742814510;0.46026611328125;-0.48614501953125;-0.60675048828125;-0.42864990234375;16.72230339930833;12.10188895172981;17.04111177844543;-0.99609375;0.17236328125;0.10302734375;-4.0;-0.5625;-21.6875;
1441975742821511;0.462890625;-0.48321533203125;-0.60614013671875;-0.429931640625;16.759157783504143;12.045338013889623;16.995001952305934;-0.99267578125;0.16162109375;0.099609375;-9.0625;-0.75;-19.6875;
1441975742844512;0.46527099609375;-0.48028564453125;-0.60577392578125;-0.43115234375;16.791688642242516;11.983582386130703;16.943869955394252;-1.01220703125;0.1337890625;0.09521484375;-11.5;-1.125;-17.0;
1441975742866513;0.46673583984375;-0.47845458984375;-0.6053466796875;-0.43218994140625;16.813826680005356;11.940138629200892;16.905626591613867;-1.0107421875;0.09814453125;0.10009765625;-11.125;-2.0;-13.4375;
1441975742889515;0.4676513671875;-0.47796630859375;-0.60443115234375;-0.43316650390625;16.83180792786675;11.924778545609207;16.888751001725442;-1.0263671875;0.13623046875;0.1171875;-5.6875;-0.8125;-10.25;
1441975742903515;0.4683837890625;-0.47711181640625;-0.60400390625;-0.433837890625;16.844579918890517;11.902174444276039;16.867519786801008;-1.04541015625;0.17041015625;0.0830078125;0.75;-0.3125;-8.5625;
1441975742926517;0.46875;-0.4761962890625;-0.60406494140625;-0.43438720703125;16.850537259799502;11.874690913733886;16.842298953073428;-1.01123046875;0.15234375;0.08154296875;-1.9375;-2.1875;-6.125;
1441975742940518;0.46844482421875;-0.47625732421875;-0.6036376953125;-0.4351806640625;16.853204044498984;11.863524546441452;16.826550156985306;-0.97900390625;0.13818359375;0.10400390625;-2.4375;-2.8125;-3.25;
1441975742970519;0.467529296875;-0.47711181640625;-0.60296630859375;-0.43621826171875;16.851763328823186;11.863567093612103;16.816537974110506;-0.9892578125;0.13720703125;0.10791015625;4.375;-1.9375;-0.625;
1441975742988520;0.4661865234375;-0.47796630859375;-0.6029052734375;-0.43682861328125;16.841208034736166;11.864946828294146;16.809669738803898;-0.9560546875;0.1123046875;0.0966796875;10.0625;-3.0;2.75;
1441975743001521;0.46441650390625;-0.47906494140625;-0.60333251953125;-0.4368896484375;16.821616114368883;11.875632523724704;16.813211228165965;-0.88916015625;0.107421875;0.1005859375;8.6875;-3.75;7.0;
1441975743022522;0.462158203125;-0.48065185546875;-0.60406494140625;-0.43646240234375;16.793469689429962;11.899851103494942;16.829796518950218;-0.84375;0.11181640625;0.1123046875;7.5;-3.375;11.3125;
1441975743046524;0.45965576171875;-0.48248291015625;-0.60516357421875;-0.435546875;16.758723685103163;11.932206659780595;16.855592779224196;-0.8369140625;0.12841796875;0.11474609375;8.3125;-3.25;14.9375;
1441975743060524;0.457275390625;-0.48419189453125;-0.60687255859375;-0.43389892578125;16.718567266828483;11.968399483872124;16.889809948065515;-0.8291015625;0.1474609375;0.1142578125;7.5625;-3.25;18.3125;
1441975743082526;0.4552001953125;-0.4854736328125;-0.609130859375;-0.43145751953125;16.675267248625513;12.004089450286042;16.929568840350118;-0.8173828125;0.16943359375;0.10546875;2.75;-3.125;20.5;
1441975743106527;0.45361328125;-0.48638916015625;-0.61163330078125;-0.42852783203125;16.633260661231585;12.038474982530282;16.972618940336027;-0.81640625;0.19091796875;0.10888671875;-2.9375;-2.1875;21.4375;
1441975743120528;0.4525146484375;-0.48724365234375;-0.61376953125;-0.42559814453125;16.59767248362065;12.074393398914287;17.017722877603227;-0.81591796875;0.20458984375;0.10986328125;-7.6875;-0.9375;20.6875;
1441975743143529;0.451904296875;-0.4879150390625;-0.615478515625;-0.4229736328125;16.570239611887857;12.106538335253125;17.058843300455624;-0.857421875;0.23193359375;0.10546875;-8.1875;1.0;18.0625;
1441975743166530;0.451416015625;-0.488525390625;-0.61700439453125;-0.420654296875;16.546088847754618;12.134200631231936;17.09456562697486;-0.88037109375;0.2177734375;0.09326171875;-8.125;1.75;15.375;
1441975743180531;0.451416015625;-0.489501953125;-0.61761474609375;-0.41864013671875;16.532078009168504;12.171988120068223;17.137196605731305;-0.8994140625;0.240234375;0.10693359375;-7.25;2.3125;12.5625;
1441975743203533;0.4522705078125;-0.4893798828125;-0.6181640625;-0.41693115234375;16.52915909335119;12.192277480282703;17.166899348667187;-0.98681640625;0.27294921875;0.08544921875;-4.1875;4.0625;8.1875;
1441975743226534;0.4539794921875;-0.48809814453125;-0.6190185546875;-0.41534423828125;16.534573875586517;12.194296989064393;17.184627783765094;-1.01708984375;0.24853515625;0.072265625;-9.3125;3.1875;4.0;
1441975743240535;0.4560546875;-0.48638916015625;-0.619384765625;-0.41461181640625;16.550614875350508;12.183993238382488;17.188372604607945;-1.00390625;0.20654296875;0.08837890625;-15.5;3.125;1.3125;
1441975743264536;0.45745849609375;-0.48553466796875;-0.618896484375;-0.4146728515625;16.56769616685458;12.180301133203612;17.189564783947713;-1.0126953125;0.13525390625;0.09716796875;-13.1875;3.25;0.125;
1441975743286537;0.45819091796875;-0.4859619140625;-0.617919921875;-0.4149169921875;16.57991427880162;12.195676073823558;17.202197717192405;-1.0048828125;0.10595703125;0.10400390625;-4.3125;3.5;0.9375;
1441975743308539;0.45880126953125;-0.486572265625;-0.6170654296875;-0.41473388671875;16.58813019302586;12.21842682182668;17.222971318569208;-1.005859375;0.13427734375;0.10107421875;3.6875;4.6875;2.25;
1441975743331540;0.459716796875;-0.48651123046875;-0.61700439453125;-0.4139404296875;16.59292614659419;12.23367541407793;17.243133637523805;-1.00830078125;0.1494140625;0.08935546875;2.875;4.8125;3.625;
1441975743346541;0.460693359375;-0.486083984375;-0.617431640625;-0.41278076171875;16.59451094268884;12.244173959864307;17.26227711336295;-0.9931640625;0.14111328125;0.08740234375;-3.9375;4.3125;5.9375;
1441975743361542;0.46142578125;-0.48590087890625;-0.61785888671875;-0.41143798828125;16.592666558472846;12.259774004599075;17.28569268614385;-0.99462890625;0.1259765625;0.09765625;-7.625;3.9375;7.8125;
1441975743383543;0.4619140625;-0.48614501953125;-0.6182861328125;-0.40997314453125;16.587071088214312;12.282510684294783;17.314650644588642;-0.97900390625;0.13818359375;0.09814453125;-6.3125;4.375;9.0;
1441975743406544;0.46234130859375;-0.486328125;-0.618896484375;-0.40838623046875;16.57936576144849;12.303706319683492;17.34296185475305;-0.9736328125;0.15625;0.09375;-5.25;4.6875;10.0;
1441975743420545;0.462646484375;-0.48651123046875;-0.6195068359375;-0.4068603515625;16.570850698692695;12.32310094153079;17.368963551738123;-0.96142578125;0.1669921875;0.091796875;-5.9375;4.5;10.1875;
1441975743442546;0.462890625;-0.4869384765625;-0.619873046875;-0.40545654296875;16.563102102538664;12.34631918548086;17.39684372253889;-0.9521484375;0.17333984375;0.1015625;-5.5625;4.4375;9.6875;
1441975743474548;0.46331787109375;-0.4874267578125;-0.6199951171875;-0.40435791015625;16.55938465779699;12.369669181106302;17.423543565173258;-0.95166015625;0.18896484375;0.09375;-3.375;4.75;8.5;
1441975743480548;0.46392822265625;-0.487548828125;-0.6201171875;-0.4031982421875;16.557889258085602;12.389050352958911;17.448096961077262;-0.95263671875;0.19482421875;0.08544921875;-2.625;4.6875;6.5;
1441975743503550;0.46466064453125;-0.4874267578125;-0.62030029296875;-0.4022216796875;16.55849813419701;12.402483995914855;17.467370407306433;-0.9453125;0.19921875;0.08349609375;-4.375;4.5;4.6875;
1441975743534551;0.46551513671875;-0.4873046875;-0.62017822265625;-0.40155029296875;16.56330778699439;12.415685260418417;17.48497345275608;-0.93896484375;0.20947265625;0.09375;-4.9375;4.9375;2.5625;
1441975743540552;0.4666748046875;-0.48699951171875;-0.61981201171875;-0.40118408203125;16.573974788851988;12.426544929023564;17.500006331443057;-0.9365234375;0.21240234375;0.09228515625;-3.9375;5.3125;-0.125;
1441975743564553;0.46807861328125;-0.48651123046875;-0.61932373046875;-0.40093994140625;16.58844009703553;12.435942381723068;17.51408398846831;-0.94091796875;0.20751953125;0.08984375;-3.4375;5.5;-2.5625;
1441975743594555;0.46966552734375;-0.48577880859375;-0.61883544921875;-0.40069580078125;16.605122096914656;12.442938460702697;17.527003187706146;-0.94384765625;0.21044921875;0.09228515625;-4.3125;6.0625;-4.6875;
1441975743616556;0.471435546875;-0.48486328125;-0.61834716796875;-0.40045166015625;16.62382575080175;12.448509620380145;17.539546583295813;-0.93603515625;0.2099609375;0.09130859375;-5.5;6.5;-6.375;
1441975743622557;0.47357177734375;-0.48370361328125;-0.6177978515625;-0.40020751953125;16.646556764920888;12.453599217210735;17.553163484394133;-0.94775390625;0.21728515625;0.08984375;-6.5;6.6875;-7.6875;
1441975743646558;0.4759521484375;-0.48193359375;-0.6175537109375;-0.39990234375;16.67107816301507;12.448395144041106;17.560020511836413;-0.95751953125;0.21142578125;0.07373046875;-8.25;6.5;-9.375;
1441975743660559;0.4783935546875;-0.47991943359375;-0.61749267578125;-0.3995361328125;16.695492236904812;12.438511797076591;17.56378566746424;-0.9560546875;0.18994140625;0.07861328125;-11.9375;5.6875;-9.5;
1441975743683560;0.4805908203125;-0.4781494140625;-0.61737060546875;-0.399169921875;16.717574093198337;12.431470951875912;17.568832098156815;-0.9423828125;0.17626953125;0.09033203125;-13.125;5.75;-9.1875;
1441975743708561;0.48284912109375;-0.47662353515625;-0.61724853515625;-0.39849853515625;16.737879015433577;12.433553350848838;17.5833463860452;-0.93798828125;0.17822265625;0.09033203125;-11.75;6.0625;-8.6875;
1441975743720562;0.48541259765625;-0.47479248046875;-0.6173095703125;-0.3973388671875;16.758184479599855;12.438137778186672;17.604127674477148;-0.95361328125;0.20263671875;0.07958984375;-12.0625;6.625;-8.4375;
1441975743742563;0.4881591796875;-0.47259521484375;-0.6177978515625;-0.39593505859375;16.77737433702525;12.437032950789746;17.622707034657314;-0.958984375;0.20849609375;0.06103515625;-16.0625;6.875;-8.75;
1441975743765565;0.49102783203125;-0.4703369140625;-0.6182861328125;-0.394287109375;16.796576201250105;12.439813273061603;17.64644875308831;-0.9580078125;0.21240234375;0.07080078125;-19.5;7.0;-8.75;
1441975743780566;0.494140625;-0.46783447265625;-0.61871337890625;-0.3927001953125;16.819171778106085;12.440466101196863;17.669101822153074;-0.955078125;0.21875;0.0654296875;-20.875;7.5;-9.3125;
1441975743803567;0.49725341796875;-0.46539306640625;-0.6190185546875;-0.39117431640625;16.84258603610675;12.443200279333341;17.693129942061667;-0.970703125;0.197265625;0.052734375;-21.75;7.1875;-9.375;
1441975743825568;0.50006103515625;-0.4632568359375;-0.619140625;-0.389892578125;16.864849319422035;12.447733837605893;17.715964795893466;-0.97998046875;0.18359375;0.04296875;-21.0;6.5;-8.875;
1441975743840569;0.5025634765625;-0.46142578125;-0.61920166015625;-0.38885498046875;16.885197565826747;12.452545992228984;17.73638909233871;-0.98828125;0.1748046875;0.03466796875;-18.4375;5.875;-8.125;
1441975743863570;0.504638671875;-0.4598388671875;-0.619140625;-0.38812255859375;16.903623160189902;12.454854107931025;17.751171524278504;-0.9931640625;0.166015625;0.0322265625;-15.625;4.5625;-7.125;
1441975743885572;0.5059814453125;-0.45880126953125;-0.61895751953125;-0.38775634765625;16.916989395233983;12.456325007600581;17.760045440026488;-0.99267578125;0.14697265625;0.02392578125;-12.375;2.875;-5.1875;
1441975743900572;0.50665283203125;-0.45843505859375;-0.6187744140625;-0.3876953125;16.924235600929368;12.459280147235175;17.765584477147808;-0.98876953125;0.1337890625;0.0234375;-8.0;1.0;-2.625;
1441975743922574;0.506591796875;-0.45880126953125;-0.618408203125;-0.387939453125;16.92580942077485;12.466553270250525;17.76982769808006;-0.98193359375;0.126953125;0.02587890625;-2.6875;-0.6875;0.125;
1441975743954576;0.50579833984375;-0.46002197265625;-0.617919921875;-0.38836669921875;16.92027206979399;12.481712733796648;17.776492736064103;-0.97265625;0.123046875;0.0205078125;2.75;-2.0;3.0625;
1441975743960576;0.50439453125;-0.4619140625;-0.61724853515625;-0.388916015625;16.90930591845651;12.503931718143962;17.78569309120321;-0.98046875;0.13134765625;0.02294921875;8.375;-2.6875;5.9375;
1441975743982577;0.5025634765625;-0.46417236328125;-0.61669921875;-0.38946533203125;16.89297207766582;12.526928037555415;17.793728993953543;-0.9853515625;0.13720703125;0.02490234375;12.6875;-3.375;8.375;
1441975744005578;0.50048828125;-0.4666748046875;-0.61627197265625;-0.389892578125;16.8725038668993;12.551952180358203;17.803091938855413;-0.97509765625;0.14794921875;0.0224609375;14.6875;-4.0625;10.25;
1441975744021579;0.4984130859375;-0.46917724609375;-0.615966796875;-0.38995361328125;16.849439001631833;12.580392495522794;17.81735085322531;-0.9638671875;0.16796875;0.0234375;15.4375;-4.1875;11.25;
1441975744042581;0.4964599609375;-0.471435546875;-0.615966796875;-0.3897705078125;16.82513293096304;12.604634001952695;17.830042230387715;-0.96337890625;0.1923828125;0.0205078125;13.875;-4.125;11.4375;
1441975744065582;0.49493408203125;-0.47320556640625;-0.6160888671875;-0.389404296875;16.804226344507022;12.624863533774919;17.842249606627725;-0.96435546875;0.2060546875;0.0205078125;11.0625;-4.1875;11.0625;
1441975744080583;0.49359130859375;-0.47467041015625;-0.61614990234375;-0.38916015625;16.786856220562225;12.640064105521859;17.850319351827157;-0.96875;0.21044921875;0.015625;7.9375;-3.875;9.75;
1441975744103584;0.4925537109375;-0.475830078125;-0.61614990234375;-0.38916015625;16.774559927091197;12.65000840082048;17.85393821711559;-0.9677734375;0.2041015625;0.0224609375;6.3125;-3.6875;8.1875;
1441975744126585;0.491455078125;-0.47705078125;-0.61578369140625;-0.3895263671875;16.765620919831775;12.659652392557422;17.85481188447972;-0.962890625;0.19677734375;0.02685546875;6.125;-3.375;6.4375;
1441975744148587;0.49041748046875;-0.4783935546875;-0.61517333984375;-0.39019775390625;16.759643853182183;12.670636242067747;17.8551929815781;-0.9599609375;0.18798828125;0.04248046875;8.375;-2.625;5.0;
1441975744162587;0.489501953125;-0.4798583984375;-0.6143798828125;-0.39080810546875;16.75480538853246;12.687829032108617;17.861432904229382;-0.9541015625;0.19384765625;0.041015625;10.6875;-1.9375;3.5;
1441975744185589;0.48907470703125;-0.48077392578125;-0.61376953125;-0.39117431640625;16.75341171443836;12.701517020068996;17.868400813627158;-0.958984375;0.2099609375;0.044921875;10.875;-0.375;2.0;
1441975744200590;0.48919677734375;-0.48095703125;-0.61346435546875;-0.3912353515625;16.755636361400533;12.708651366529827;17.874291865278508;-0.95947265625;0.21533203125;0.04931640625;6.4375;0.625;0.1875;
1441975744223591;0.48980712890625;-0.4808349609375;-0.61322021484375;-0.3909912109375;16.760684543852193;12.718847687145393;17.886584496460536;-0.953125;0.21142578125;0.06591796875;1.4375;2.125;-1.1875;
1441975744245592;0.49102783203125;-0.4803466796875;-0.613037109375;-0.390380859375;16.769342047407434;12.733259722833978;17.907130378902114;-0.9521484375;0.212890625;0.07177734375;-1.6875;4.1875;-2.75;
1441975744260593;0.49285888671875;-0.47930908203125;-0.613037109375;-0.38934326171875;16.78131764033621;12.748367791097106;17.933497128743713;-0.94384765625;0.22119140625;0.0634765625;-5.5625;6.0625;-4.5;
1441975744282594;0.49530029296875;-0.477783203125;-0.6131591796875;-0.38800048828125;16.797332871035003;12.764589081076151;17.965358731107507;-0.94287109375;0.2255859375;0.0576171875;-10.75;7.375;-6.5;
1441975744305596;0.49786376953125;-0.4759521484375;-0.61328125;-0.38671875;16.81580968535426;12.776697547584266;17.994192172959814;-0.9375;0.2158203125;0.05517578125;-14.875;8.5625;-7.6875;
1441975744320596;0.5006103515625;-0.47412109375;-0.61334228515625;-0.3853759765625;16.835527077275433;12.79317338677749;0.027888406897337886;-0.94384765625;0.21044921875;0.06298828125;-16.25;9.3125;-8.6875;
1441975744342598;0.50335693359375;-0.471923828125;-0.613525390625;-0.38421630859375;16.857146090566832;12.799791963628547;0.05261444540650189;-0.95703125;0.20849609375;0.04638671875;-16.5625;8.8125;-9.25;
1441975744365599;0.50592041015625;-0.46966552734375;-0.61370849609375;-0.38323974609375;16.878766163370315;12.80111500185172;0.0711907311040732;-0.9609375;0.1875;0.04833984375;-17.5625;7.5625;-9.125;
1441975744388600;0.50799560546875;-0.46771240234375;-0.61383056640625;-0.38262939453125;16.897983965384523;12.797930011912552;0.08172519791826581;-0.96630859375;0.17138671875;0.05029296875;-17.0625;6.1875;-8.625;
1441975744402601;0.50946044921875;-0.46636962890625;-0.61376953125;-0.38250732421875;16.913926840739347;12.793929006626142;0.08592584980587338;-0.97119140625;0.16015625;0.05419921875;-13.0625;4.875;-7.3125;
1441975744425602;0.5103759765625;-0.4654541015625;-0.61358642578125;-0.38262939453125;16.926158860673628;12.78913896054981;0.08550865483322014;-0.97705078125;0.14990234375;0.05517578125;-8.125;3.5;-5.625;
1441975744448604;0.51080322265625;-0.46490478515625;-0.61358642578125;-0.38275146484375;16.932298372466455;12.782342945708045;0.08114748086418062;-0.9775390625;0.15283203125;0.0615234375;-4.25;2.375;-4.0;
1441975744462605;0.510986328125;-0.46453857421875;-0.61370849609375;-0.38275146484375;16.934543305009004;12.775964438294187;0.07670632071702436;-0.970703125;0.16064453125;0.06787109375;-2.0;1.5625;-2.125;
1441975744486606;0.510986328125;-0.46435546875;-0.6141357421875;-0.38238525390625;16.930934465958764;12.771877052978658;0.07545016970576948;-0.9658203125;0.1630859375;0.06982421875;-1.6875;1.125;-0.3125;
1441975744500607;0.5111083984375;-0.4639892578125;-0.61474609375;-0.381591796875;16.925621920364513;12.769760137912819;0.07889588256080445;-0.96044921875;0.1826171875;0.06982421875;-2.5;1.125;1.125;
1441975744530608;0.51129150390625;-0.46337890625;-0.61572265625;-0.38055419921875;16.91841976079904;12.762236782247477;0.07956875223472613;-0.95458984375;0.18310546875;0.0673828125;-5.375;1.1875;2.125;
1441975744545609;0.51153564453125;-0.46270751953125;-0.61663818359375;-0.3795166015625;16.91226808986669;12.755254616035987;0.0809825432368301;-0.95751953125;0.18505859375;0.06640625;-8.0625;0.75;2.75;
1441975744560610;0.51171875;-0.46209716796875;-0.6175537109375;-0.37860107421875;16.906082813595802;12.746854246914774;0.08023313804799802;-0.9599609375;0.1796875;0.06298828125;-8.0625;0.3125;2.9375;
1441975744582611;0.51177978515625;-0.461669921875;-0.6182861328125;-0.37774658203125;16.899597706993866;12.742098758655166;0.08159069528419527;-0.9501953125;0.17626953125;0.0634765625;-7.4375;0.25;3.1875;
1441975744605613;0.51171875;-0.461181640625;-0.61895751953125;-0.37738037109375;16.895543388185928;12.72840202084537;0.07216725933209893;-0.9619140625;0.1767578125;0.05419921875;-6.1875;-0.25;3.125;
1441975744621614;0.51141357421875;-0.4610595703125;-0.61932373046875;-0.37738037109375;16.891856977193946;12.717437746723304;0.06175005209501628;-0.97314453125;0.15673828125;0.064453125;-4.1875;-1.3125;3.25;
1441975744642615;0.51068115234375;-0.4613037109375;-0.61944580078125;-0.37774658203125;16.8869040918589;12.70622344471321;0.047060213461122394;-0.96728515625;0.146484375;0.06103515625;-0.5625;-1.9375;3.75;
1441975744665616;0.50958251953125;-0.46197509765625;-0.6195068359375;-0.37841796875;16.879448543986438;12.69501854121532;0.028948801246808546;-0.96533203125;0.14453125;0.0625;3.6875;-2.5;4.1875;
1441975744681617;0.50823974609375;-0.462890625;-0.619384765625;-0.37921142578125;16.8708831674847;12.686379344327076;0.011167672236682044;-0.95947265625;0.15283203125;0.06494140625;6.8125;-3.625;4.375;
1441975744702618;0.5068359375;-0.4637451171875;-0.6192626953125;-0.3802490234375;16.86341981112052;12.672560684939153;17.987459508140255;-0.9619140625;0.1689453125;0.05810546875;8.6875;-4.1875;4.4375;
1441975744726620;0.50531005859375;-0.46466064453125;-0.61907958984375;-0.38153076171875;16.856416668995823;12.655971642391938;17.95953861943637;-0.9658203125;0.1552734375;0.0654296875;9.6875;-4.875;4.125;
1441975744741621;0.50360107421875;-0.4659423828125;-0.61859130859375;-0.38299560546875;16.84923933511675;12.64559077219717;17.934842017382227;-0.96435546875;0.15234375;0.06689453125;11.3125;-5.5625;4.25;
1441975744762622;0.501953125;-0.46728515625;-0.617919921875;-0.3846435546875;16.844242004130788;12.6368229230991;17.910664304805742;-0.96826171875;0.15673828125;0.06689453125;13.6875;-5.1875;4.0;
1441975744786623;0.50030517578125;-0.468505859375;-0.61724853515625;-0.38641357421875;16.840347374515133;12.62419532680714;17.88262607480917;-0.970703125;0.16064453125;0.0693359375;15.1875;-4.875;3.0;
1441975744802624;0.498779296875;-0.4697265625;-0.61651611328125;-0.3880615234375;16.837035332701824;12.615522011402064;17.859087121795667;-0.96337890625;0.1650390625;0.080078125;15.3125;-4.4375;1.875;
1441975744822625;0.49749755859375;-0.4708251953125;-0.61578369140625;-0.38946533203125;16.834734803937806;12.610810139057113;17.84129669275252;-0.95166015625;0.169921875;0.0810546875;14.625;-3.5625;1.125;
1441975744845626;0.4967041015625;-0.471435546875;-0.6153564453125;-0.39044189453125;16.83397307950112;12.604731322877331;17.827064661206656;-0.94287109375;0.18212890625;0.072265625;12.875;-2.75;0.1875;
1441975744861627;0.49652099609375;-0.4710693359375;-0.615234375;-0.39129638671875;16.83913132562299;12.585014224531191;17.80501467500309;-0.94384765625;0.18505859375;0.05908203125;7.875;-2.875;-0.75;
1441975744882629;0.49639892578125;-0.4703369140625;-0.61505126953125;-0.392578125;16.848597784347056;12.553205344995233;17.770676786339436;-0.96630859375;0.1494140625;0.05517578125;1.9375;-4.0625;-1.1875;
1441975744905630;0.49554443359375;-0.470458984375;-0.61431884765625;-0.39471435546875;16.856696165848224;12.52319716247183;17.729443540349514;-0.96875;0.109375;0.056640625;2.1875;-5.6875;-1.1875;
1441975744921631;0.49395751953125;-0.4713134765625;-0.6129150390625;-0.3978271484375;16.865197540921226;12.492279573670922;17.678301482253776;-0.96875;0.1064453125;0.052734375;10.4375;-7.25;-1.3125;
1441975744942632;0.49139404296875;-0.47283935546875;-0.6112060546875;-0.40185546875;16.869817645616052;12.453505201954322;17.611001509885366;-0.9794921875;0.0966796875;0.04150390625;19.25;-9.75;-1.375;
1441975744965633;0.487548828125;-0.47515869140625;-0.6090087890625;-0.40704345703125;16.869830847527357;12.40506222632594;17.52332612962588;-0.95849609375;0.08056640625;0.04443359375;27.1875;-13.3125;-0.3125;
1441975744987635;0.482177734375;-0.4783935546875;-0.6063232421875;-0.41363525390625;16.86361764670118;12.34413438348641;17.41066541030982;-0.93603515625;0.0693359375;0.0537109375;37.875;-17.375;1.0625;
1441975745011636;0.4752197265625;-0.48199462890625;-0.60382080078125;-0.421142578125;16.845307185273793;12.262575461912682;17.2697038154909;-0.9326171875;0.05419921875;0.0625;50.0;-22.4375;2.1875;
1441975745025637;0.467041015625;-0.48541259765625;-0.602294921875;-0.428466796875;16.808795571353645;12.167523477427796;17.115726350105113;-0.91015625;0.05517578125;0.0849609375;57.4375;-28.9375;5.1875;
1441975745056639;0.4583740234375;-0.48785400390625;-0.60205078125;-0.43536376953125;16.75819165225724;12.055612271669476;16.95129254568008;-0.8603515625;0.068359375;0.109375;56.6875;-34.3125;9.1875;
1441975745071639;0.4493408203125;-0.48944091796875;-0.6029052734375;-0.441650390625;16.694007747179953;11.939546448059996;16.789110913217748;-0.84033203125;0.072265625;0.1513671875;50.125;-38.1875;12.375;
1441975745085640;0.440185546875;-0.4913330078125;-0.604248046875;-0.44696044921875;16.619568857193357;11.853497587322398;16.659923157187848;-0.83203125;0.09619140625;0.21435546875;44.125;-39.4375;14.5625;
1441975745107641;0.43115234375;-0.49298095703125;-0.60504150390625;-0.45281982421875;16.55007760146069;11.769680588424585;16.530809186566422;-0.85205078125;0.15771484375;0.25537109375;41.75;-35.3125;16.9375;
1441975745122642;0.4212646484375;-0.49493408203125;-0.604736328125;-0.4603271484375;16.482735771674562;11.68184725396567;16.38633144087065;-0.90576171875;0.1318359375;0.27001953125;43.875;-36.3125;15.3125;
1441975745145644;0.4100341796875;-0.498291015625;-0.604248046875;-0.46746826171875;16.401491490308675;11.630705878667282;16.27108696953448;-0.962890625;0.12109375;0.30908203125;54.875;-39.25;12.375;
1441975745169645;0.40008544921875;-0.5015869140625;-0.603759765625;-0.47320556640625;16.32787402808955;11.60458356960899;16.18870606738809;-0.9423828125;0.2158203125;0.3466796875;62.8125;-36.625;13.6875;
1441975745190646;0.392578125;-0.5023193359375;-0.6043701171875;-0.47784423828125;16.26588484109672;11.55527859264756;16.103918610105787;-0.935546875;0.3076171875;0.32421875;54.1875;-30.75;9.1875;
1441975745205647;0.38726806640625;-0.5010986328125;-0.605712890625;-0.4818115234375;16.21598613579724;11.487684832320246;16.016887321301798;-0.931640625;0.32470703125;0.341796875;33.1875;-28.0;2.375;
1441975745229648;0.38299560546875;-0.49884033203125;-0.60650634765625;-0.48651123046875;16.178577368217127;11.401844279471264;15.913885654396413;-0.8935546875;0.3095703125;0.3369140625;16.625;-26.25;-3.625;
1441975745242649;0.37847900390625;-0.4969482421875;-0.606689453125;-0.49176025390625;16.14233830777503;11.320252873028418;15.80997720311855;-0.83837890625;0.220703125;0.3544921875;14.375;-24.75;-7.8125;
1441975745265651;0.373291015625;-0.4964599609375;-0.60638427734375;-0.4964599609375;16.10261652722922;11.26923481128994;15.730765188710063;-0.759765625;0.1640625;0.37841796875;20.5625;-23.125;-7.6875;
1441975745295652;0.36920166015625;-0.49560546875;-0.6068115234375;-0.49993896484375;16.06527512095543;11.226137287995044;15.669379038664353;-0.7392578125;0.25341796875;0.34912109375;25.8125;-20.875;-8.125;
1441975745305653;0.3670654296875;-0.49237060546875;-0.60882568359375;-0.50225830078125;16.029819886201555;11.160139566747494;15.60565830867237;-0.7666015625;0.30419921875;0.29833984375;14.5625;-20.25;-9.0625;
1441975745326654;0.3663330078125;-0.48779296875;-0.61138916015625;-0.50408935546875;15.999865676358933;11.080365426723102;15.539174252761818;-0.76171875;0.27978515625;0.29931640625;-6.0;-21.1875;-8.9375;
1441975745347655;0.3656005859375;-0.483642578125;-0.6134033203125;-0.5062255859375;15.973325177239367;11.005450135725871;15.473834582237684;-0.7509765625;0.197265625;0.31640625;-15.8125;-18.75;-7.8125;
1441975745362656;0.36358642578125;-0.48095703125;-0.61492919921875;-0.50836181640625;15.940352552029614;10.9545983050659;15.423143787240512;-0.703125;0.10986328125;0.33349609375;-10.25;-15.875;-4.6875;
1441975745385657;0.3602294921875;-0.4798583984375;-0.61651611328125;-0.50982666015625;15.897469302774601;10.935377683427134;15.397676615858503;-0.6171875;0.08203125;0.34619140625;0.4375;-13.3125;1.0625;
1441975745407659;0.3570556640625;-0.4796142578125;-0.61846923828125;-0.50994873046875;15.855166058465212;10.939514559290691;15.398584614194913;-0.56298828125;0.13623046875;0.34033203125;7.125;-11.0;6.5;
1441975745422659;0.35552978515625;-0.478759765625;-0.62115478515625;-0.508544921875;15.821156128760645;10.94559174351694;15.414609804094841;-0.5556640625;0.20263671875;0.30810546875;4.0;-7.375;9.0;
1441975745445661;0.3555908203125;-0.47705078125;-0.62432861328125;-0.5062255859375;15.796183957503201;10.945103644033125;15.435306458266222;-0.57861328125;0.20849609375;0.2919921875;-8.25;-2.5625;11.0625;
1441975745467662;0.3560791015625;-0.47576904296875;-0.6270751953125;-0.503662109375;15.778726899802678;10.950733252782392;15.461602599252943;-0.599609375;0.1591796875;0.2958984375;-18.0625;2.25;13.375;
1441975745482663;0.35614013671875;-0.47589111328125;-0.629150390625;-0.50091552734375;15.764473679309672;10.975755127785208;15.500529021836037;-0.59765625;0.10498046875;0.28564453125;-16.1875;5.75;16.375;
1441975745505664;0.35626220703125;-0.47735595703125;-0.6307373046875;-0.4974365234375;15.755779004222141;11.022959504692192;15.558610702544687;-0.58056640625;0.0869140625;0.28369140625;-8.0625;10.375;19.875;
1441975745527665;0.35736083984375;-0.4794921875;-0.63201904296875;-0.49298095703125;15.757629904664562;11.08473258549423;15.634107373334317;-0.57568359375;0.1328125;0.26806640625;-4.5;16.25;21.25;
1441975745544666;0.35870361328125;-0.48193359375;-0.6329345703125;-0.4884033203125;15.763233743523648;11.151323757840363;15.7135276508763;-0.59228515625;0.15234375;0.220703125;-7.3125;22.125;21.6875;
1441975745565668;0.359130859375;-0.48590087890625;-0.6329345703125;-0.484130859375;15.767335502962354;11.236350067259036;15.80068859659323;-0.60791015625;0.14306640625;0.21240234375;-5.75;24.5625;22.125;
1441975745589669;0.35906982421875;-0.49139404296875;-0.632080078125;-0.47979736328125;15.771977410804805;11.342478708761133;15.900750843084918;-0.62890625;0.16943359375;0.1982421875;4.875;25.0;23.25;
1441975745604670;0.35931396484375;-0.49664306640625;-0.63079833984375;-0.475830078125;15.779977604022662;11.443449260062645;15.994943691539987;-0.6533203125;0.2294921875;0.13134765625;11.8125;25.6875;22.5;
1441975745633672;0.35943603515625;-0.50152587890625;-0.6290283203125;-0.47296142578125;15.789728528317397;11.53201017145923;16.072806514150205;-0.7607421875;0.23974609375;0.0849609375;11.4375;21.4375;20.4375;
1441975745647672;0.35931396484375;-0.5057373046875;-0.62713623046875;-0.4710693359375;15.798341984098437;11.604707184826918;16.132850753676692;-0.99658203125;0.32275390625;0.03662109375;11.6875;11.1875;14.375;
1441975745664673;0.35943603515625;-0.5096435546875;-0.62371826171875;-0.4713134765625;15.823186934054908;11.65941170055894;16.165821418402317;-1.23046875;0.45166015625;0.01171875;9.875;0.75;6.875;
1441975745685675;0.36102294921875;-0.51165771484375;-0.618896484375;-0.4742431640625;15.876554778894802;11.671485123965644;16.154051663135316;-1.41552734375;0.568359375;-0.0546875;13.75;-8.625;-10.1875;
1441975745707676;0.36328125;-0.5091552734375;-0.6151123046875;-0.48004150390625;15.934713349135443;11.595458922451487;16.064000501795718;-1.51220703125;0.49365234375;-0.150390625;12.375;-20.8125;-25.4375;
1441975745731677;0.363037109375;-0.5062255859375;-0.61016845703125;-0.48956298828125;15.98261916270563;11.475719508192276;15.910008073188083;-1.36279296875;0.2021484375;-0.10205078125;2.625;-35.8125;-29.5;
1441975745748678;0.35772705078125;-0.508056640625;-0.60040283203125;-0.5035400390625;16.02363538053828;11.381055877575735;15.725568826350415;-1.07470703125;-0.048828125;0.009765625;25.4375;-42.875;-29.5625;
1441975745784680;0.3463134765625;-0.51434326171875;-0.5902099609375;-0.5169677734375;16.01378371059934;11.35705983948008;15.581287922504798;-0.82861328125;-0.17041015625;0.0341796875;81.5625;-45.1875;-31.5625;
1441975745787680;0.33453369140625;-0.52471923828125;-0.58050537109375;-0.52520751953125;15.996810470219678;11.440662302060847;15.547963860866785;-0.68701171875;-0.1806640625;0.02197265625;112.6875;-41.75;-23.625;
1441975745806681;0.3275146484375;-0.53887939453125;-0.572021484375;-0.524658203125;16.00552616509639;11.655215667773026;15.677657354441186;-0.5869140625;0.24560546875;0.10986328125;114.3125;-14.5625;-2.5625;
1441975745827683;0.3336181640625;-0.5477294921875;-0.565673828125;-0.5184326171875;16.096079429875534;11.85241746684666;15.867131159639962;-0.904296875;0.82177734375;-0.1259765625;78.1875;16.1875;-12.9375;
1441975745844684;0.3485107421875;-0.53399658203125;-0.5689697265625;-0.519287109375;16.202316154587525;11.637959594222647;15.743763736651982;-1.89208984375;1.16552734375;-0.41015625;-5.1875;25.75;-42.9375;
1441975745865685;0.36907958984375;-0.5172119140625;-0.57470703125;-0.51580810546875;16.32792807026538;11.398786822206594;15.6403281215841;-2.24755859375;0.912109375;-0.533203125;-97.375;-1.75;-66.0625;
1441975745887686;0.38714599609375;-0.5045166015625;-0.57623291015625;-0.513427734375;16.461594947974017;11.19396643958036;15.536214351092848;-1.90283203125;0.224609375;-0.27392578125;-142.375;5.75;-64.5625;
1441975745904687;0.4027099609375;-0.49853515625;-0.568359375;-0.51611328125;16.647171375074823;11.009993598045362;15.384270905932498;-1.595703125;-0.39794921875;0.00732421875;-103.375;20.5625;-56.125;
1441975745933689;0.406005859375;-0.5042724609375;-0.5594482421875;-0.51763916015625;16.749531007727715;11.082432079873538;15.419708742592604;-1.2568359375;-0.59814453125;0.0400390625;-28.9375;30.5625;-35.875;
1441975745947690;0.4046630859375;-0.51239013671875;-0.5546875;-0.51580810546875;16.781785869696545;11.283938653588379;15.585548381130733;-1.27880859375;-0.015625;-0.056640625;37.75;25.125;-13.625;
1441975745964690;0.40679931640625;-0.5150146484375;-0.555908203125;-0.51019287109375;16.788942936360975;11.432646477459176;15.752568005949701;-1.509765625;0.58056640625;-0.14306640625;31.6875;10.5625;-10.0;
1441975745985692;0.41363525390625;-0.50970458984375;-0.561279296875;-0.504150390625;16.800685262006013;11.413805139772911;15.801633408486763;-1.66064453125;0.81298828125;-0.234375;-25.4375;-5.0;-17.0625;
1441975746007693;0.4195556640625;-0.504150390625;-0.5645751953125;-0.5010986328125;16.82262160293501;11.340686950524992;15.77986718275126;-1.65771484375;0.6572265625;-0.1318359375;-74.9375;-14.5;-24.6875;
1441975746024694;0.42242431640625;-0.503173828125;-0.5621337890625;-0.50238037109375;16.86609149593268;11.29649291515706;15.736046933053254;-1.57958984375;0.47802734375;0.01171875;-56.375;-10.9375;-28.0;
1441975746045695;0.423583984375;-0.5057373046875;-0.55633544921875;-0.50531005859375;16.922765769095825;11.304006102184042;15.714433855141587;-1.4912109375;0.416015625;0.03173828125;-5.3125;-3.625;-35.8125;
1441975746067696;0.426025390625;-0.5081787109375;-0.55023193359375;-0.50750732421875;16.992291635743626;11.322183688561683;15.708786701434205;-1.44091796875;0.5341796875;0.0087890625;23.75;4.125;-47.0625;
1441975746084697;0.43243408203125;-0.5059814453125;-0.54681396484375;-0.50799560546875;17.072077653446737;11.249467689619316;15.649648354962922;-1.3759765625;0.623046875;-0.06103515625;17.75;7.4375;-57.1875;
1441975746105699;0.443359375;-0.49774169921875;-0.547119140625;-0.50634765625;17.155617259009187;11.032482535754301;15.493384764979464;-1.30615234375;0.62646484375;-0.06689453125;-20.3125;5.25;-68.625;
1441975746127700;0.45892333984375;-0.48291015625;-0.549560546875;-0.50421142578125;17.245047275665407;10.558061276902391;15.119392194764819;-1.26123046875;0.51513671875;-0.05322265625;-67.125;0.375;-73.75;
1441975746144701;0.4764404296875;-0.46636962890625;-0.55364990234375;-0.49896240234375;17.32052352513312;10.012746371088063;14.698625591102454;-1.17626953125;0.36328125;-0.01611328125;-104.875;2.8125;-72.8125;
1441975746165702;0.49456787109375;-0.44921875;-0.5587158203125;-0.49139404296875;17.377642407084167;9.42210463631044;14.245527088663026;-1.13037109375;0.244140625;-0.01416015625;-128.5625;8.625;-67.3125;
1441975746195704;0.5125732421875;-0.4320068359375;-0.564697265625;-0.4814453125;17.417645545685023;8.840517909688296;13.810950058112946;-1.14501953125;0.16455078125;-0.03515625;-140.75;12.25;-59.1875;
1441975746204704;0.53021240234375;-0.4139404296875;-0.57232666015625;-0.46905517578125;17.43774740802308;8.303725365269292;13.434690064361106;-1.1328125;0.11572265625;-0.0703125;-149.875;14.25;-48.5625;
1441975746225705;0.54736328125;-0.39508056640625;-0.5811767578125;-0.4544677734375;17.446046159171278;7.831395848040109;13.134206270021737;-1.0537109375;0.06787109375;-0.0888671875;-162.3125;12.3125;-37.0625;
1441975746249707;0.5631103515625;-0.37689208984375;-0.5904541015625;-0.43853759765625;17.453380198541648;7.458801457125194;12.933235290419665;-0.9814453125;4.8828125E-4;-0.1044921875;-173.5625;10.0625;-26.9375;
1441975746264708;0.576904296875;-0.35986328125;-0.59942626953125;-0.42236328125;17.461502633582317;7.17197445502908;12.809696182390747;-0.9140625;0.00146484375;-0.0908203125;-172.5625;9.1875;-16.4375;
1441975746285709;0.58807373046875;-0.3438720703125;-0.60870361328125;-0.40673828125;17.46369205690572;7.013158706726545;12.803593882237806;-0.93896484375;-0.0478515625;-0.06982421875;-163.875;7.1875;-7.5;
1441975746307710;0.595703125;-0.330078125;-0.617431640625;-0.39373779296875;17.454767922035877;6.98341705207563;12.901178832167256;-0.88134765625;-0.0673828125;-0.11767578125;-152.5;-1.6875;0.5;
1441975746331711;0.6002197265625;-0.318359375;-0.6260986328125;-0.38275146484375;17.437486329400073;7.082622751464149;13.106875657332969;-0.90185546875;-0.10888671875;-0.04736328125;-126.8125;-11.5;5.125;
1441975746345712;0.60272216796875;-0.3094482421875;-0.6334228515625;-0.3739013671875;17.42129721920015;7.220189370353846;13.326776935207878;-0.85595703125;-0.1240234375;-0.001953125;-105.3125;-20.4375;11.125;
1441975746367714;0.6033935546875;-0.30230712890625;-0.640869140625;-0.3658447265625;17.40202144081842;7.438401517381742;13.614883188469141;-0.841796875;-0.0791015625;0.009765625;-80.9375;-23.6875;14.5625;
1441975746384715;0.60369873046875;-0.29632568359375;-0.6484375;-0.3568115234375;17.39012003324793;7.701805396529137;13.947068315714835;-0.80712890625;-0.03564453125;0.0224609375;-68.0;-27.6875;18.8125;
1441975746405716;0.60400390625;-0.29107666015625;-0.6556396484375;-0.34735107421875;17.380867514928166;7.970796382917666;14.283061077700793;-0.7958984375;-0.00830078125;0.009765625;-67.0625;-26.5625;25.9375;
1441975746427717;0.60369873046875;-0.2872314453125;-0.66265869140625;-0.33758544921875;17.37143485140951;8.288151481068443;14.66199236454338;-0.8046875;-0.06103515625;0.03759765625;-64.9375;-21.5625;33.125;
1441975746444718;0.6026611328125;-0.28485107421875;-0.669921875;-0.32696533203125;17.3566537166325;8.68123177901584;15.113558795755525;-0.76171875;-0.0888671875;0.06787109375;-58.75;-18.0;42.5625;
1441975746468719;0.60211181640625;-0.28216552734375;-0.6771240234375;-0.31524658203125;17.335344007217657;9.061749796024015;15.55845934290264;-0.6728515625;-0.0751953125;0.13671875;-55.375;-11.875;52.5625;
1441975746487720;0.60223388671875;-0.2791748046875;-0.6842041015625;-0.3021240234375;17.309864260793795;9.433798738687479;16.00213486062575;-0.6455078125;-0.0966796875;0.1796875;-60.75;-5.5;56.875;
1441975746511722;0.60284423828125;-0.276123046875;-0.69085693359375;-0.28826904296875;17.279630422928683;9.78562230158198;16.42864300937509;-0.7109375;-0.1298828125;0.20458984375;-67.3125;0.5;62.5625;
1441975746526723;0.60345458984375;-0.27435302734375;-0.69683837890625;-0.27392578125;17.242784030841634;10.156262038828732;16.86995153360319;-0.7919921875;-0.1865234375;0.22900390625;-69.5;5.5625;69.5;
1441975746547724;0.6038818359375;-0.2735595703125;-0.70220947265625;-0.2596435546875;17.194672237558596;10.513140709421386;17.292399415557647;-0.86767578125;-0.18603515625;0.22314453125;-64.6875;10.0;75.375;
1441975746564725;0.60406494140625;-0.27294921875;-0.7076416015625;-0.2447509765625;17.12937470105227;10.838370263744086;17.684570111119644;-0.9580078125;-0.17138671875;0.21484375;-59.5;11.375;78.5625;
1441975746586726;0.6043701171875;-0.27142333984375;-0.71331787109375;-0.2286376953125;17.050507136988557;11.111123943727836;0.03295448443671897;-0.99755859375;-0.14892578125;0.22021484375;-59.9375;11.375;82.125;
1441975746609727;0.60516357421875;-0.2679443359375;-0.71923828125;-0.21142578125;16.967053783011917;11.312702256137136;0.32291898639389555;-0.94384765625;-0.119140625;0.224609375;-68.75;12.3125;82.9375;
1441975746624728;0.606689453125;-0.26300048828125;-0.72479248046875;-0.19366455078125;16.88859851237762;11.467351741895502;0.5742829916358275;-0.89453125;-0.09228515625;0.248046875;-81.0625;14.4375;79.25;
1441975746646729;0.608642578125;-0.2572021484375;-0.72979736328125;-0.17578125;16.815160955890743;11.59145056243665;0.7988185875628101;-0.873046875;-0.0673828125;0.251953125;-89.375;18.0;73.75;
1441975746667731;0.61102294921875;-0.2506103515625;-0.7340087890625;-0.158447265625;16.752255489303934;11.688148229403826;0.9965660873449607;-0.82275390625;-0.03662109375;0.25634765625;-92.9375;21.8125;68.375;
1441975746684732;0.6138916015625;-0.243408203125;-0.73736572265625;-0.142333984375;16.70433847832923;11.761784550244396;1.16854392836114;-0.7900390625;-0.00830078125;0.248046875;-93.625;24.3125;60.3125;
1441975746706733;0.61688232421875;-0.23565673828125;-0.74005126953125;-0.1278076171875;16.670535053489015;11.810054945519084;1.310547032601487;-0.7822265625;0.01220703125;0.22021484375;-91.125;25.1875;50.5;
1441975746727734;0.61981201171875;-0.22711181640625;-0.74237060546875;-0.11468505859375;16.649265554570153;11.830843961942541;1.422267413499122;-0.7568359375;0.0302734375;0.1923828125;-88.0;23.4375;40.0;
1441975746751735;0.62286376953125;-0.2174072265625;-0.7445068359375;-0.10247802734375;16.640822098295022;11.827073998503858;1.51036551339776;-0.748046875;0.052734375;0.16650390625;-86.0625;20.5;29.6875;
1441975746766736;0.6259765625;-0.20635986328125;-0.74658203125;-0.090576171875;16.642146181471627;11.801928854785835;1.5812175695145945;-0.74267578125;0.04443359375;0.13525390625;-88.0625;17.375;21.8125;
1441975746787738;0.62908935546875;-0.19500732421875;-0.748291015625;-0.07940673828125;16.65143087950559;11.769439653296432;1.6426948414349638;-0.71435546875;0.0107421875;0.11572265625;-92.5;15.75;17.875;
1441975746804739;0.63226318359375;-0.18505859375;-0.74908447265625;-0.07012939453125;16.669166191912588;11.749947717605927;1.7032750977191795;-0.7099609375;0.01416015625;0.11376953125;-90.6875;15.6875;12.5625;
1441975746826740;0.63702392578125;-0.17852783203125;-0.7471923828125;-0.06341552734375;16.70617162081514;11.808579360307624;1.8171376089434472;-0.74462890625;0.083984375;0.1220703125;-77.75;18.0625;4.75;
1441975746847741;0.64471435546875;-0.17498779296875;-0.7420654296875;-0.055419921875;16.748162015233973;12.014055905504279;2.0707273042313235;-0.802734375;0.15283203125;0.16650390625;-51.5625;36.125;-0.75;
1441975746871742;0.655517578125;-0.1689453125;-0.734619140625;-0.0457763671875;16.811765960882667;12.303558727605981;2.425502380931652;-0.8466796875;0.2294921875;0.1201171875;-42.125;60.5;7.1875;
1441975746886743;0.66259765625;-0.1571044921875;-0.73162841796875;-0.0311279296875;16.833995051944704;12.44838619770877;2.6794933854904563;-0.8291015625;0.275390625;-0.21142578125;-61.75;61.5625;-2.5625;
1441975746907744;0.66827392578125;-0.1412353515625;-0.7303466796875;-0.008544921875;16.81087828557805;12.552116828364497;2.9408578142881816;-0.86865234375;0.482421875;-0.19580078125;-105.0;47.6875;4.4375;
1441975746924745;0.67462158203125;-0.127197265625;-0.72698974609375;0.01409912109375;16.776673816971655;12.713862751358574;3.2525339371223763;-0.623046875;0.48095703125;0.001953125;-152.875;45.1875;23.0;
1441975746946747;0.68157958984375;-0.1182861328125;-0.72119140625;0.0367431640625;16.7006878345191;12.949688632744634;3.61700310015781;-0.45556640625;0.4853515625;-0.05126953125;-143.9375;55.625;29.0625;
1441975746967748;0.68768310546875;-0.11187744140625;-0.714599609375;0.06280517578125;16.564129833330476;13.162226086096968;3.9618038176464094;-0.28271484375;0.49365234375;-0.2119140625;-121.25;64.5625;48.375;
1441975746984749;0.69219970703125;-0.10650634765625;-0.7076416015625;0.0936279296875;16.368016986217643;13.305751703042949;4.253041572593824;-0.037109375;0.419921875;-0.2265625;-123.625;66.1875;73.0;
1441975747006750;0.696044921875;-0.10186767578125;-0.69915771484375;0.12774658203125;16.13102118532767;13.408034101360595;4.514296952171367;0.26708984375;0.4501953125;-0.14013671875;-138.5;65.25;96.0625;
1441975747027751;0.70123291015625;-0.09686279296875;-0.6885986328125;0.1572265625;15.927324384875769;13.517984230856625;4.766677460724989;0.42041015625;0.67822265625;-0.166015625;-148.0625;69.375;108.9375;
1441975747058753;0.70538330078125;-0.08819580078125;-0.67864990234375;0.18475341796875;15.763630797239419;13.58015344802312;4.979233062630158;0.1181640625;0.8994140625;-0.521484375;-131.0;74.75;87.8125;
1441975747066754;0.708984375;-0.0772705078125;-0.6680908203125;0.212158203125;15.614297041153456;13.622385716841837;5.181826449258373;-0.404296875;0.6962890625;-0.625;-139.5;69.5625;72.375;
1441975747087755;0.71221923828125;-0.0621337890625;-0.65911865234375;0.2333984375;15.548375440578193;13.65336766765759;5.365241575576706;-0.77392578125;0.72119140625;-0.6025390625;-148.25;72.625;65.875;
1441975747110756;0.71563720703125;-0.046142578125;-0.6500244140625;0.25146484375;15.511139893442378;13.69413985454219;5.5491571936723005;-0.958984375;0.53955078125;-0.7080078125;-141.3125;65.8125;28.25;
1441975747126757;0.718017578125;-0.02557373046875;-0.641845703125;0.26806640625;15.522712615060215;13.721576070870329;5.732654690192659;-1.0009765625;0.3193359375;-0.8779296875;-132.25;64.4375;16.4375;
1441975747147758;0.71990966796875;-0.00244140625;-0.6346435546875;0.281005859375;15.58375320324674;13.756068037732888;5.918156595444458;-1.10595703125;0.31396484375;-0.9658203125;-146.1875;62.0;-7.75;
1441975747164759;0.7215576171875;0.02545166015625;-0.62548828125;0.2957763671875;15.659158092031902;13.807585627131742;6.148859182214998;-1.19140625;0.287109375;-0.837890625;-140.1875;61.8125;-32.75;
1441975747186760;0.72216796875;0.05694580078125;-0.614013671875;0.313232421875;15.731095003378016;13.869752079080978;6.4182478824843106;-1.31884765625;0.2490234375;-0.81591796875;-164.875;77.0625;-41.125;
1441975747207762;0.7198486328125;0.08843994140625;-0.60321044921875;0.33184814453125;15.799439920109947;13.898999419330986;6.661316704340296;-1.416015625;0.11669921875;-0.990234375;-192.5;86.1875;-40.125;
1441975747230763;0.71783447265625;0.1142578125;-0.59228515625;0.34765625;15.83979140420032;13.9427651392344;6.884897456824061;-1.4130859375;-0.23876953125;-0.87841796875;-201.375;74.5625;-33.0625;
1441975747246764;0.7183837890625;0.13079833984375;-0.58209228515625;0.357666015625;15.842725168914601;14.020454468256151;7.079093708409538;-1.36962890625;-0.50732421875;-0.791015625;-169.125;68.25;-14.75;
1441975747268765;0.72406005859375;0.1456298828125;-0.57012939453125;0.3597412109375;15.850616243027243;14.21915781617059;7.352184354621741;-1.197265625;-0.68115234375;-0.68017578125;-108.0;61.0;5.0625;
1441975747290766;0.7301025390625;0.15802001953125;-0.5587158203125;0.36029052734375;15.839007742215664;14.418354669125709;7.609154067762658;-1.0927734375;-0.328125;-0.65576171875;-73.0625;61.875;24.0625;
1441975747306767;0.73455810546875;0.171875;-0.550537109375;0.357421875;15.870229402472322;14.618898238068427;7.857445505143844;-1.38134765625;-0.27685546875;-0.71240234375;-58.8125;57.0;32.0625;
1441975747327768;0.7415771484375;0.18328857421875;-0.54168701171875;0.35064697265625;15.875333237354194;14.873557714950492;8.13266045403687;-1.5751953125;-0.501953125;-0.64892578125;-50.5625;52.5625;24.8125;
1441975747350770;0.751708984375;0.1932373046875;-0.5284423828125;0.3438720703125;15.804141709361692;15.161585438140822;8.43771719215986;-1.10205078125;-0.2978515625;-0.3984375;-13.6875;76.3125;0.375;
1441975747366771;0.7642822265625;0.208251953125;-0.51336669921875;0.330078125;15.724974459361878;15.562717244280435;8.847501943471755;-0.580078125;0.45556640625;0.0185546875;6.0625;117.25;-30.5;
1441975747387772;0.77410888671875;0.22357177734375;-0.49591064453125;0.32366943359375;15.586422542761618;15.845004764253488;9.17608693922418;-0.31201171875;0.20263671875;-0.18359375;21.75;146.25;-64.3125;
1441975747410773;0.78411865234375;0.22650146484375;-0.47772216796875;0.32489013671875;15.369299739333947;15.929664631414333;9.290072224696342;-0.99951171875;0.16455078125;-0.81982421875;-22.375;134.375;-39.0;
1441975747426774;0.79388427734375;0.22418212890625;-0.4532470703125;0.33770751953125;15.058402203207297;15.865719533789207;9.291093576067482;-0.74462890625;0.38330078125;-0.62744140625;-19.25;107.4375;34.9375;
1441975747449775;0.80364990234375;0.22540283203125;-0.43505859375;0.33770751953125;14.837797261017172;15.930422498966195;9.375051945852135;0.25341796875;0.828125;-0.24853515625;-51.0;94.125;48.0625;
1441975747470777;0.81396484375;0.22491455078125;-0.41790771484375;0.3348388671875;14.620537805078529;16.002575158713057;9.446243391808327;0.6787109375;1.3427734375;-0.5966796875;-7.5625;110.375;42.125;
1441975747486778;0.8297119140625;0.2152099609375;-0.388427734375;0.3380126953125;14.220043038355879;16.00117829797978;9.44371336898636;-0.59814453125;0.89111328125;-0.62548828125;14.6875;102.8125;32.4375;
1441975747509779;0.83990478515625;0.2135009765625;-0.35009765625;0.35546875;13.77246773878559;15.914122590029617;9.469484767137978;-2.96337890625;0.4619140625;-1.04296875;0.625;152.6875;129.8125;
1441975747530780;0.84124755859375;0.2232666015625;-0.3001708984375;0.3902587890625;13.279159000034236;15.729484959857118;9.555338433186426;-2.1298828125;0.65185546875;-1.06787109375;-109.375;185.0;142.0625;
1441975747546781;0.833740234375;0.22900390625;-0.23992919921875;0.44134521484375;12.703241011815956;15.417234442563647;9.61510774823745;-1.84033203125;0.52783203125;-1.541015625;-245.625;220.875;126.4375;
1441975747569782;0.8182373046875;0.2099609375;-0.2161865234375;0.489501953125;12.401205301952338;15.051392973022969;9.457993618748018;-3.1201171875;-0.125;-1.34326171875;-351.1875;225.625;185.5625;
1441975747590783;0.834716796875;0.1844482421875;-0.18707275390625;0.48388671875;11.939652746859274;15.099925603564703;9.418726449788329;-2.19970703125;0.55810546875;1.41845703125;-274.625;-19.4375;197.375;
1441975747614785;0.851806640625;0.17840576171875;-0.17352294921875;0.46087646484375;11.739347099673502;15.27238232770941;9.466692915541744;-0.34716796875;0.48388671875;0.13720703125;74.3125;96.4375;214.8125;
1441975747629786;0.84832763671875;0.1800537109375;-0.18609619140625;0.46173095703125;11.88199622318899;15.25705738130558;9.43871632098794;-1.29833984375;0.73779296875;-0.29638671875;152.75;99.5625;70.375;
1441975747654787;0.8416748046875;0.19403076171875;-0.18804931640625;0.4674072265625;11.986691396372507;15.229430318524312;9.500875562419578;-1.20068359375;1.45751953125;0.14892578125;58.375;-13.3125;-32.125;
1441975747675788;0.8323974609375;0.2177734375;-0.1917724609375;0.47210693359375;12.166157797215536;15.219115913427178;9.61553482636323;-0.58642578125;0.69189453125;-0.36083984375;-52.5625;22.1875;-68.9375;
1441975747696790;0.82659912109375;0.24151611328125;-0.1971435546875;0.46844482421875;12.352118622392425;15.271691435089549;9.745804836688393;-0.7763671875;0.849609375;-0.2099609375;-64.1875;34.8125;-128.1875;
1441975747718791;0.8236083984375;0.2623291015625;-0.19891357421875;0.4617919921875;12.47471733685723;15.34934263140699;9.879847136617501;-0.74072265625;0.84619140625;-0.4541015625;-15.5625;38.4375;-138.3125;
1441975747726791;0.81695556640625;0.28204345703125;-0.1993408203125;0.4617919921875;12.588945448589508;15.378618615514942;9.998688131176893;-0.94287109375;0.7861328125;-0.64306640625;1.75;55.0;-112.25;
1441975747749793;0.80828857421875;0.299560546875;-0.1947021484375;0.46795654296875;12.652246796853857;15.36145231551098;10.103876981241015;-1.0283203125;0.919921875;-0.578125;-33.375;54.625;-95.8125;
1441975747770794;0.7955322265625;0.318115234375;-0.1903076171875;0.4791259765625;12.742474647580616;15.307009405992176;10.203229964163999;-0.78173828125;0.8251953125;-0.732421875;-84.1875;44.4375;-75.875;
1441975747786795;0.783203125;0.33477783203125;-0.19000244140625;0.48822021484375;12.864895150272547;15.263874902182287;10.285851195492564;-0.87744140625;0.62451171875;-0.6748046875;-116.625;36.5625;-80.375;
1441975747809796;0.7734375;0.34844970703125;-0.189453125;0.49432373046875;12.961579281969112;15.239043856379173;10.358459056260056;-0.9453125;0.5439453125;-0.4677734375;-97.4375;26.9375;-69.4375;
1441975747830797;0.7642822265625;0.36102294921875;-0.1866455078125;0.5006103515625;13.030228204218028;15.211756203862329;10.429720942419008;-0.88330078125;0.65185546875;-0.40576171875;-68.5625;27.6875;-62.0625;
1441975747846798;0.75372314453125;0.37347412109375;-0.18292236328125;0.5087890625;13.098373898315263;15.168804968424116;10.497551197837511;-0.86572265625;0.86669921875;-0.41943359375;-65.5625;32.375;-60.3125;
1441975747869799;0.74249267578125;0.3857421875;-0.1788330078125;0.51751708984375;13.167379773553206;15.120438421771636;10.56370798584815;-0.83203125;0.75927734375;-0.3828125;-81.5;30.5625;-55.0625;
1441975747893801;0.73052978515625;0.39801025390625;-0.1754150390625;0.5263671875;13.248100529803535;15.070177599802278;10.62787648097859;-0.7734375;0.72705078125;-0.34814453125;-87.0625;28.4375;-55.9375;
1441975747914802;0.71697998046875;0.41204833984375;-0.169189453125;0.5361328125;13.319625258999363;15.01503302080896;10.70865234418743;-0.6884765625;0.71923828125;-0.24267578125;-84.5;26.0;-63.3125;
1441975747929803;0.70123291015625;0.42626953125;-0.159423828125;0.5487060546875;13.374340275410436;14.93513451270427;10.791498856649277;-0.677734375;0.7001953125;-0.2099609375;-108.125;34.1875;-62.1875;
1441975747958805;0.6851806640625;0.43994140625;-0.1478271484375;0.56121826171875;13.414642933099785;14.852187305341094;10.875996360708923;-0.70361328125;0.58349609375;-0.16357421875;-135.1875;41.4375;-52.75;
1441975747967805;0.66827392578125;0.45281982421875;-0.13531494140625;0.57440185546875;13.451835329949162;14.75925365927406;10.95566947201455;-0.70166015625;0.6201171875;-0.18798828125;-140.3125;45.9375;-46.0;
1441975747996807;0.65130615234375;0.46478271484375;-0.12188720703125;0.58721923828125;13.480507048212992;14.66466320833608;11.033173846758338;-0.673828125;0.5908203125;-0.19677734375;-147.625;43.875;-41.5625;
1441975748012808;0.635009765625;0.47528076171875;-0.10931396484375;0.5989990234375;13.509695298889206;14.573668056300612;11.10202040836927;-0.6279296875;0.59765625;-0.248046875;-149.1875;44.4375;-36.0625;
1441975748025808;0.62103271484375;0.4830322265625;-0.09698486328125;0.6094970703125;13.518204039302255;14.487289771560722;11.155971210037297;-0.5888671875;0.43896484375;-0.18408203125;-139.5625;39.875;-30.6875;
1441975748048810;0.6094970703125;0.489013671875;-0.0841064453125;0.61822509765625;13.501071508323506;14.412366887962655;11.205955658184902;-0.5556640625;0.43310546875;-0.08740234375;-123.875;35.625;-16.4375;
1441975748070811;0.5980224609375;0.4949951171875;-0.07232666015625;0.6260986328125;13.494446357173745;14.343680502755054;11.255982612850488;-0.5166015625;0.544921875;-0.1025390625;-109.3125;36.625;-4.1875;
1441975748085812;0.585205078125;0.500732421875;-0.0601806640625;0.6348876953125;13.493652320361685;14.26382147093472;11.302815613868908;-0.56298828125;0.57958984375;-0.11279296875;-103.5;35.1875;-8.0;
1441975748108813;0.572265625;0.5054931640625;-0.04931640625;0.643798828125;13.502152205677746;14.179613736308605;11.338988198625405;-0.630859375;0.70166015625;-0.08251953125;-111.5625;33.1875;-9.9375;
1441975748130814;0.5599365234375;0.5089111328125;-0.04046630859375;0.6524658203125;13.519462107248184;14.094489411135136;11.360706133511838;-0.6044921875;0.6142578125;-0.10888671875;-109.5;24.0625;-11.1875;
1441975748145815;0.54937744140625;0.51104736328125;-0.03448486328125;0.66009521484375;13.54502516683701;14.01768932411419;11.367876797857463;-0.57470703125;0.4892578125;-0.06884765625;-100.3125;13.625;-10.625;
1441975748175817;0.5411376953125;0.51220703125;-0.0313720703125;0.66607666015625;13.575924065847857;13.955913994332278;11.364474218394639;-0.57568359375;0.47900390625;-0.0380859375;-79.625;5.6875;-9.8125;
1441975748190818;0.535400390625;0.511474609375;-0.03125;0.67132568359375;13.607563062900745;13.900282928710713;11.34048998794567;-0.57275390625;0.482421875;-0.03076171875;-56.9375;-2.125;-11.5625;
1441975748206819;0.5286865234375;0.51068115234375;-0.02996826171875;0.67724609375;13.63441169414122;13.835895961779908;11.31724401252139;-0.56640625;0.51611328125;-0.0517578125;-37.4375;-17.625;-12.0;
1441975748229820;0.51971435546875;0.5126953125;-0.02679443359375;0.68280029296875;13.672444836858975;13.776382684176902;11.319679378168253;-0.51513671875;0.5693359375;-0.03271484375;-45.9375;-16.625;-15.4375;
1441975748252821;0.507568359375;0.51708984375;-0.020263671875;0.68878173828125;13.713957452875542;13.711550073356147;11.347562670731254;-0.54296875;0.5947265625;-0.0654296875;-61.4375;-1.0625;-23.5;
1441975748265822;0.49212646484375;0.52252197265625;-0.0108642578125;0.69610595703125;13.758076304446558;13.62974320036325;11.38689624098124;-0.57177734375;0.61328125;-0.0625;-86.3125;15.75;-26.4375;
1441975748288823;0.4755859375;0.52838134765625;-6.7138671875E-4;0.70318603515625;13.806114432530341;13.5467222690404;11.432532294651114;-0.50634765625;0.572265625;-0.0078125;-110.5;25.5625;-25.25;
1441975748318825;0.4595947265625;0.5352783203125;0.00738525390625;0.7086181640625;13.875255504743452;13.480688857253368;11.482852253731313;-0.44482421875;0.583984375;0.0615234375;-116.1875;30.625;-27.375;
1441975748325826;0.444580078125;0.54296875;0.0152587890625;0.712158203125;13.945464304871695;13.4341637994429;11.545817623984735;-0.3740234375;0.62548828125;0.02001953125;-103.4375;33.25;-38.75;
1441975748348827;0.4248046875;0.5523681640625;0.0196533203125;0.7169189453125;14.083805383274733;13.369345689614637;11.599058189308188;-0.36181640625;0.7236328125;-0.0439453125;-97.1875;38.8125;-56.4375;
1441975748370828;0.40179443359375;0.562255859375;0.02496337890625;0.7222900390625;14.239583856087064;13.289669819496437;11.654725658545217;-0.3974609375;0.72705078125;-0.0498046875;-106.6875;35.75;-73.375;
1441975748385829;0.3765869140625;0.57244873046875;0.03009033203125;0.72760009765625;14.414559917677153;13.2020769126788;11.709688628467772;-0.38916015625;0.68115234375;-0.046875;-124.125;37.875;-80.875;
1441975748408830;0.35101318359375;0.58349609375;0.0338134765625;0.73150634765625;14.60975348451011;13.126204220702721;11.770044676755099;-0.37939453125;0.55517578125;-0.00927734375;-132.625;39.8125;-88.125;
1441975748438832;0.32623291015625;0.595703125;0.03582763671875;0.7330322265625;14.82159528521131;13.07784484250785;11.844987923215658;-0.359375;0.4150390625;0.00634765625;-125.875;45.1875;-95.625;
1441975748445832;0.30108642578125;0.609375;0.0352783203125;0.73260498046875;15.065283686765294;13.054146534645465;11.93378124360487;-0.3525390625;0.4482421875;0.02490234375;-111.875;54.6875;-102.75;
1441975748468834;0.27294921875;0.62353515625;0.0328369140625;0.7318115234375;15.347800968856419;13.027380373932031;12.022755846806989;-0.39404296875;0.5556640625;-0.03173828125;-101.0625;62.125;-118.5625;
1441975748490835;0.2401123046875;0.6375732421875;0.02911376953125;0.73138427734375;15.673830875878503;12.977567644181558;12.101358220952923;-0.52880859375;0.67578125;-0.08740234375;-107.25;61.625;-139.3125;
1441975748507836;0.20281982421875;0.6510009765625;0.02459716796875;0.73095703125;16.036959729625114;12.89888470285544;12.164032174207263;-0.76123046875;0.7236328125;-0.1591796875;-123.25;57.0;-161.3125;
1441975748528837;0.16387939453125;0.66156005859375;0.02069091796875;0.73138427734375;16.395673543665332;12.757358044843608;12.170444435997377;-1.11181640625;0.62841796875;-0.27783203125;-139.6875;52.0625;-177.4375;
1441975748552839;0.1239013671875;0.66876220703125;0.019287109375;0.7327880859375;16.72640444896876;12.50886109932944;12.08198658989406;-1.2919921875;0.38427734375;-0.37255859375;-150.125;35.9375;-174.3125;
1441975748567839;0.08258056640625;0.673583984375;0.022705078125;0.73406982421875;17.01486826164117;12.127929519283628;11.884364942945327;-1.224609375;0.16015625;-0.37451171875;-164.6875;20.5625;-162.5;
1441975748588841;0.0390625;0.6768798828125;0.0321044921875;0.7342529296875;17.25871899183636;11.570381052010127;11.542129901791334;-1.2041015625;0.03466796875;-0.37939453125;-188.25;14.3125;-145.1875;
1441975748610842;-0.00384521484375;0.67840576171875;0.04620361328125;0.733154296875;17.438855094939026;10.784905686951902;10.987970787977178;-1.19384765625;-0.16650390625;-0.3583984375;-220.0;15.5625;-124.6875;
1441975748627843;-0.04217529296875;0.67816162109375;0.0625;0.73095703125;17.541453192660658;9.84034467440944;10.265181665241332;-1.13330078125;-0.35498046875;-0.26708984375;-234.6875;15.75;-99.75;
1441975748648844;-0.07379150390625;0.67694091796875;0.0794677734375;0.72796630859375;17.583895635087654;9.006100947517611;9.628670436331406;-1.0703125;-0.40673828125;-0.14794921875;-224.125;13.625;-72.75;
1441975748670845;-0.099853515625;0.67529296875;0.0972900390625;0.72418212890625;17.6032145979752;8.449000109641464;9.250847457588621;-1.06298828125;-0.302734375;-0.08251953125;-199.3125;11.3125;-45.6875;
1441975748694847;-0.12176513671875;0.6728515625;0.1151123046875;0.720458984375;17.6103952189901;8.119808407815267;9.084671484732205;-1.08056640625;-0.1826171875;-0.10888671875;-180.25;8.875;-22.8125;
1441975748708847;-0.13836669921875;0.669921875;0.1312255859375;0.71746826171875;17.61032743737475;8.023099406984358;9.122745083200869;-1.0615234375;-0.125;-0.09033203125;-163.1875;3.75;-8.5;
1441975748730849;-0.15008544921875;0.66748046875;0.14593505859375;0.71453857421875;17.617128334253653;8.143498609204693;9.35247316547215;-1.00390625;-0.03662109375;-0.06591796875;-134.625;-3.0625;2.9375;
1441975748747850;-0.15997314453125;0.6650390625;0.16107177734375;0.71136474609375;17.624429567395936;8.411454721615117;9.724399132190925;-0.97607421875;0.091796875;-0.087890625;-109.0625;-4.5625;13.8125;
1441975748768851;-0.17034912109375;0.662109375;0.177978515625;0.70770263671875;17.62534774082027;8.761617811742196;10.18834541219133;-0.978515625;0.15380859375;-0.1494140625;-103.1875;-6.125;21.875;
1441975748790852;-0.1805419921875;0.658447265625;0.1959228515625;0.70379638671875;17.611882582133198;9.164334204781655;10.709182375093134;-0.9638671875;0.13134765625;-0.16845703125;-112.9375;-8.125;27.8125;
1441975748807853;-0.1904296875;0.65447998046875;0.21435546875;0.69952392578125;17.58661054056749;9.566571695621741;11.230997303467824;-0.91943359375;0.119140625;-0.1513671875;-117.25;-10.6875;32.5625;
1441975748828854;-0.2008056640625;0.650146484375;0.23345947265625;0.694580078125;17.55307199154866;9.92072439605313;11.710455437908356;-0.87060546875;0.14453125;-0.140625;-118.5;-11.5;35.25;
1441975748850856;-0.21148681640625;0.64544677734375;0.2525634765625;0.6890869140625;17.5142304947424;10.204648522894356;12.122030967082823;-0.8466796875;0.14599609375;-0.1591796875;-124.3125;-10.8125;37.0625;
1441975748867857;-0.22149658203125;0.6405029296875;0.27081298828125;0.68359375;17.4691408881186;10.422936535309232;12.462489588843477;-0.89501953125;0.12744140625;-0.17236328125;-126.5625;-10.125;36.6875;
1441975748888858;-0.23028564453125;0.63531494140625;0.28802490234375;0.678466796875;17.41565249219345;10.584850233401978;12.7378629189892;-0.98388671875;0.1083984375;-0.18896484375;-121.1875;-11.625;35.9375;
1441975748910859;-0.23828125;0.62982177734375;0.30413818359375;0.67376708984375;17.358112524803467;10.684669130545403;12.94387400883778;-1.0302734375;0.12841796875;-0.19775390625;-112.5;-14.6875;35.0;
1441975748933860;-0.24566650390625;0.62640380859375;0.318115234375;0.66778564453125;17.323507757533864;10.836317698159677;13.190233928590779;-1.0419921875;0.130859375;-0.2119140625;-105.5;-17.4375;33.25;
1441975748955862;-0.25250244140625;0.62274169921875;0.33087158203125;0.66241455078125;17.28773782400065;10.936761941952293;13.37824552834152;-1.03564453125;0.09521484375;-0.2216796875;-94.75;-20.375;31.75;
1441975748972863;-0.258544921875;0.6192626953125;0.3427734375;0.6573486328125;17.25042069899222;11.02235290188219;13.544522906424305;-1.0205078125;0.06787109375;-0.20849609375;-87.75;-21.875;30.0625;
1441975749001864;-0.2637939453125;0.61578369140625;0.35357666015625;0.6527099609375;17.212688664426874;11.084569117513562;13.679768616315041;-1.00830078125;0.0703125;-0.19970703125;-80.8125;-22.0;29.6875;
1441975749008865;-0.26898193359375;0.61181640625;0.36370849609375;0.6488037109375;17.175255750010077;11.100980583169395;13.766134281222815;-1.03125;0.0546875;-0.1923828125;-73.4375;-23.0625;28.75;
1441975749030866;-0.2733154296875;0.60723876953125;0.37396240234375;0.6455078125;17.126650894092077;11.092843156166156;13.82532409145367;-1.07958984375;-0.02099609375;-0.17578125;-70.25;-26.3125;30.5625;
1441975749046867;-0.2767333984375;0.60260009765625;0.3841552734375;0.642333984375;17.070866267396468;11.08695511684843;13.883170220820482;-1.0732421875;-0.0693359375;-0.1435546875;-66.9375;-30.625;35.4375;
1441975749068868;-0.27935791015625;0.59832763671875;0.393798828125;0.639404296875;17.013537099641262;11.085755374513298;13.939769194605333;-1.0546875;-0.07958984375;-0.1015625;-63.0;-30.5625;38.9375;
1441975749090869;-0.28070068359375;0.59429931640625;0.40325927734375;0.63665771484375;16.94777531637065;11.093798613094565;13.999596706827562;-1.05615234375;-0.12109375;-0.0673828125;-56.6875;-29.1875;43.0625;
1441975749113871;-0.280029296875;0.59130859375;0.41217041015625;0.634033203125;16.87285776548181;11.13101994551442;14.077245065965275;-1.015625;-0.1435546875;-0.0146484375;-49.5;-28.1875;48.6875;
1441975749128871;-0.27777099609375;0.58905029296875;0.42022705078125;0.6318359375;16.79249517662941;11.176276089658405;14.151997945374807;-0.982421875;-0.12890625;0.0107421875;-37.6875;-26.75;54.0;
1441975749152873;-0.27447509765625;0.5867919921875;0.428466796875;0.62982177734375;16.701603096497685;11.218468974424752;14.220339239536512;-0.95751953125;-0.130859375;0.02001953125;-26.4375;-27.9375;57.0625;
1441975749181874;-0.27020263671875;0.58489990234375;0.4371337890625;0.62744140625;16.600594628319197;11.272076442882558;14.298204380747123;-0.91650390625;-0.1162109375;0.05224609375;-22.5;-29.0625;60.5;
1441975749188875;-0.26568603515625;0.5833740234375;0.44525146484375;0.62506103515625;16.501949717873295;11.323059458513947;14.369942754680473;-0.87158203125;-0.06201171875;0.1025390625;-20.375;-26.3125;63.0625;
1441975749210876;-0.261474609375;0.5819091796875;0.45306396484375;0.6226806640625;16.407687221247265;11.365536152670886;14.433093086710052;-0.87744140625;0.005859375;0.140625;-16.8125;-22.9375;59.0625;
1441975749233877;-0.25823974609375;0.58050537109375;0.460693359375;0.61968994140625;16.32306651632482;11.406188127857497;14.498405607802669;-0.9267578125;0.09814453125;0.1884765625;-16.9375;-19.3125;52.4375;
1441975749249878;-0.2567138671875;0.57879638671875;0.4681396484375;0.6163330078125;16.253239901047237;11.43477549978746;14.558483074471098;-0.97314453125;0.18896484375;0.22021484375;-21.375;-13.0625;45.5;
1441975749271880;-0.2568359375;0.57684326171875;0.47467041015625;0.6131591796875;16.203196392549003;11.447780907105088;14.60572654322928;-0.9912109375;0.2294921875;0.26806640625;-27.875;-5.9375;38.1875;
1441975749293881;-0.2579345703125;0.57513427734375;0.47979736328125;0.6102294921875;16.172089802923708;11.455719608496992;14.645398976573942;-0.97802734375;0.21435546875;0.31201171875;-30.0;1.3125;30.0;
1441975749308882;-0.2596435546875;0.57403564453125;0.4837646484375;0.607421875;16.155920957225625;11.467395407410171;14.685327738252827;-0.92041015625;0.201171875;0.3583984375;-26.875;9.6875;21.375;
1441975749338883;-0.263671875;0.57269287109375;0.487548828125;0.60394287109375;16.160436114756813;11.47487820033211;14.730489557888601;-0.853515625;0.236328125;0.3671875;-23.25;16.5;12.9375;
1441975749353884;-0.27081298828125;0.5699462890625;0.49249267578125;0.59930419921875;16.180345401609266;11.465942085417241;14.779657414643552;-0.810546875;0.25244140625;0.337890625;-33.5;23.0625;4.3125;
1441975749368885;-0.2808837890625;0.56585693359375;0.49835205078125;0.59375;16.21624311610068;11.439528795045383;14.82957072617387;-0.78369140625;0.24658203125;0.326171875;-53.875;28.5625;-1.125;
1441975749391887;-0.2926025390625;0.5611572265625;0.50372314453125;0.58795166015625;16.268970145501434;11.402261411625332;14.874434517725973;-0.77490234375;0.20703125;0.30419921875;-71.6875;32.9375;-4.75;
1441975749414888;-0.304931640625;0.55645751953125;0.50799560546875;0.58245849609375;16.33527598866069;11.359257556815379;14.911078822269094;-0.814453125;0.1845703125;0.2734375;-78.4375;34.625;-10.8125;
1441975749428889;-0.31695556640625;0.55206298828125;0.5115966796875;0.5770263671875;16.404727057131783;11.320971322058913;14.948180785395966;-0.85888671875;0.17236328125;0.2548828125;-76.875;35.4375;-16.0625;
1441975749450890;-0.32891845703125;0.5479736328125;0.51434326171875;0.57177734375;16.480709520502266;11.285103226456624;14.983369315977772;-0.87841796875;0.17919921875;0.240234375;-72.75;35.9375;-18.3125;
1441975749473891;-0.3409423828125;0.5439453125;0.5164794921875;0.56658935546875;16.562016149176493;11.248924793319866;15.016026908089927;-0.88916015625;0.17626953125;0.22265625;-69.0625;36.875;-20.875;
1441975749489892;-0.3531494140625;0.5394287109375;0.518798828125;0.56134033203125;16.642874336923036;11.204057579529746;15.042425070273069;-0.90869140625;0.1533203125;0.19970703125;-67.25;36.8125;-22.3125;
1441975749526894;-0.36541748046875;0.53466796875;0.5211181640625;0.5557861328125;16.724107128586933;11.158246627403287;15.069346509307653;-0.90576171875;0.1318359375;0.20654296875;-69.75;36.5625;-22.8125;
1441975749533895;-0.37786865234375;0.529541015625;0.523681640625;0.54998779296875;16.804730596678212;11.107565601119367;15.094203203841527;-0.88427734375;0.1103515625;0.19287109375;-71.25;36.875;-21.8125;
1441975749549896;-0.3900146484375;0.52398681640625;0.52691650390625;0.54364013671875;16.877459508028902;11.058646918619145;15.124409416048069;-0.88671875;0.0791015625;0.18359375;-74.0625;36.25;-20.3125;
1441975749570897;-0.4012451171875;0.51873779296875;0.53070068359375;0.53680419921875;16.93930274752811;11.030688712201155;15.174840862180275;-0.87548828125;0.05615234375;0.17822265625;-77.375;34.5;-15.625;
1441975749586898;-0.4122314453125;0.51422119140625;0.5338134765625;0.5296630859375;17.005607328551942;11.028826974720289;15.247346030228;-0.859375;0.06396484375;0.177734375;-76.6875;33.5625;-10.1875;
1441975749609899;-0.42236328125;0.5106201171875;0.53607177734375;0.52288818359375;17.07223491276788;11.050025818088487;15.334189104730111;-0.90185546875;0.05810546875;0.14501953125;-72.625;35.3125;-8.8125;
1441975749630900;-0.43084716796875;0.5076904296875;0.5384521484375;0.516357421875;17.124389235117153;11.098417428208958;15.44109051439101;-0.994140625;0.037109375;0.10498046875;-64.0;33.625;-6.0625;
1441975749653901;-0.4376220703125;0.50555419921875;0.5408935546875;0.51019287109375;17.161599020506475;11.174885299883483;15.56793063933153;-1.0166015625;0.01953125;0.10205078125;-56.6875;29.375;1.125;
1441975749669902;-0.44293212890625;0.5042724609375;0.5430908203125;0.5045166015625;17.18773249975949;11.275710427676355;15.710323535507696;-1.02001953125;0.0234375;0.09619140625;-48.125;25.625;6.75;
1441975749692904;-0.44732666015625;0.50341796875;0.5450439453125;0.499267578125;17.206813899907207;11.386415940214837;15.856792847062053;-1.04052734375;0.03564453125;0.091796875;-39.8125;22.75;10.25;
1441975749713905;-0.45074462890625;0.50262451171875;0.547119140625;0.4947509765625;17.215847172730808;11.482825745131597;15.98422790550772;-1.0556640625;0.02880859375;0.06201171875;-34.125;18.9375;12.8125;
1441975749729906;-0.45281982421875;0.5023193359375;0.54962158203125;0.4903564453125;17.20899726923082;11.588226125973922;16.11627082589667;-1.07470703125;0.00439453125;0.06494140625;-29.4375;14.0625;15.75;
1441975749750907;-0.45391845703125;0.5025634765625;0.552490234375;0.48590087890625;17.189263360082766;11.70396085098529;16.255498315393808;-1.0361328125;0.02294921875;0.07568359375;-24.9375;10.8125;20.3125;
1441975749773908;-0.45477294921875;0.50274658203125;0.55560302734375;0.48126220703125;17.163856990077974;11.813548685673679;16.38929337536226;-0.97802734375;0.04736328125;0.07080078125;-22.0625;8.625;24.0625;
1441975749789909;-0.45526123046875;0.503173828125;0.55938720703125;0.4759521484375;17.12703583467181;11.9315117242278;16.533583039796245;-0.96728515625;0.03662109375;0.0693359375;-22.375;8.0;26.9375;
1441975749810910;-0.45526123046875;0.50390625;0.56378173828125;0.47003173828125;17.07781962646766;12.051959105353788;16.6816083079071;-0.96630859375;0.05517578125;0.0693359375;-24.375;7.625;31.875;
1441975749840912;-0.4556884765625;0.503662109375;0.56866455078125;0.46392822265625;17.028411248817743;12.137229870711797;16.800456549669537;-0.982421875;0.10595703125;0.0595703125;-25.8125;6.0625;35.25;
1441975749857913;-0.45703125;0.501220703125;0.57489013671875;0.45751953125;16.9800860208299;12.161951102817184;16.872488332027704;-1.05224609375;0.11962890625;0.01171875;-32.4375;0.9375;34.0;
1441975749870914;-0.45819091796875;0.49896240234375;0.58087158203125;0.45123291015625;16.93176844905143;12.185042702903829;16.94083315792305;-1.12109375;0.08642578125;0.015625;-46.6875;-5.1875;33.625;
1441975749893915;-0.45819091796875;0.49774169921875;0.58563232421875;0.44647216796875;16.88516651804739;12.202324763824793;16.98916186889438;-1.14453125;0.02197265625;0.0146484375;-43.875;-5.4375;39.0625;
1441975749909916;-0.45635986328125;0.4984130859375;0.5892333984375;0.44281005859375;16.83082580161504;12.235029091616905;17.035735067160445;-1.13671875;-0.0087890625;0.0302734375;-30.0;-6.375;39.375;
1441975749930917;-0.45355224609375;0.49932861328125;0.59228515625;0.4405517578125;16.776774877036615;12.245324714305571;17.050762820254747;-1.09716796875;0.03369140625;0.04345703125;-12.375;-7.375;40.5;
1441975749953919;-0.45098876953125;0.499755859375;0.5953369140625;0.4385986328125;16.72706948298318;12.242369145046455;17.053764475028167;-1.08154296875;0.0986328125;0.03662109375;-4.8125;-13.0625;33.5625;
1441975749969920;-0.4482421875;0.50067138671875;0.5977783203125;0.43707275390625;16.680359256432457;12.245808541498379;17.058226109124444;-1.05810546875;0.07958984375;0.04345703125;-5.75;-14.125;31.9375;
1441975749990921;-0.44390869140625;0.50457763671875;0.59844970703125;0.43597412109375;16.62656332247609;12.29990940360531;17.093819521305143;-1.02392578125;0.0380859375;0.08154296875;0.125;-10.375;34.0;
1441975750013922;-0.43865966796875;0.5093994140625;0.5989990234375;0.43499755859375;16.563930950793413;12.35993196762205;17.129327258528946;-0.9951171875;0.052734375;0.03564453125;19.5;-7.9375;39.25;
1441975750029923;-0.4339599609375;0.51361083984375;0.600341796875;0.43292236328125;16.497321442207383;12.416723089020978;17.170428257559372;-0.96337890625;0.119140625;0.02880859375;25.1875;-9.0625;39.375;
1441975750051924;-0.4306640625;0.51702880859375;0.60223388671875;0.429443359375;16.434177395769986;12.477196381867063;17.22720971688785;-0.91552734375;0.1982421875;0.021484375;16.0625;-8.0;37.0625;
1441975750073926;-0.4293212890625;0.51849365234375;0.60455322265625;0.42578125;16.3882683854573;12.514458888086395;17.273800926599375;-0.88818359375;0.22802734375;-0.01123046875;4.1875;-3.75;34.9375;
1441975750089926;-0.42779541015625;0.5198974609375;0.6063232421875;0.423095703125;16.348689808262666;12.541431325993614;17.305321990607816;-0.90185546875;0.2119140625;0.0078125;-8.875;-1.625;28.1875;
1441975750110928;-0.4249267578125;0.52337646484375;0.607177734375;0.42047119140625;16.297806256180404;12.594657424274423;17.350401749537284;-0.92236328125;0.189453125;0.03955078125;-3.9375;-1.75;26.1875;
1441975750133929;-0.4227294921875;0.5267333984375;0.60748291015625;0.41802978515625;16.256292125584682;12.649696151370884;17.39743734482697;-0.9150390625;0.2763671875;0.02099609375;8.625;0.0;27.625;
1441975750149930;-0.42144775390625;0.5283203125;0.608154296875;0.41632080078125;16.228705332714572;12.67470309099306;17.421121641259134;-0.91357421875;0.30517578125;-0.0244140625;7.8125;-0.5625;21.75;
1441975750170931;-0.4205322265625;0.53021240234375;0.60736083984375;0.41595458984375;16.218219826823358;12.703889949442132;17.440959060761156;-0.955078125;0.33544921875;0.02880859375;0.9375;-0.75;12.625;
1441975750193932;-0.419189453125;0.53302001953125;0.6055908203125;0.4163818359375;16.21098757424663;12.742455845758194;17.461116940977746;-1.01025390625;0.2763671875;0.0283203125;9.25;0.1875;8.8125;
1441975750209933;-0.417724609375;0.53497314453125;0.60443115234375;0.41705322265625;16.203286889269364;12.762058332493064;17.465506098964703;-1.029296875;0.296875;0.009765625;17.875;-0.25;6.5;
1441975750230934;-0.41632080078125;0.53643798828125;0.60382080078125;0.41741943359375;16.192934887154472;12.774139267019796;17.466458376218014;-0.98828125;0.2919921875;0.06884765625;15.1875;-0.4375;5.25;
1441975750246935;-0.414794921875;0.53729248046875;0.60382080078125;0.41778564453125;16.180172474292938;12.77291224050279;17.457296429368025;-0.9287109375;0.28955078125;0.08740234375;11.1875;-0.3125;5.4375;
1441975750275937;-0.4127197265625;0.53875732421875;0.60357666015625;0.4183349609375;16.163475296570756;12.776585068025332;17.448427950246742;-0.8779296875;0.27734375;0.13232421875;9.0;-0.25;5.5625;
1441975750290938;-0.41064453125;0.53997802734375;0.60400390625;0.41827392578125;16.140552584589;12.777485607592451;17.441224276305867;-0.8564453125;0.3134765625;0.1220703125;12.875;-1.6875;4.8125;
1441975750306939;-0.40936279296875;0.5404052734375;0.6053466796875;0.4169921875;16.114801224155453;12.776721235453033;17.443183426824316;-0.88525390625;0.35302734375;0.1279296875;8.625;-1.5625;6.125;
1441975750328940;-0.40948486328125;0.54052734375;0.60711669921875;0.4140625;16.089879493389805;12.79066760014124;17.470854990763293;-0.87548828125;0.38720703125;0.13427734375;-1.9375;1.3125;6.0;
1441975750358942;-0.41082763671875;0.53936767578125;0.6097412109375;0.41046142578125;16.07023155075035;12.79446052988309;17.500071223926916;-0.8798828125;0.39794921875;0.0947265625;-12.25;7.0625;7.4375;
1441975750373943;-0.4122314453125;0.53631591796875;0.6126708984375;0.40869140625;16.065377056195487;12.75816766544223;17.490418920702933;-0.90087890625;0.38427734375;0.0849609375;-24.125;7.375;6.5;
1441975750388944;-0.412353515625;0.5335693359375;0.61505126953125;0.40850830078125;16.060775615826515;12.709655249830023;17.457732105690628;-0.94091796875;0.30224609375;0.13623046875;-25.875;-0.1875;2.8125;
1441975750412945;-0.41058349609375;0.53302001953125;0.6162109375;0.40924072265625;16.045675957077137;12.679397853933809;17.425223947899497;-0.927734375;0.251953125;0.17333984375;-15.625;-5.375;3.4375;
1441975750433946;-0.40869140625;0.53314208984375;0.616943359375;0.409912109375;16.029490900637562;12.660615675170714;17.40081338146191;-0.8984375;0.29052734375;0.1875;2.5625;-6.125;5.25;
1441975750448947;-0.40692138671875;0.533203125;0.6180419921875;0.409912109375;16.008872122762526;12.645140053406468;17.38328361177743;-0.9013671875;0.29833984375;0.181640625;6.4375;-4.5625;6.1875;
1441975750487949;-0.4058837890625;0.53204345703125;0.62042236328125;0.408935546875;15.985356799790882;12.618240422559289;17.36659400933228;-0.88037109375;0.2900390625;0.181640625;3.125;-2.9375;8.875;
1441975750494950;-0.40423583984375;0.53155517578125;0.62200927734375;0.40875244140625;15.963420950837996;12.595825051121574;17.34604592078575;-0.88134765625;0.30126953125;0.2353515625;-8.25;0.125;9.9375;
1441975750508950;-0.402587890625;0.53106689453125;0.62384033203125;0.40826416015625;15.938455100046431;12.574741617259555;17.32843689455697;-0.89794921875;0.296875;0.234375;0.1875;-1.3125;9.375;
1441975750532952;-0.4014892578125;0.53155517578125;0.6251220703125;0.40673828125;15.913244956221828;12.579687855275514;17.337045754266764;-0.90478515625;0.3447265625;0.248046875;-1.5;-0.5625;8.6875;
1441975750554953;-0.40179443359375;0.53070068359375;0.62701416015625;0.40460205078125;15.896648641915979;12.575923184844166;17.348486609922794;-0.88427734375;0.3642578125;0.2177734375;-1.1875;6.25;9.75;
1441975750568954;-0.40216064453125;0.5294189453125;0.62933349609375;0.40228271484375;15.878399517624603;12.566171038563354;17.35716447968698;-0.88525390625;0.3369140625;0.2275390625;-11.5;8.6875;8.1875;
1441975750592955;-0.40216064453125;0.5283203125;0.6322021484375;0.3992919921875;15.850201481348313;12.558666002556514;17.37010356848422;-0.85888671875;0.33056640625;0.21484375;-15.5;7.5;8.75;
1441975750614956;-0.402099609375;0.5274658203125;0.6348876953125;0.39605712890625;15.820690784749385;12.556620026220559;17.387849348948542;-0.83251953125;0.3671875;0.21142578125;-17.5;6.6875;10.75;
1441975750628957;-0.401611328125;0.5279541015625;0.63714599609375;0.39239501953125;15.784148391577045;12.573165287794447;17.419039674103182;-0.8291015625;0.36474609375;0.23388671875;-15.8125;9.6875;12.875;
1441975750652959;-0.40093994140625;0.52880859375;0.6392822265625;0.38836669921875;15.743749627323815;12.59557324796069;17.455275462351636;-0.8095703125;0.3916015625;0.22607421875;-9.9375;13.0625;15.75;
1441975750673960;-0.39990234375;0.5303955078125;0.64105224609375;0.38433837890625;15.700024258503978;12.625462216071421;17.494738677792554;-0.79345703125;0.4130859375;0.232421875;-8.75;15.0625;17.0;
1441975750688961;-0.3988037109375;0.5321044921875;0.6435546875;0.37884521484375;15.643360316668783;12.660269553265294;17.54514664162276;-0.7919921875;0.3935546875;0.201171875;-4.625;14.375;20.75;
1441975750712962;-0.39739990234375;0.5352783203125;0.646240234375;0.3712158203125;15.566490917406139;12.718720598966078;17.620999078915496;-0.7861328125;0.4150390625;0.19970703125;-9.5625;17.1875;27.375;
1441975750733963;-0.3948974609375;0.539794921875;0.6488037109375;0.36285400390625;15.47180316978376;12.78633449917613;17.70083313814319;-0.80517578125;0.45947265625;0.18505859375;-9.3125;24.3125;38.4375;
1441975750748964;-0.39117431640625;0.545166015625;0.6512451171875;0.3543701171875;15.363096880853497;12.852842104756068;17.773649104108287;-0.8603515625;0.541015625;0.1435546875;-4.875;22.8125;45.0;
1441975750772966;-0.385986328125;0.55126953125;0.65399169921875;0.34539794921875;15.234732451990727;12.914898400002219;17.83811218866819;-0.892578125;0.56298828125;0.11767578125;0.75;19.375;51.75;
1441975750793967;-0.37786865234375;0.55926513671875;0.6571044921875;0.33544921875;15.06822629267616;12.977800311096395;17.893521993954618;-0.89697265625;0.5625;0.1083984375;4.25;15.5;62.6875;
1441975750809968;-0.3685302734375;0.56622314453125;0.6630859375;0.32220458984375;14.861426513350011;13.018718694406207;17.945216059847777;-0.8447265625;0.58154296875;0.07080078125;12.875;9.1875;79.5;
1441975750833969;-0.35821533203125;0.5733642578125;0.6695556640625;0.30743408203125;14.633874231301933;13.054935131072584;17.99528205951619;-0.771484375;0.6279296875;0.11083984375;-3.75;9.5;96.5;
1441975750853970;-0.34521484375;0.58270263671875;0.6749267578125;0.292724609375;14.382221069952427;13.098279173992315;0.03484835151123288;-0.7578125;0.63818359375;0.1376953125;-5.5625;8.9375;114.625;
1441975750868971;-0.33001708984375;0.59429931640625;0.67901611328125;0.277099609375;14.103888766883955;13.154051262209792;0.07266920269034001;-0.79345703125;0.65478515625;0.09423828125;10.75;4.125;126.5;
1441975750892972;-0.31304931640625;0.60748291015625;0.682861328125;0.258056640625;13.782706073080078;13.218508330217803;0.11913874818462261;-0.7841796875;0.74462890625;0.0966796875;26.125;5.1875;139.625;
1441975750913974;-0.29498291015625;0.61968994140625;0.6878662109375;0.2359619140625;13.429524150341235;13.268343305764759;0.16411528565719113;-0.7529296875;0.85302734375;0.0361328125;28.3125;12.0625;160.6875;
1441975750928974;-0.27557373046875;0.630859375;0.693603515625;0.21197509765625;13.052406310261956;13.303499898683175;0.20235001842923162;-0.69873046875;0.92626953125;0.04248046875;17.0;15.0;176.0625;
1441975750951976;-0.2542724609375;0.641845703125;0.698974609375;0.18621826171875;12.648327765341225;13.333766886677896;0.23575681457822836;-0.6201171875;0.912109375;0.04248046875;9.125;13.9375;188.0625;
1441975750974977;-0.23150634765625;0.65423583984375;0.7020263671875;0.15960693359375;12.22708956560511;13.375622608647973;0.2674693249081915;-0.51611328125;0.91552734375;0.0673828125;9.625;13.625;200.9375;
1441975750988978;-0.20819091796875;0.6666259765625;0.7034912109375;0.131591796875;11.792980175603574;13.42060179370996;0.3002445925972495;-0.41552734375;0.98095703125;0.05078125;23.75;15.6875;208.875;
1441975751012979;-0.184814453125;0.6771240234375;0.704833984375;0.102294921875;11.352169107102558;13.454371836609393;0.33221915982628025;-0.3349609375;1.02880859375;-0.03466796875;27.625;20.125;214.6875;
1441975751033980;-0.16131591796875;0.68505859375;0.7066650390625;0.07257080078125;10.911303867044513;13.471759657433202;0.36010571207783953;-0.29443359375;1.029296875;-0.08935546875;18.4375;23.25;218.5625;
1441975751049981;-0.13726806640625;0.6912841796875;0.7080078125;0.0433349609375;10.473332574900773;13.480930837835286;0.3815794127635559;-0.2529296875;1.00390625;-0.04248046875;6.3125;22.8125;219.375;
1441975751078983;-0.11407470703125;0.6968994140625;0.707763671875;0.015625;10.056089702000293;13.492737678289178;0.4002465329669576;-0.15771484375;0.982421875;-0.01513671875;2.5625;18.5;217.5;
1441975751093984;-0.09283447265625;0.70208740234375;0.70587158203125;-0.01171875;9.658115873602407;13.509093011728948;0.42521439795665333;-0.09765625;0.99267578125;-0.0556640625;6.6875;17.1875;207.0625;
1441975751131986;-0.072265625;0.70654296875;0.70281982421875;-0.0391845703125;9.264870302346813;13.525624314742242;0.4527375050628044;-0.12158203125;0.98291015625;-0.083984375;11.3125;24.625;199.375;
1441975751132986;-0.05133056640625;0.709716796875;0.6995849609375;-0.064697265625;8.885317496513359;13.536473328220742;0.4702897004516927;-0.07861328125;0.998046875;-0.123046875;12.3125;28.375;197.0625;
1441975751153987;-0.03082275390625;0.71099853515625;0.697021484375;-0.08685302734375;8.537990692886583;13.537619123237583;0.47622372470741636;0.04345703125;0.970703125;-0.0654296875;9.75;19.625;189.125;
1441975751184989;-0.01220703125;0.7109375;0.69482421875;-0.107666015625;8.217600818832635;13.532413825817278;0.48518070566011373;0.11083984375;1.0;0.009765625;1.625;8.0625;173.0625;
1441975751206990;0.0040283203125;0.70947265625;0.69281005859375;-0.12872314453125;7.91494837326626;13.519872611389;0.5062658679575218;0.134765625;0.994140625;-0.02978515625;-4.5;10.8125;160.0;
1441975751213991;0.01910400390625;0.7088623046875;0.6893310546875;-0.1480712890625;7.633330579725598;13.516948460673246;0.5249656169174625;0.12841796875;0.94921875;-0.03564453125;-9.875;22.3125;152.125;
1441975751236992;0.0328369140625;0.708740234375;0.68505859375;-0.1649169921875;7.381220011686134;13.520549934226985;0.5384110300124074;0.1376953125;0.88134765625;-0.02734375;0.875;19.1875;141.875;
1441975751267994;0.04583740234375;0.70806884765625;0.68157958984375;-0.17877197265625;7.159945772569918;13.520991106592732;0.543032052486503;0.15869140625;0.87451171875;0.02197265625;7.5625;13.5;127.5625;
1441975751288995;0.0576171875;0.70556640625;0.68060302734375;-0.18853759765625;6.984803623967586;13.507253663714827;0.5382555780819404;0.1689453125;0.8505859375;0.056640625;2.8125;5.0625;112.5;
1441975751295995;0.06854248046875;0.70159912109375;0.68182373046875;-0.1951904296875;6.844543133851184;13.48138326250311;0.5266102903980379;0.1357421875;0.796875;0.04150390625;-12.4375;-5.0;97.875;
1441975751319997;0.0777587890625;0.6978759765625;0.6839599609375;-0.1976318359375;6.752768681796545;13.45726787714972;0.5042839922836206;0.15380859375;0.71875;0.0771484375;-25.4375;-13.0;78.6875;
1441975751348998;0.084716796875;0.696044921875;0.68572998046875;-0.19488525390625;6.719865575925086;13.448557447858141;0.4662265995460044;0.15673828125;0.66455078125;0.11669921875;-25.375;-24.0625;53.25;
1441975751372000;0.08880615234375;0.69537353515625;0.6878662109375;-0.18780517578125;6.745455702789525;13.447258904021512;0.4198830548778093;0.107421875;0.607421875;0.11376953125;-17.0625;-38.4375;25.5625;
1441975751388001;0.09063720703125;0.69659423828125;0.689453125;-0.17626953125;6.82471804629434;13.460025946671067;0.36121439768384334;0.08056640625;0.55322265625;0.1181640625;-12.3125;-45.75;-4.125;
1441975751395001;0.08843994140625;0.6990966796875;0.69085693359375;-0.1614990234375;6.963298836131861;13.479195803954202;0.3046196897074199;0.0546875;0.48486328125;0.12744140625;-1.625;-56.875;-31.375;
1441975751418002;0.08160400390625;0.70147705078125;0.6934814453125;-0.1424560546875;7.175626446448196;13.492515887244675;0.250983790567306;0.04931640625;0.50341796875;0.09765625;4.875;-54.4375;-60.9375;
1441975751432003;0.07171630859375;0.70343017578125;0.6966552734375;-0.12078857421875;7.434232064089439;13.500115426447003;0.20072067930684576;-0.02490234375;0.5009765625;0.0859375;0.8125;-52.1875;-93.6875;
1441975751455005;0.057373046875;0.7060546875;0.69927978515625;-0.09527587890625;7.759582334373972;13.510957651223038;0.153302396107214;-0.08740234375;0.48046875;0.0771484375;-5.6875;-48.5625;-125.8125;
1441975751469005;0.03948974609375;0.70941162109375;0.70062255859375;-0.06494140625;8.151862380769465;13.52819978268265;0.10131884516922983;-0.1572265625;0.48046875;0.03857421875;-0.125;-46.375;-158.25;
1441975751492007;0.01800537109375;0.7132568359375;0.699951171875;-0.0294189453125;8.614785802971475;13.552446809700934;0.044509338062043574;-0.2119140625;0.5302734375;0.03466796875;8.25;-52.375;-190.8125;
1441975751515008;-0.0078125;0.71746826171875;0.6964111328125;0.0113525390625;9.155710432314836;13.58514598084835;17.986811588445967;-0.2109375;0.62255859375;0.013671875;18.6875;-59.875;-226.4375;
1441975751536009;-0.03839111328125;0.72027587890625;0.6904296875;0.05419921875;9.753329846387432;13.617484578820807;17.9435338092247;-0.1923828125;0.66650390625;0.0634765625;32.9375;-64.125;-266.1875;
1441975751552010;-0.07232666015625;0.72149658203125;0.681640625;0.09735107421875;10.383357592016887;13.652554331008092;17.916336774279042;-0.27783203125;0.61181640625;-0.00390625;36.125;-53.75;-294.1875;
1441975751575011;-0.10736083984375;0.71917724609375;0.67156982421875;0.14190673828125;11.038658416359867;13.676165416504897;17.88939314257354;-0.4384765625;0.74609375;-0.04833984375;39.9375;-41.5625;-309.25;
1441975751596013;-0.14190673828125;0.71441650390625;0.6591796875;0.18658447265625;11.698425395838095;13.696916791302717;17.860969283594574;-0.5830078125;0.75;-0.0322265625;31.5625;-44.125;-321.125;
1441975751612013;-0.17578125;0.7071533203125;0.644775390625;0.230712890625;12.357424602874044;13.71339848974067;17.83172701425745;-0.7353515625;0.75;-0.0615234375;32.0;-47.3125;-322.5;
1441975751635015;-0.20928955078125;0.69610595703125;0.62884521484375;0.2757568359375;13.033293482228665;13.713981659294333;17.791431064432793;-0.82470703125;0.7392578125;-0.173828125;29.75;-49.6875;-322.5;
1441975751656016;-0.2427978515625;0.67962646484375;0.61517333984375;0.31707763671875;13.687348956856269;13.675590056960539;17.7478044216963;-0.900390625;0.66357421875;-0.23388671875;22.0;-58.8125;-330.625;
1441975751672017;-0.27545166015625;0.6614990234375;0.6011962890625;0.353515625;14.303562032074387;13.628904816746276;17.710556722422417;-1.0107421875;0.49267578125;-0.1298828125;-9.5625;-54.8125;-318.875;
1441975751703019;-0.30548095703125;0.64288330078125;0.5849609375;0.3887939453125;14.901737957334108;13.573902015012871;17.653653721690894;-1.1650390625;0.41455078125;-0.13232421875;-19.4375;-41.5625;-300.25;
1441975751725020;-0.33294677734375;0.6226806640625;0.5672607421875;0.42376708984375;15.489414544499814;13.481238454432559;17.55161750190611;-1.37255859375;0.34423828125;-0.13134765625;-9.25;-44.125;-290.6875;
1441975751732020;-0.35968017578125;0.6011962890625;0.5489501953125;0.455810546875;16.056767021747543;13.342303904135768;17.410624383456835;-1.45263671875;0.375;-0.13037109375;-3.5;-52.6875;-289.0;
1441975751755022;-0.38348388671875;0.58160400390625;0.52813720703125;0.4854736328125;16.589069954596667;13.154925972888304;17.20570420972552;-1.5439453125;0.28076171875;-0.154296875;-9.4375;-48.0;-280.875;
1441975751776023;-0.40283203125;0.5653076171875;0.50360107421875;0.5142822265625;17.083772759628328;12.841935275983824;16.843646715587163;-1.6025390625;0.1806640625;-0.130859375;8.125;-38.8125;-266.75;
1441975751792024;-0.418212890625;0.55084228515625;0.47784423828125;0.54150390625;17.510752057959245;11.976906689352214;15.913126984761501;-1.62109375;0.13037109375;-0.11328125;41.4375;-31.4375;-254.0625;
1441975751815025;-0.431640625;0.5367431640625;0.45306396484375;0.56591796875;17.706670505935136;8.877443677991112;12.751575943842898;-1.55078125;0.17236328125;-0.10205078125;58.875;-30.1875;-238.9375;
1441975751836026;-0.44354248046875;0.5228271484375;0.42926025390625;0.58782958984375;17.46050140018965;6.472308088766804;10.288489605412035;-1.5478515625;0.171875;-0.0849609375;56.125;-27.5625;-223.125;
1441975751853027;-0.45379638671875;0.5091552734375;0.4053955078125;0.608642578125;17.102597574474693;5.825468298817602;9.580225331725014;-1.54443359375;0.17041015625;-0.07958984375;52.375;-25.875;-210.3125;
1441975751883029;-0.46112060546875;0.49609375;0.3804931640625;0.629638671875;16.73337888590776;5.604814845650514;9.283046761871756;-1.5732421875;0.1259765625;-0.08447265625;56.1875;-25.75;-203.0625;
1441975751896030;-0.46759033203125;0.4820556640625;0.3565673828125;0.6494140625;16.367055528611225;5.518544535689053;9.12548801865944;-1.50390625;0.20751953125;-0.10986328125;71.4375;-29.0;-200.0;
1441975751912031;-0.47503662109375;0.46612548828125;0.3348388671875;0.6669921875;16.005035785921294;5.476586689958557;9.03204736529204;-1.43603515625;0.2431640625;-0.1357421875;66.4375;-34.0;-195.8125;
1441975751935032;-0.48236083984375;0.448974609375;0.3138427734375;0.6834716796875;15.643438997628945;5.459360704946221;8.970400379621227;-1.37109375;0.20849609375;-0.1357421875;47.25;-39.3125;-191.0625;
1441975751956033;-0.48797607421875;0.431884765625;0.2923583984375;0.6998291015625;15.286398376177848;5.464056451478199;8.922743716251128;-1.24951171875;0.15185546875;-0.09326171875;40.1875;-42.75;-189.0625;
1441975751972034;-0.49200439453125;0.41522216796875;0.270751953125;0.71563720703125;14.940508087459706;5.481468926254925;8.881406481267147;-1.08984375;0.16552734375;-0.08154296875;47.875;-43.625;-185.8125;
1441975751995035;-0.494140625;0.39892578125;0.24945068359375;0.73101806640625;14.60812377399764;5.5134343236905;8.8482382577042;-0.9814453125;0.13916015625;-0.072265625;53.75;-42.8125;-180.0;
1441975752016037;-0.493896484375;0.38262939453125;0.2283935546875;0.74664306640625;14.284436897470504;5.564531488751378;8.824856175134705;-0.95361328125;0.14111328125;-0.0654296875;60.0;-44.1875;-173.1875;
1441975752032038;-0.49237060546875;0.36651611328125;0.2081298828125;0.76153564453125;13.974454201330838;5.62115569558191;8.805111755532327;-0.91064453125;0.158203125;-0.0654296875;70.125;-48.75;-167.125;
1441975752055039;-0.49114990234375;0.3502197265625;0.18975830078125;0.774658203125;13.6803562339555;5.671719151525334;8.790444141269344;-0.8359375;0.228515625;-0.08203125;71.8125;-50.9375;-160.3125;
1441975752076040;-0.48968505859375;0.3345947265625;0.1734619140625;0.78619384765625;13.411025879365592;5.719361861624587;8.780552702279305;-0.7568359375;0.18994140625;-0.07666015625;61.4375;-52.5;-150.0;
1441975752092041;-0.484619140625;0.32086181640625;0.1580810546875;0.7982177734375;13.171971231923557;5.7878226301027;8.77474698138389;-0.66845703125;0.08642578125;-0.03857421875;54.75;-52.25;-134.625;
1441975752115042;-0.4744873046875;0.31341552734375;0.146484375;0.80938720703125;13.02709053949239;5.878848674637232;8.773349427657267;-0.56982421875;0.0908203125;0.0126953125;71.5625;-49.75;-117.75;
1441975752136043;-0.46405029296875;0.3095703125;0.137939453125;0.818359375;12.940179049205312;5.962628964090962;8.771567067701005;-0.48681640625;0.19921875;9.765625E-4;87.1875;-42.8125;-97.125;
1441975752152044;-0.456787109375;0.30780029296875;0.134033203125;0.82373046875;12.902106481819311;6.019994298992984;8.777091832408898;-0.46875;0.33447265625;-0.08935546875;80.4375;-35.125;-75.5;
1441975752174046;-0.45068359375;0.30877685546875;0.1337890625;0.8267822265625;12.914029641096235;6.065425587063652;8.788915194789533;-0.50390625;0.29638671875;-0.13818359375;51.875;-32.4375;-50.5625;
1441975752196047;-0.4439697265625;0.31292724609375;0.1356201171875;0.82855224609375;12.971908179773138;6.110038456615359;8.80197121675566;-0.52978515625;0.29833984375;-0.115234375;35.0;-24.375;-27.875;
1441975752212048;-0.43585205078125;0.3211669921875;0.14007568359375;0.8289794921875;13.089109060289358;6.1591080924022235;8.81901759351884;-0.5;0.25146484375;-0.1025390625;33.9375;-11.875;-3.375;
