1441975609245871;0.04876708984375;-0.718017578125;-0.676025390625;-0.1585693359375;10.707496295446564;13.607223622357889;17.565735977518514;-1.673828125;-0.63916015625;0.20068359375;221.0;-23.375;270.75;
1441975609268872;0.02764892578125;-0.73126220703125;-0.66876220703125;-0.1318359375;10.328317494714828;13.70881079621755;17.598725255974795;-1.3232421875;-0.04296875;-0.005859375;214.8125;21.9375;249.8125;
1441975609290873;0.0130615234375;-0.72821044921875;-0.67669677734375;-0.10821533203125;10.009429240105105;13.677107624605823;17.628176432636025;-1.11328125;0.134765625;-0.0458984375;92.375;43.1875;205.6875;
1441975609305874;0.00152587890625;-0.72222900390625;-0.686279296875;-0.0865478515625;9.730193199660436;13.62464692683115;17.662518569732605;-1.068359375;-0.12158203125;0.08203125;-36.25;40.8125;175.4375;
1441975609328875;-0.010009765625;-0.72296142578125;-0.68768310546875;-0.06683349609375;9.475278842334902;13.630532123417602;17.69361388866604;-1.09375;-0.3984375;0.13671875;-55.625;42.5;157.375;
1441975609351877;-0.0191650390625;-0.73046875;-0.68084716796875;-0.0504150390625;9.272567649096462;13.6947581177487;17.722386573426164;-1.0146484375;-0.2607421875;0.13232421875;4.8125;37.625;143.5625;
1441975609366878;-0.01788330078125;-0.7384033203125;-0.6727294921875;-0.044921875;9.24228244877221;13.761185774410905;17.750689243365887;-0.8740234375;0.13671875;0.0673828125;63.6875;35.3125;114.4375;
1441975609388879;-0.012451171875;-0.74261474609375;-0.668212890625;-0.04449462890625;9.283378625769261;13.796338722071411;17.776196547972994;-0.8505859375;0.4423828125;0.025390625;70.0625;34.3125;70.5;
1441975609411880;-0.0037841796875;-0.743896484375;-0.6666259765625;-0.04766845703125;9.37769027766582;13.807004707370464;17.801222848997796;-0.88916015625;0.60400390625;0.0654296875;42.9375;29.4375;36.4375;
1441975609425881;0.0103759765625;-0.7425537109375;-0.66754150390625;-0.0546875;9.545480029367567;13.796603917978203;17.834152417737076;-0.86328125;0.64501953125;0.0400390625;17.1875;26.3125;7.4375;
1441975609449882;0.03033447265625;-0.7398681640625;-0.6688232421875;-0.06658935546875;9.799576117859115;13.779779340230228;17.872142027311504;-0.8505859375;0.72802734375;0.01806640625;-6.5;30.1875;-32.8125;
1441975609471884;0.05230712890625;-0.73626708984375;-0.6700439453125;-0.07977294921875;10.080907015462458;13.761361470158306;17.91285707839876;-0.869140625;0.8564453125;-0.0126953125;-16.0625;30.5625;-78.4375;
1441975609485884;0.08062744140625;-0.73101806640625;-0.67034912109375;-0.09893798828125;10.463951191609555;13.742277931213955;17.956280124686945;-0.87646484375;0.94140625;-0.00244140625;-23.375;28.0625;-132.0;
1441975609508886;0.1129150390625;-0.7235107421875;-0.66961669921875;-0.12445068359375;10.934599254906981;13.719845692611422;17.990048064793406;-0.85791015625;1.06005859375;0.03955078125;-26.375;26.75;-184.875;
1441975609531887;0.14910888671875;-0.7139892578125;-0.6668701171875;-0.15289306640625;11.46551793261865;13.70163741259144;0.028381520242591052;-0.8984375;1.05908203125;0.03466796875;-30.5625;14.4375;-229.0;
1441975609545888;0.18780517578125;-0.70318603515625;-0.66070556640625;-0.1839599609375;12.045263959175239;13.69742834006984;0.06991052890134979;-0.951171875;1.0849609375;-0.0244140625;-31.75;17.0625;-260.3125;
1441975609568889;0.2252197265625;-0.69122314453125;-0.65081787109375;-0.2191162109375;12.65851862907146;13.703290467100626;0.09328543965943357;-1.13037109375;0.96142578125;-0.15380859375;-24.4375;16.1875;-283.6875;
1441975609591890;0.2611083984375;-0.677001953125;-0.6392822265625;-0.25482177734375;13.2749056441392;13.706500905289099;0.10821504606673027;-1.294921875;0.9619140625;-0.1552734375;-8.3125;-2.125;-299.5;
1441975609605891;0.296875;-0.65789794921875;-0.63031005859375;-0.28594970703125;13.863207609229647;13.681771186262939;0.1307474240182227;-1.29541015625;1.0615234375;-0.2080078125;-8.375;-11.6875;-304.625;
1441975609628893;0.329345703125;-0.637939453125;-0.6214599609375;-0.31378173828125;14.405797856415969;13.650201106753164;0.14744393942983056;-1.3701171875;0.93701171875;-0.15771484375;-41.9375;-5.1875;-291.4375;
1441975609651894;0.35650634765625;-0.6214599609375;-0.60772705078125;-0.34271240234375;14.922699841207477;13.648574515472609;0.14875585992424012;-1.47216796875;0.85986328125;-0.12109375;-45.6875;-6.25;-268.6875;
1441975609667895;0.3768310546875;-0.60955810546875;-0.58819580078125;-0.3748779296875;15.419189434233152;13.67813198492786;0.12108923008065353;-1.4833984375;0.7119140625;-0.146484375;-3.625;-14.3125;-255.625;
1441975609688896;0.392578125;-0.59832763671875;-0.56719970703125;-0.40777587890625;15.894000960484638;13.692389032659523;0.057397416124293076;-1.45556640625;0.748046875;-0.1845703125;52.9375;-29.375;-248.25;
1441975609711897;0.407470703125;-0.58465576171875;-0.5472412109375;-0.4390869140625;16.35929052263825;13.658122499470341;17.958291404700883;-1.35595703125;0.89013671875;-0.1728515625;71.6875;-42.75;-241.4375;
1441975609727898;0.42254638671875;-0.56842041015625;-0.5281982421875;-0.4683837890625;16.81897717646368;13.545777595504694;17.79784546675661;-1.224609375;0.896484375;-0.1328125;59.4375;-47.8125;-239.25;
1441975609748899;0.43719482421875;-0.55096435546875;-0.5093994140625;-0.495849609375;17.263485110810443;13.2616570579073;17.47384161492562;-1.1455078125;0.794921875;-0.05810546875;43.0625;-48.125;-238.0;
1441975609774901;0.4503173828125;-0.5343017578125;-0.490966796875;-0.52032470703125;17.65165211154362;12.36126977974436;16.536251851923627;-1.07568359375;0.61328125;0.00244140625;35.5625;-46.75;-231.9375;
1441975609785902;0.4620361328125;-0.51910400390625;-0.4737548828125;-0.541015625;17.798654856689446;8.335157982050212;12.478713541067851;-1.04150390625;0.4892578125;0.04638671875;33.375;-39.5625;-214.5625;
1441975609808903;0.47259521484375;-0.5048828125;-0.45849609375;-0.5582275390625;17.55281987639228;6.199134076360209;10.320380371395894;-1.0244140625;0.43994140625;0.044921875;28.375;-31.25;-192.5;
1441975609831904;0.48345947265625;-0.49066162109375;-0.44561767578125;-0.57183837890625;17.27381295353781;5.691970807031354;9.808698666742675;-1.0146484375;0.42431640625;0.03662109375;19.0625;-26.375;-171.5625;
1441975609845905;0.49456787109375;-0.47607421875;-0.435791015625;-0.5821533203125;17.016152997516354;5.484447047921055;9.616534358534997;-1.03564453125;0.35400390625;-0.02978515625;1.8125;-22.75;-155.375;
1441975609868906;0.50482177734375;-0.4617919921875;-0.42913818359375;-0.5897216796875;16.793376839643408;5.388983025039079;9.55014811085313;-1.1044921875;0.20849609375;-0.06103515625;-17.1875;-23.5;-136.6875;
1441975609891908;0.512939453125;-0.45074462890625;-0.42572021484375;-0.59375;16.639580791439702;5.333785663282492;9.528305162654028;-1.08154296875;0.0849609375;-0.0322265625;-30.375;-25.625;-114.75;
1441975609907908;0.5191650390625;-0.4423828125;-0.42449951171875;-0.595458984375;16.537664066209015;5.299379655193665;9.527268429464705;-1.01513671875;0.00634765625;0.0361328125;-34.6875;-20.5;-91.625;
1441975609928910;0.5245361328125;-0.43670654296875;-0.42578125;-0.59405517578125;16.490389320329193;5.260607948564048;9.528078608923156;-0.96533203125;-0.0166015625;0.0693359375;-34.5;-14.3125;-64.4375;
1441975609951911;0.52947998046875;-0.43310546875;-0.42999267578125;-0.5892333984375;16.495604801593252;5.215547062838777;9.533856671211023;-0.93408203125;-4.8828125E-4;0.06494140625;-40.6875;-6.75;-38.875;
1441975609973912;0.53424072265625;-0.430419921875;-0.43695068359375;-0.58172607421875;16.5384575729285;5.172094239947217;9.55379910182071;-0.9140625;0.02734375;0.046875;-51.6875;-1.875;-15.1875;
1441975609988913;0.53839111328125;-0.428466796875;-0.44622802734375;-0.57232666015625;16.612327401418874;5.141065305639849;9.594389890797848;-0.86279296875;0.02783203125;0.04541015625;-63.6875;-0.625;4.875;
1441975610018915;0.5416259765625;-0.4273681640625;-0.45721435546875;-0.561279296875;16.714713740532943;5.124032634700122;9.653416632770313;-0.798828125;0.0302734375;0.0537109375;-71.25;-0.8125;23.125;
1441975610027915;0.54327392578125;-0.42694091796875;-0.46954345703125;-0.5496826171875;16.837836710035937;5.148232882175226;9.752459448961437;-0.7666015625;0.02392578125;0.0380859375;-75.125;-2.375;39.6875;
1441975610048917;0.543212890625;-0.42742919921875;-0.4822998046875;-0.5382080078125;16.974287479735974;5.223642715667982;9.89588385549877;-0.76123046875;0.0283203125;0.03173828125;-73.3125;-7.0625;52.1875;
1441975610071918;0.54156494140625;-0.42919921875;-0.49505615234375;-0.52679443359375;17.12318404806684;5.360143177231621;10.09185346701032;-0.748046875;0.044921875;0.02880859375;-66.0625;-11.0;60.625;
1441975610088919;0.538330078125;-0.43212890625;-0.50762939453125;-0.51556396484375;17.279158547590175;5.598832090323269;10.381013116340283;-0.7451171875;0.09130859375;0.013671875;-57.0;-12.4375;66.5;
1441975610108920;0.53369140625;-0.43560791015625;-0.5196533203125;-0.50537109375;17.423150912207692;6.019890532450558;10.84236987412148;-0.76123046875;0.1572265625;-0.01025390625;-48.125;-15.125;69.375;
1441975610131921;0.5277099609375;-0.439453125;-0.53082275390625;-0.49664306640625;17.535791364417015;6.730144683997372;11.581403266494622;-0.7763671875;0.18115234375;-0.0263671875;-37.75;-19.6875;70.0625;
1441975610147922;0.52020263671875;-0.4439697265625;-0.54095458984375;-0.4896240234375;17.593579164532947;7.789244829295193;12.655150648746455;-0.76904296875;0.1865234375;-0.0302734375;-26.5;-24.375;69.0625;
1441975610169923;0.51123046875;-0.44921875;-0.54949951171875;-0.48468017578125;17.577157354716793;8.927120569565554;13.790953358263607;-0.7607421875;0.18701171875;-0.02294921875;-12.3125;-28.0;67.8125;
1441975610191925;0.5010986328125;-0.4554443359375;-0.556396484375;-0.48162841796875;17.50410012994808;9.810346596208506;14.655851407876206;-0.7607421875;0.1806640625;-0.01904296875;4.1875;-31.5;65.125;
1441975610207926;0.49041748046875;-0.4622802734375;-0.561767578125;-0.4798583984375;17.404323739517288;10.400080370816813;15.215917047979934;-0.76708984375;0.1904296875;-0.017578125;20.125;-32.5625;61.0625;
1441975610229927;0.47991943359375;-0.46875;-0.5665283203125;-0.47857666015625;17.293284750466338;10.784037931248763;15.568651289598117;-0.77685546875;0.1982421875;-0.02197265625;30.8125;-32.1875;56.625;
1441975610251928;0.47003173828125;-0.47418212890625;-0.57122802734375;-0.47747802734375;17.17891151983683;11.028017363592745;15.785439886176725;-0.7783203125;0.1884765625;-0.0107421875;31.9375;-32.375;54.0;
1441975610267929;0.46038818359375;-0.4788818359375;-0.57568359375;-0.47686767578125;17.064644559063613;11.18457847980508;15.915504549038861;-0.76953125;0.16650390625;0.00634765625;28.375;-32.625;51.25;
1441975610296931;0.45074462890625;-0.48388671875;-0.57940673828125;-0.47650146484375;16.9543473329795;11.313897480336538;16.014621982575477;-0.75244140625;0.12841796875;0.052734375;27.1875;-31.625;50.1875;
1441975610311932;0.44134521484375;-0.48944091796875;-0.5821533203125;-0.47625732421875;16.85218033013094;11.434225991416248;16.100664088853392;-0.75732421875;0.11962890625;0.08056640625;31.125;-27.875;49.5625;
1441975610327933;0.4324951171875;-0.49517822265625;-0.58441162109375;-0.4757080078125;16.756591583297514;11.548859348486339;16.181484323088185;-0.77783203125;0.134765625;0.09326171875;35.8125;-23.3125;47.5;
1441975610356934;0.42462158203125;-0.50030517578125;-0.58709716796875;-0.47412109375;16.663526095017403;11.653961302296054;16.261529011225186;-0.80126953125;0.1533203125;0.10009765625;35.1875;-18.875;46.1875;
1441975610370935;0.4183349609375;-0.50445556640625;-0.59033203125;-0.47125244140625;16.576984388264933;11.748734554574742;16.34388980901199;-0.78662109375;0.1845703125;0.12109375;27.0625;-13.875;45.25;
1441975610387936;0.4141845703125;-0.50738525390625;-0.59405517578125;-0.46710205078125;16.502227190569474;11.832410074114986;16.42993664321269;-0.7705078125;0.20166015625;0.14697265625;14.5625;-7.3125;43.6875;
1441975610408937;0.412109375;-0.50897216796875;-0.5982666015625;-0.4617919921875;16.43913142397503;11.903814614284881;16.5183591376729;-0.77392578125;0.19091796875;0.14208984375;0.6875;-1.0;41.6875;
1441975610430938;0.41180419921875;-0.50909423828125;-0.60321044921875;-0.4554443359375;16.383982854755356;11.959858971393956;16.605924226828066;-0.79931640625;0.17138671875;0.13916015625;-13.3125;3.9375;40.4375;
1441975610447939;0.41278076171875;-0.50811767578125;-0.6090087890625;-0.44793701171875;16.331097400969643;12.007327866642148;16.697683826338224;-0.82861328125;0.14013671875;0.12890625;-27.5625;6.625;40.5625;
1441975610468941;0.41461181640625;-0.5064697265625;-0.61492919921875;-0.43988037109375;16.28315224140165;12.048845043518018;16.78993500016009;-0.8466796875;0.111328125;0.1181640625;-39.875;8.5625;43.0625;
1441975610490942;0.416259765625;-0.505126953125;-0.62017822265625;-0.4324951171875;16.239163141668794;12.086962386125972;16.873529818913067;-0.87890625;0.07568359375;0.10009765625;-45.625;9.4375;44.6875;
1441975610513943;0.417236328125;-0.50445556640625;-0.624267578125;-0.42633056640625;16.19961930922804;12.123070169084592;16.944372307002794;-0.970703125;0.0576171875;0.0751953125;-40.875;6.6875;45.75;
1441975610528944;0.4171142578125;-0.5048828125;-0.6273193359375;-0.42138671875;16.159375043680015;12.161611478824234;17.00474819043153;-1.04931640625;0.0400390625;0.052734375;-30.625;2.875;45.0625;
1441975610550945;0.41571044921875;-0.50653076171875;-0.629638671875;-0.41748046875;16.114002130300427;12.203721538176307;17.056291441860836;-1.09423828125;0.05859375;0.05419921875;-18.1875;0.4375;44.375;
1441975610567946;0.41326904296875;-0.5091552734375;-0.631103515625;-0.41436767578125;16.065909189337383;12.250071652013455;17.101487055124046;-1.06201171875;0.07470703125;0.078125;-5.875;-0.625;44.375;
1441975610588947;0.4102783203125;-0.5125732421875;-0.63165283203125;-0.412353515625;16.02124032995181;12.297630674245305;17.13807045849504;-1.01611328125;0.0947265625;0.1064453125;4.9375;-0.0625;43.125;
1441975610610949;0.40679931640625;-0.516357421875;-0.6318359375;-0.4107666015625;15.975351871454663;12.344500108981453;17.16917276346159;-0.98779296875;0.10498046875;0.12060546875;14.5;0.125;40.0625;
1441975610627950;0.40350341796875;-0.5201416015625;-0.63189697265625;-0.4091796875;15.93138193693064;12.391083130413012;17.20013398725645;-0.94580078125;0.14013671875;0.138671875;19.5;0.625;37.1875;
1441975610648951;0.401123046875;-0.523193359375;-0.632080078125;-0.40728759765625;15.894362009184176;12.43276572066478;17.232212412026087;-0.9130859375;0.18115234375;0.14697265625;19.25;2.6875;33.625;
1441975610670952;0.39996337890625;-0.52520751953125;-0.6324462890625;-0.4052734375;15.868101801501716;12.465794103550609;17.263051835682017;-0.8955078125;0.20068359375;0.154296875;13.3125;5.5;29.0;
1441975610687953;0.4000244140625;-0.5264892578125;-0.6326904296875;-0.4031982421875;15.853967817927735;12.495703016288525;17.29623350651792;-0.8974609375;0.205078125;0.1572265625;6.3125;7.9375;24.375;
1441975610709954;0.40093994140625;-0.52679443359375;-0.63287353515625;-0.40155029296875;15.851653022519962;12.514613940458965;17.322290688868897;-0.90185546875;0.20556640625;0.14208984375;0.625;10.0;19.0;
1441975610730956;0.40277099609375;-0.526611328125;-0.63275146484375;-0.400146484375;15.86097791532023;12.531679887051649;17.34893249091844;-0.91650390625;0.19873046875;0.14111328125;-3.6875;9.9375;13.5625;
1441975610754957;0.40509033203125;-0.5262451171875;-0.63226318359375;-0.39910888671875;15.878578826115266;12.548369163640206;17.374966354610127;-0.91796875;0.20458984375;0.130859375;-6.3125;11.5625;7.75;
1441975610768958;0.40777587890625;-0.52545166015625;-0.63140869140625;-0.39874267578125;15.905703772707243;12.559189146643622;17.394373426173576;-0.9169921875;0.21484375;0.1220703125;-6.6875;12.125;2.5625;
1441975610790959;0.41064453125;-0.52459716796875;-0.6300048828125;-0.399169921875;15.941534949396928;12.567762968768315;17.408270076748067;-0.9208984375;0.212890625;0.1201171875;-5.8125;11.5625;-2.875;
1441975610807960;0.41363525390625;-0.52362060546875;-0.6279296875;-0.40057373046875;15.987414055887466;12.572365576633679;17.414058790830563;-0.927734375;0.2119140625;0.11572265625;-3.5;10.5;-7.625;
1441975610831961;0.41668701171875;-0.52252197265625;-0.62542724609375;-0.40283203125;16.040847345148002;12.571667342747899;17.411293287809368;-0.94970703125;0.208984375;0.11181640625;0.125;9.5;-13.125;
1441975610850962;0.41986083984375;-0.52117919921875;-0.62261962890625;-0.40557861328125;16.100177331124055;12.566299931280184;17.402612872942516;-0.97265625;0.2119140625;0.10986328125;2.625;7.5625;-18.0;
1441975610867963;0.4229736328125;-0.51959228515625;-0.61981201171875;-0.40863037109375;16.16122658212481;12.554217297849807;17.38686930841631;-0.9814453125;0.205078125;0.107421875;3.6875;6.5625;-21.3125;
1441975610889965;0.42596435546875;-0.517822265625;-0.61700439453125;-0.41204833984375;16.22355009962023;12.534556293213193;17.36266012533142;-0.97607421875;0.193359375;0.10791015625;3.6875;5.1875;-23.0;
1441975610910966;0.42864990234375;-0.51617431640625;-0.614013671875;-0.415771484375;16.285504352688527;12.51165327685077;17.332578809138955;-0.97509765625;0.173828125;0.115234375;4.375;3.9375;-24.0625;
1441975610927967;0.43115234375;-0.51470947265625;-0.61090087890625;-0.41961669921875;16.346615705068142;12.488016757243459;17.30001168656182;-0.96435546875;0.16748046875;0.1142578125;6.75;2.8125;-24.5625;
1441975610949968;0.43359375;-0.51324462890625;-0.60784912109375;-0.42327880859375;16.40587604363926;12.46351856717186;17.267154282532477;-0.9755859375;0.1748046875;0.1103515625;8.5;2.0625;-25.5;
1441975610970969;0.43603515625;-0.51153564453125;-0.6051025390625;-0.4267578125;16.462935315459905;12.432849569760357;17.23027073098155;-0.9833984375;0.18798828125;0.10107421875;7.4375;1.9375;-26.0625;
1441975610987970;0.43841552734375;-0.509765625;-0.6026611328125;-0.429931640625;16.51619672573206;12.399640470706682;17.192634401081705;-0.97802734375;0.18701171875;0.10986328125;5.5625;1.5;-25.8125;
1441975611009972;0.440673828125;-0.508056640625;-0.600341796875;-0.43280029296875;16.566019719851063;12.367140134730558;17.156451986316252;-0.97216796875;0.1865234375;0.10107421875;3.6875;1.1875;-24.875;
1441975611030973;0.44287109375;-0.5064697265625;-0.59820556640625;-0.43536376953125;16.61238154846445;12.336560349350963;17.1230823433083;-0.96240234375;0.2001953125;0.1025390625;2.8125;1.5625;-24.5625;
1441975611053974;0.445068359375;-0.50482177734375;-0.5963134765625;-0.43768310546875;16.656144177777946;12.304173908896477;17.0895000903969;-0.95751953125;0.20703125;0.09423828125;1.8125;1.6875;-24.0;
1441975611069975;0.44744873046875;-0.50299072265625;-0.5946044921875;-0.439697265625;16.69927621643638;12.270351178802931;17.056960791448923;-0.9609375;0.2158203125;0.09375;-0.1875;1.5625;-23.75;
1441975611090976;0.449951171875;-0.50103759765625;-0.5928955078125;-0.441650390625;16.74329022912252;12.233649297148709;17.02242844757846;-0.962890625;0.212890625;0.08642578125;-2.0;1.4375;-23.625;
1441975611113977;0.4521484375;-0.49920654296875;-0.59130859375;-0.44354248046875;16.783272598843197;12.194939342139863;16.98520160649532;-0.9697265625;0.19970703125;0.080078125;-3.1875;1.625;-23.1875;
1441975611129978;0.45404052734375;-0.49755859375;-0.58984375;-0.4454345703125;16.81927548879357;12.154545101268544;16.94523611810473;-0.96533203125;0.1875;0.08154296875;-2.625;0.9375;-21.8125;
1441975611150980;0.45556640625;-0.49627685546875;-0.58831787109375;-0.447265625;16.851442473419095;12.118680096408555;16.907711322489924;-0.95361328125;0.1806640625;0.08740234375;-1.25;0.25;-20.125;
1441975611173981;0.45684814453125;-0.49517822265625;-0.5869140625;-0.4490966796875;16.880161689394907;12.082202837555625;16.86868901252036;-0.96630859375;0.1787109375;0.078125;0.375;-0.25;-18.0625;
1441975611189982;0.45770263671875;-0.4942626953125;-0.585693359375;-0.4508056640625;16.903114854457066;12.046155659744967;16.82924715201523;-0.97802734375;0.16015625;0.07275390625;1.6875;-1.375;-15.625;
1441975611210983;0.4580078125;-0.493896484375;-0.58453369140625;-0.45245361328125;16.919638971494845;12.018350803053439;16.79524223325408;-0.9736328125;0.15185546875;0.07861328125;2.625;-2.125;-12.6875;
1441975611233984;0.457763671875;-0.49395751953125;-0.58343505859375;-0.45404052734375;16.930065414256713;11.996943167594306;16.76519734332351;-0.97412109375;0.14794921875;0.080078125;5.375;-2.5;-9.625;
1441975611249985;0.45697021484375;-0.49456787109375;-0.58258056640625;-0.455322265625;16.932205886998062;11.988518954619149;16.74656645851613;-0.9716796875;0.14453125;0.08837890625;8.125;-2.6875;-6.375;
1441975611270986;0.4559326171875;-0.49542236328125;-0.5819091796875;-0.45623779296875;16.929482581133865;11.989886219888376;16.73792614656972;-0.96044921875;0.15966796875;0.08447265625;9.8125;-2.6875;-2.9375;
1441975611287987;0.454833984375;-0.49639892578125;-0.58160400390625;-0.4566650390625;16.92198790244772;12.00015075108039;16.740119662055243;-0.9638671875;0.16796875;0.087890625;9.8125;-2.3125;-0.25;
1441975611309989;0.453857421875;-0.4971923828125;-0.58172607421875;-0.45660400390625;16.91136146009775;12.012819781375411;16.74824081883228;-0.9609375;0.17529296875;0.07958984375;7.75;-2.4375;2.0625;
1441975611330990;0.45306396484375;-0.49798583984375;-0.58197021484375;-0.4561767578125;16.90026407363241;12.032085134356304;16.7648951818616;-0.9580078125;0.1748046875;0.08203125;4.3125;-1.9375;4.1875;
1441975611347991;0.4521484375;-0.4986572265625;-0.58251953125;-0.4556884765625;16.88601539840817;12.046454182389748;16.77770586457376;-0.9599609375;0.1640625;0.072265625;2.6875;-1.5625;6.1875;
1441975611369992;0.4510498046875;-0.49969482421875;-0.5830078125;-0.4549560546875;16.86916207820291;12.07210355130402;16.80075724426001;-0.94970703125;0.15380859375;0.08984375;2.125;-1.3125;8.1875;
1441975611390993;0.4498291015625;-0.50091552734375;-0.58355712890625;-0.4542236328125;16.850413817854395;12.099677504979244;16.82501609824734;-0.94873046875;0.1533203125;0.08154296875;2.75;-0.8125;10.25;
1441975611407994;0.44866943359375;-0.50213623046875;-0.5841064453125;-0.4532470703125;16.83127392654102;12.130951076744202;16.853872381770536;-0.96044921875;0.1533203125;0.080078125;3.8125;-0.875;12.0;
1441975611429996;0.44732666015625;-0.50347900390625;-0.58489990234375;-0.4521484375;16.808133492119065;12.162727649607206;16.88339959321325;-0.9677734375;0.14794921875;0.0712890625;2.875;-0.8125;13.25;
1441975611450997;0.44586181640625;-0.50482177734375;-0.58563232421875;-0.4510498046875;16.78429077568019;12.193169632438135;16.91108443232233;-0.96044921875;0.15185546875;0.07958984375;2.9375;-0.6875;14.875;
1441975611468998;0.4443359375;-0.50628662109375;-0.58642578125;-0.44989013671875;16.75890555638723;12.224937337281661;16.939911179825142;-0.96923828125;0.15087890625;0.083984375;3.4375;-0.625;15.6875;
1441975611495999;0.44281005859375;-0.50775146484375;-0.58721923828125;-0.44873046875;16.733388810144017;12.255492366734892;16.967523873484136;-0.9658203125;0.15673828125;0.08740234375;3.6875;-0.4375;16.1875;
1441975611511000;0.44146728515625;-0.50909423828125;-0.58807373046875;-0.44744873046875;16.708666242819096;12.285048860440273;16.995543389789372;-0.9619140625;0.17138671875;0.08740234375;3.5625;-0.1875;15.9375;
1441975611529001;0.4404296875;-0.51019287109375;-0.5888671875;-0.446044921875;16.686850631962702;12.313226155725324;17.023954756679885;-0.966796875;0.1767578125;0.08837890625;2.5;0.3125;15.5;
1441975611550002;0.43963623046875;-0.51116943359375;-0.5897216796875;-0.44464111328125;16.666787421031344;12.339225361158741;17.05140015556972;-0.9619140625;0.1767578125;0.0869140625;0.5625;1.0625;14.5625;
1441975611571004;0.4390869140625;-0.511962890625;-0.59039306640625;-0.44342041015625;16.651004452241914;12.361643347699593;17.075434220625993;-0.96142578125;0.17919921875;0.09033203125;-0.4375;1.625;13.5;
1441975611588005;0.43865966796875;-0.51263427734375;-0.5909423828125;-0.4422607421875;16.63749753086413;12.382345174070034;17.097935176935998;-0.95361328125;0.17138671875;0.08740234375;-0.8125;2.125;12.25;
1441975611610006;0.4384765625;-0.51324462890625;-0.5914306640625;-0.44110107421875;16.626434670949337;12.403547425572853;17.12162776346203;-0.94970703125;0.17822265625;0.0947265625;-1.0;2.6875;10.625;
1441975611631007;0.4385986328125;-0.51361083984375;-0.59185791015625;-0.44000244140625;16.61906191306446;12.421819648678476;17.14361603286602;-0.95068359375;0.1865234375;0.08642578125;-1.6875;3.0625;9.0625;
1441975611649008;0.43902587890625;-0.513671875;-0.59222412109375;-0.4390869140625;16.616086673725473;12.434685245182374;17.161240242068992;-0.94921875;0.18505859375;0.0771484375;-3.0625;2.9375;7.375;
1441975611670009;0.43951416015625;-0.51348876953125;-0.59246826171875;-0.43841552734375;16.616085614127016;12.441568714807357;17.172713427136475;-0.94775390625;0.1767578125;0.07568359375;-4.125;2.6875;5.5625;
1441975611691010;0.440185546875;-0.5133056640625;-0.592529296875;-0.43792724609375;16.619485666010526;12.448698561127147;17.18388361438529;-0.95263671875;0.17919921875;0.08203125;-4.0;2.5;3.75;
1441975611708011;0.44085693359375;-0.51300048828125;-0.5924072265625;-0.437744140625;16.625711647914706;12.45131165831746;17.189480831386426;-0.95361328125;0.181640625;0.078125;-3.6875;2.5;2.0;
1441975611730013;0.4415283203125;-0.51263427734375;-0.59210205078125;-0.43780517578125;16.63433756638884;12.451227973613172;17.19132527730869;-0.9560546875;0.17919921875;0.08154296875;-2.8125;2.1875;0.125;
1441975611751014;0.44232177734375;-0.51239013671875;-0.59161376953125;-0.4381103515625;16.64579424501884;12.452246866188155;17.19300357039592;-0.9599609375;0.1767578125;0.0830078125;-1.5625;1.75;-1.25;
1441975611768015;0.44305419921875;-0.5120849609375;-0.59100341796875;-0.4384765625;16.65799877044206;12.452118887371695;17.19302930179782;-0.96044921875;0.17529296875;0.07275390625;-0.5;1.8125;-2.375;
1441975611790016;0.44390869140625;-0.5115966796875;-0.59039306640625;-0.43896484375;16.672222078000914;12.447895198923408;17.189479512574447;-0.9658203125;0.1767578125;0.07373046875;-0.1875;1.625;-3.375;
1441975611829018;0.44482421875;-0.51104736328125;-0.58984375;-0.43951416015625;16.686961663465567;12.44148039997379;17.184075239140792;-0.9638671875;0.17333984375;0.0732421875;-0.625;1.1875;-4.1875;
1441975611834019;0.4456787109375;-0.510498046875;-0.58917236328125;-0.44012451171875;16.702266173887885;12.434776634496878;17.17769331134987;-0.9599609375;0.169921875;0.07080078125;-1.25;0.9375;-4.75;
1441975611850020;0.446533203125;-0.51007080078125;-0.58837890625;-0.44085693359375;16.7185161419817;12.429422887831153;17.171591684505632;-0.9619140625;0.16748046875;0.0732421875;-0.5;0.8125;-5.0625;
1441975611873021;0.447265625;-0.509765625;-0.58758544921875;-0.4415283203125;16.73318832544759;12.426228355418967;17.167129667176972;-0.96484375;0.16796875;0.0732421875;0.8125;1.0625;-5.375;
1441975611894022;0.4481201171875;-0.50927734375;-0.58685302734375;-0.44219970703125;16.7489528053383;12.419848637296347;17.160537248461658;-0.9677734375;0.1728515625;0.06884765625;1.1875;1.0625;-5.375;
1441975611910023;0.4488525390625;-0.50885009765625;-0.58612060546875;-0.44287109375;16.763569125075534;12.413604003568139;17.15356021404881;-0.966796875;0.162109375;0.0654296875;0.25;0.625;-5.25;
1441975611933024;0.449462890625;-0.50848388671875;-0.58538818359375;-0.443603515625;16.77728569111969;12.406551981118284;17.14507317693415;-0.96484375;0.15771484375;0.06787109375;0.375;0.5;-4.875;
1441975611954026;0.449951171875;-0.50830078125;-0.58465576171875;-0.44427490234375;16.78925546906107;12.402908815030923;17.139292597304394;-0.96337890625;0.1552734375;0.06884765625;1.5;0.3125;-4.5;
1441975611970026;0.45025634765625;-0.50823974609375;-0.583984375;-0.4449462890625;16.79901714717519;12.399637287536772;17.1331814517423;-0.9560546875;0.16015625;0.0693359375;2.0625;0.5;-3.9375;
1441975611993028;0.45062255859375;-0.50823974609375;-0.58331298828125;-0.44549560546875;16.808593418796494;12.399854024889692;17.130910457611925;-0.9638671875;0.16650390625;0.06787109375;2.6875;0.0625;-3.5625;
1441975612014029;0.45098876953125;-0.508056640625;-0.582763671875;-0.44598388671875;16.817636042747033;12.396323762076134;17.12596088152544;-0.9716796875;0.16845703125;0.05908203125;2.125;-0.125;-3.125;
1441975612031030;0.45135498046875;-0.5079345703125;-0.582275390625;-0.4464111328125;16.825850300111867;12.394318841835801;17.122705426021543;-0.9697265625;0.171875;0.056640625;1.0;-0.3125;-3.25;
1441975612053031;0.45166015625;-0.50787353515625;-0.58160400390625;-0.44708251953125;16.835603370249014;12.390794665458033;17.116343427315364;-0.9677734375;0.16943359375;0.0615234375;1.25;-0.25;-3.1875;
1441975612074032;0.45172119140625;-0.508056640625;-0.5809326171875;-0.44775390625;16.84272667989187;12.39026540531726;17.111572104628447;-0.96484375;0.16015625;0.06591796875;2.4375;-0.125;-3.1875;
1441975612090033;0.4517822265625;-0.50836181640625;-0.58001708984375;-0.44842529296875;16.85113888634448;12.394548496805998;17.11057361239692;-0.9599609375;0.16650390625;0.072265625;4.3125;0.3125;-2.8125;
1441975612113035;0.4517822265625;-0.50872802734375;-0.57928466796875;-0.44903564453125;16.857424546778116;12.398830124998574;17.109912208005436;-0.96435546875;0.15966796875;0.05908203125;5.3125;0.375;-2.375;
1441975612142036;0.451904296875;-0.50897216796875;-0.57867431640625;-0.44940185546875;16.86323522746614;12.40450730124234;17.112415837324008;-0.96826171875;0.16162109375;0.05712890625;4.5625;0.0;-1.75;
1441975612150037;0.451904296875;-0.50921630859375;-0.57818603515625;-0.44970703125;16.8670203760682;12.409130912729001;17.114048035028823;-0.9677734375;0.15673828125;0.05810546875;3.25;0.3125;-0.875;
1441975612174038;0.451904296875;-0.509521484375;-0.5777587890625;-0.44989013671875;16.869730686119205;12.416468908253357;17.118745877779155;-0.96240234375;0.15673828125;0.0634765625;2.6875;0.5;-0.1875;
1441975612202040;0.451904296875;-0.50982666015625;-0.577392578125;-0.4500732421875;16.87202751222184;12.423209985165554;17.1230163463822;-0.9599609375;0.1611328125;0.05908203125;2.875;0.625;0.1875;
1441975612210040;0.45184326171875;-0.51025390625;-0.576904296875;-0.45025634765625;16.87429861638438;12.433227299217947;17.129691383333007;-0.96142578125;0.1640625;0.06201171875;2.625;0.5;0.125;
1441975612234042;0.4517822265625;-0.5106201171875;-0.576416015625;-0.45050048828125;16.87698862519387;12.441002936229236;17.13412481458234;-0.95947265625;0.16650390625;0.06005859375;3.25;0.75;0.0625;
1441975612254043;0.4517822265625;-0.510986328125;-0.57598876953125;-0.45062255859375;16.879248591117406;12.45073514868458;17.14121726599067;-0.95849609375;0.169921875;0.0625;3.25;1.125;-0.3125;
1441975612270044;0.45196533203125;-0.5111083984375;-0.57562255859375;-0.45074462890625;16.883257239686063;12.456351509974041;17.145598672129747;-0.958984375;0.177734375;0.0634765625;2.75;1.25;-0.8125;
1441975612293045;0.4522705078125;-0.51116943359375;-0.5753173828125;-0.4508056640625;16.88774400612965;12.46212943733475;17.151013839032277;-0.953125;0.173828125;0.06396484375;1.5;1.3125;-1.4375;
1441975612314046;0.45269775390625;-0.51116943359375;-0.574951171875;-0.4508056640625;16.89352024660663;12.469387302850404;17.15844148798098;-0.95263671875;0.17822265625;0.068359375;0.5625;1.8125;-1.9375;
1441975612336047;0.453369140625;-0.51092529296875;-0.57470703125;-0.45074462890625;16.900873700947525;12.473440400189519;17.164589721649573;-0.95556640625;0.17236328125;0.0625;-0.5;2.0625;-2.3125;
1441975612353048;0.4541015625;-0.5106201171875;-0.57452392578125;-0.45062255859375;16.908228113348606;12.477210924693715;17.171157244607592;-0.9560546875;0.17138671875;0.06005859375;-1.9375;2.25;-2.5;
1441975612397051;0.45477294921875;-0.51025390625;-0.5743408203125;-0.4505615234375;16.91554468966945;12.478210482805009;17.174783864538675;-0.97265625;0.16259765625;0.06103515625;-2.625;2.0;-2.375;
1441975612407051;0.45526123046875;-0.51007080078125;-0.57415771484375;-0.450439453125;16.920619718741232;12.48261556181193;17.180944234807296;-0.966796875;0.15673828125;0.06298828125;-2.5625;1.8125;-2.0;
1441975612413052;0.45574951171875;-0.51007080078125;-0.57391357421875;-0.45037841796875;16.925779955108208;12.49047205920222;17.18966005015296;-0.96826171875;0.16162109375;0.06396484375;-1.5625;2.0625;-1.375;
1441975612434053;0.45611572265625;-0.510009765625;-0.57373046875;-0.45025634765625;16.929517333755626;12.49650721792099;17.196748257884806;-0.97998046875;0.1552734375;0.0576171875;-0.6875;1.8125;-0.75;
1441975612450054;0.4564208984375;-0.50994873046875;-0.57379150390625;-0.45001220703125;16.930647070405712;12.501497432547342;17.20366283206181;-0.96826171875;0.15771484375;0.056640625;-1.3125;1.625;-0.0625;
1441975612479056;0.456787109375;-0.509765625;-0.57391357421875;-0.44964599609375;16.931714165150307;12.505967113349563;17.21112220195434;-0.9755859375;0.16015625;0.06298828125;-1.625;1.375;0.5;
1441975612494056;0.45703125;-0.509521484375;-0.57415771484375;-0.44927978515625;16.931220161764468;12.506743406178717;17.215070134238974;-0.96142578125;0.15966796875;0.0576171875;-2.5625;1.0625;0.6875;
1441975612510057;0.45721435546875;-0.50946044921875;-0.5743408203125;-0.44903564453125;16.930589358292483;12.509320804018882;17.219571567051418;-0.95458984375;0.162109375;0.06494140625;-3.25;0.9375;0.875;
1441975612533059;0.45733642578125;-0.5093994140625;-0.57452392578125;-0.44873046875;16.929228333285334;12.512455141895044;17.22464277780336;-0.96435546875;0.16650390625;0.0654296875;-1.8125;0.875;1.0;
1441975612554060;0.4576416015625;-0.50909423828125;-0.5748291015625;-0.44830322265625;16.92873682291794;12.512870556821465;17.228932148924585;-0.96875;0.17578125;0.06201171875;-1.8125;0.8125;0.6875;
1441975612570061;0.45806884765625;-0.508544921875;-0.57525634765625;-0.447998046875;16.929677165206932;12.505706942227365;17.22668218790729;-0.97314453125;0.17919921875;0.060546875;-4.0;0.3125;0.125;
1441975612593062;0.45843505859375;-0.5079345703125;-0.5755615234375;-0.44793701171875;16.932170157827166;12.49376267113774;17.21859841686469;-0.970703125;0.16015625;0.06640625;-4.9375;-0.1875;0.0625;
1441975612616063;0.45849609375;-0.5076904296875;-0.57562255859375;-0.447998046875;16.933264251694105;12.487401499539535;17.213121519623712;-0.96728515625;0.1474609375;0.068359375;-3.5625;-0.375;0.0625;
1441975612629064;0.45849609375;-0.507568359375;-0.5758056640625;-0.44805908203125;16.932687127444066;12.481693730022766;17.208101775176694;-0.96240234375;0.1455078125;0.0712890625;-1.1875;-0.25;0.5;
1441975612652065;0.45843505859375;-0.50738525390625;-0.57611083984375;-0.44775390625;16.92949211359771;12.479393269089453;17.207934854961444;-0.9638671875;0.150390625;0.06884765625;-0.5625;-0.5;1.375;
1441975612677067;0.45855712890625;-0.50714111328125;-0.57672119140625;-0.44720458984375;16.92486573544232;12.47830994224306;17.2112455263635;-0.9609375;0.1630859375;0.060546875;-2.0625;-0.75;2.0;
1441975612690068;0.458740234375;-0.50665283203125;-0.57745361328125;-0.44659423828125;16.92041393040483;12.47239718676308;17.21114513133952;-0.958984375;0.1669921875;0.05029296875;-4.625;-1.125;2.4375;
1441975612719069;0.45892333984375;-0.50616455078125;-0.57806396484375;-0.4461669921875;16.91753204474083;12.464621408558253;17.20829743370182;-0.955078125;0.16748046875;0.0556640625;-5.9375;-1.5625;2.375;
1441975612734070;0.4588623046875;-0.50579833984375;-0.57855224609375;-0.44598388671875;16.914190305982892;12.4544188186047;17.20091747456785;-0.9638671875;0.16015625;0.056640625;-5.0625;-1.6875;1.875;
1441975612749071;0.4588623046875;-0.505615234375;-0.578857421875;-0.44586181640625;16.912221613276145;12.449459130104536;17.197712535543378;-0.96044921875;0.1708984375;0.0625;-3.125;-1.875;1.25;
1441975612772072;0.4588623046875;-0.50537109375;-0.57916259765625;-0.4456787109375;16.91018750122698;12.444331279007386;17.194705667361557;-0.95654296875;0.1728515625;0.056640625;-1.8125;-1.75;0.625;
1441975612794074;0.4591064453125;-0.50506591796875;-0.57952880859375;-0.4453125;16.909084165190627;12.442493788953163;17.19656089149015;-0.9482421875;0.173828125;0.05908203125;-2.25;-1.3125;0.125;
1441975612810074;0.4595947265625;-0.50457763671875;-0.58013916015625;-0.444580078125;16.907316361608885;12.442650549320774;17.203401265255604;-0.94970703125;0.1806640625;0.0517578125;-4.125;-0.9375;0.0;
1441975612832076;0.46026611328125;-0.504150390625;-0.58087158203125;-0.4434814453125;16.904460279380725;12.45060861051568;17.219797599086256;-0.951171875;0.1865234375;0.06005859375;-6.3125;0.5625;0.1875;
1441975612854077;0.4610595703125;-0.50360107421875;-0.58197021484375;-0.44183349609375;16.898198916111;12.462524812472086;17.243511007815023;-0.9345703125;0.1806640625;0.06494140625;-8.375;2.25;1.625;
1441975612871078;0.4620361328125;-0.5029296875;-0.58331298828125;-0.43975830078125;16.89028881050713;12.477913440402483;17.273523091289636;-0.9267578125;0.19384765625;0.06689453125;-11.4375;3.4375;2.75;
1441975612892079;0.46319580078125;-0.502197265625;-0.58477783203125;-0.43743896484375;16.88207718460694;12.49606146743916;17.308051250203615;-0.9375;0.193359375;0.06298828125;-14.4375;4.0625;4.25;
1441975612914080;0.464111328125;-0.50152587890625;-0.58660888671875;-0.43475341796875;16.867723349965384;12.514907808214858;17.34453777353412;-0.95654296875;0.1796875;0.05126953125;-15.9375;3.375;6.0;
1441975612938082;0.46502685546875;-0.5008544921875;-0.588623046875;-0.43182373046875;16.85100955224731;12.534951744987067;17.38346497488731;-0.94091796875;0.201171875;0.0439453125;-17.125;3.0625;7.5;
1441975612952083;0.4658203125;-0.50018310546875;-0.59075927734375;-0.4288330078125;16.832205126083103;12.552696201763043;17.420284540975356;-0.93701171875;0.2158203125;0.0478515625;-18.6875;3.4375;7.9375;
1441975612976084;0.466552734375;-0.49981689453125;-0.592529296875;-0.42608642578125;16.815220778942933;12.575040941372247;17.458880512469122;-0.9423828125;0.234375;0.0576171875;-18.6875;3.5625;7.8125;
1441975612991085;0.467041015625;-0.4998779296875;-0.5938720703125;-0.42352294921875;16.79827985155759;12.604229660669098;17.50065345549183;-0.935546875;0.22607421875;0.05419921875;-15.8125;4.1875;7.6875;
1441975613012086;0.46722412109375;-0.50079345703125;-0.59466552734375;-0.42108154296875;16.779714392492387;12.649392742089132;17.55311840396666;-0.91357421875;0.21728515625;0.07080078125;-11.5625;6.3125;8.375;
1441975613034087;0.46685791015625;-0.5028076171875;-0.59503173828125;-0.4185791015625;16.75482792380601;12.712917377166747;17.61814570528934;-0.88818359375;0.21875;0.060546875;-6.25;7.9375;9.625;
1441975613057089;0.46649169921875;-0.50537109375;-0.5955810546875;-0.4151611328125;16.72131906424537;12.793152789366818;17.701501369849584;-0.8740234375;0.23681640625;0.05712890625;-0.3125;10.0625;12.1875;
1441975613072089;0.46624755859375;-0.50775146484375;-0.59661865234375;-0.41094970703125;16.681374028114274;12.871656083924346;17.78776713732538;-0.8837890625;0.271484375;0.04345703125;-1.5625;12.8125;15.875;
1441975613094091;0.465576171875;-0.5098876953125;-0.59814453125;-0.40692138671875;16.636729651292455;12.92971494375322;17.853946283907575;-0.88916015625;0.28125;0.01513671875;-6.3125;12.0625;18.3125;
1441975613117092;0.46405029296875;-0.51263427734375;-0.5997314453125;-0.40283203125;16.5821369262178;12.984831595693215;17.913377961342995;-0.865234375;0.2763671875;0.01513671875;-7.0;8.4375;20.1875;
1441975613132093;0.4622802734375;-0.515625;-0.60150146484375;-0.39837646484375;16.521110742151606;13.038620286012437;17.971702513615128;-0.81982421875;0.30517578125;0.021484375;-3.125;7.8125;22.5625;
1441975613154094;0.4603271484375;-0.51837158203125;-0.60369873046875;-0.3936767578125;16.45573300419925;13.080831400622278;0.020620738072555177;-0.78515625;0.32568359375;0.0166015625;-3.4375;8.0625;24.1875;
1441975613178096;0.45806884765625;-0.5208740234375;-0.60595703125;-0.3895263671875;16.392062010194135;13.108048027165143;0.05295669597285397;-0.736328125;0.32470703125;0.01904296875;-5.5;6.75;26.0;
1441975613192096;0.45501708984375;-0.52386474609375;-0.60791015625;-0.385986328125;16.325845704225582;13.130354851874904;0.07404787064262058;-0.658203125;0.263671875;0.03466796875;-4.125;4.875;27.5;
1441975613214098;0.4515380859375;-0.5274658203125;-0.609619140625;-0.38250732421875;16.25539945295176;13.15672553649949;0.09532075820609473;-0.57861328125;0.2451171875;0.05029296875;2.375;3.4375;28.6875;
1441975613245099;0.44805908203125;-0.5302734375;-0.61236572265625;-0.37835693359375;16.179216658785215;13.1673996950082;0.1082209047585147;-0.513671875;0.21533203125;0.029296875;6.1875;2.5625;32.3125;
1441975613252100;0.44415283203125;-0.53326416015625;-0.61572265625;-0.37322998046875;16.090124406887313;13.177373018671503;0.12339014628206968;-0.43896484375;0.1552734375;0.046875;-1.125;1.5;37.3125;
1441975613283102;0.43975830078125;-0.537109375;-0.6187744140625;-0.36773681640625;15.992853968340894;13.196932132482292;0.14451106766581248;-0.373046875;0.15576171875;0.07275390625;-3.25;3.1875;42.9375;
1441975613297102;0.435302734375;-0.54156494140625;-0.6217041015625;-0.36163330078125;15.888897006644216;13.225083204188119;0.1737385000114688;-0.3466796875;0.17236328125;0.0712890625;0.9375;5.75;45.9375;
1441975613312103;0.43133544921875;-0.54559326171875;-0.62469482421875;-0.35504150390625;15.786576719816129;13.252008752473092;0.20609047053871943;-0.3662109375;0.2490234375;0.0615234375;1.5625;7.875;45.75;
1441975613342105;0.4285888671875;-0.547607421875;-0.6287841796875;-0.34808349609375;15.694356504571244;13.258569494872479;0.2318068529370735;-0.431640625;0.30908203125;0.01806640625;-3.3125;7.5625;43.25;
1441975613357106;0.4267578125;-0.54815673828125;-0.63360595703125;-0.340576171875;15.608221632644721;13.253448323197619;0.25667757721969237;-0.4892578125;0.27978515625;0.00341796875;-17.75;4.9375;41.9375;
1441975613372107;0.42498779296875;-0.54913330078125;-0.63775634765625;-0.33343505859375;15.525923093083343;13.255004717467317;0.28417127338679715;-0.447265625;0.1923828125;0.029296875;-27.8125;6.875;44.125;
1441975613394108;0.4222412109375;-0.55255126953125;-0.64013671875;-0.3265380859375;15.434797972148253;13.282724428757259;0.3220396220146435;-0.41796875;0.138671875;0.05517578125;-22.25;10.3125;45.25;
1441975613417109;0.4197998046875;-0.55706787109375;-0.6414794921875;-0.31939697265625;15.342861162253909;13.327282275669717;0.37209899448786404;-0.43408203125;0.21337890625;0.046875;-5.6875;14.375;46.5625;
1441975613439110;0.4189453125;-0.559326171875;-0.64373779296875;-0.31195068359375;15.26581276998742;13.354302633968627;0.4195248692365809;-0.5224609375;0.32177734375;-0.00537109375;-1.0625;17.5;43.5625;
1441975613454111;0.4193115234375;-0.55816650390625;-0.64794921875;-0.30487060546875;15.207779105403874;13.344481103557165;0.44841818126570704;-0.64111328125;0.3857421875;-0.02587890625;-16.6875;16.375;36.0625;
1441975613477113;0.4200439453125;-0.555419921875;-0.6527099609375;-0.29852294921875;15.162782057852594;13.317717092041853;0.46563756791294725;-0.7373046875;0.322265625;0.00732421875;-35.875;11.125;33.9375;
1441975613492113;0.42010498046875;-0.5543212890625;-0.6561279296875;-0.2928466796875;15.11548870122564;13.306854211040129;0.4860120435049889;-0.74169921875;0.25;0.06396484375;-40.4375;9.4375;32.0625;
1441975613514115;0.42083740234375;-0.5552978515625;-0.6572265625;-0.28753662109375;15.074282240771755;13.328960888093514;0.5271178755350432;-0.75048828125;0.29345703125;0.087890625;-26.4375;11.625;31.625;
1441975613537116;0.42291259765625;-0.55572509765625;-0.65789794921875;-0.2821044921875;15.045008896565024;13.356318663542512;0.5780832138377962;-0.84521484375;0.37548828125;0.04443359375;-13.3125;19.75;27.4375;
1441975613553117;0.42596435546875;-0.55401611328125;-0.6591796875;-0.2777099609375;15.037370554571904;13.365150348460558;0.6182563783345801;-1.0068359375;0.46826171875;-0.0087890625;-17.8125;21.8125;22.3125;
1441975613574118;0.428466796875;-0.5506591796875;-0.6617431640625;-0.27447509765625;15.037867330069853;13.34673752510758;0.6346821359032537;-1.14599609375;0.42919921875;-0.0283203125;-28.0;16.125;18.375;
1441975613597119;0.42950439453125;-0.548095703125;-0.6644287109375;-0.2716064453125;15.027091028962273;13.324565311511385;0.6400826400463722;-1.125;0.3388671875;0.02734375;-32.3125;7.8125;18.5625;
1441975613612120;0.4306640625;-0.54705810546875;-0.66552734375;-0.26910400390625;15.018005149192946;13.323621438210271;0.6566929957401442;-1.0791015625;0.4189453125;0.05615234375;-25.6875;3.5;17.625;
1441975613634122;0.43255615234375;-0.54522705078125;-0.6671142578125;-0.265869140625;15.01067705939849;13.319693006510606;0.6785143197045417;-1.12890625;0.46484375;0.0048828125;-16.4375;5.875;15.875;
1441975613657123;0.43414306640625;-0.54266357421875;-0.66949462890625;-0.26239013671875;15.000410338248276;13.30440815239101;0.6935024320088206;-1.1474609375;0.48779296875;0.00390625;-23.875;8.0625;14.9375;
1441975613672124;0.43450927734375;-0.54107666015625;-0.6717529296875;-0.2593994140625;14.981281117505695;13.289155153500266;0.7002571209411408;-1.10400390625;0.462890625;0.00390625;-29.0;4.875;15.9375;
1441975613694125;0.43487548828125;-0.54083251953125;-0.67266845703125;-0.2568359375;14.963348198881272;13.291110233196244;0.7149147498607592;-1.052734375;0.48388671875;0.0244140625;-21.625;1.4375;17.6875;
1441975613717126;0.435302734375;-0.54095458984375;-0.67333984375;-0.2540283203125;14.943094497869994;13.29820001957135;0.7338535430973617;-1.06298828125;0.51025390625;0.001953125;-12.125;4.0625;16.1875;
1441975613732127;0.43511962890625;-0.54229736328125;-0.67303466796875;-0.2523193359375;14.923999193059911;13.313772335676552;0.7494807502780652;-1.1298828125;0.61181640625;-0.0048828125;-10.6875;5.4375;14.0;
1441975613754128;0.43414306640625;-0.54248046875;-0.6741943359375;-0.2506103515625;14.900394500370226;13.307519769633053;0.7488899204872633;-1.18896484375;0.6220703125;-0.07958984375;-2.5;-0.3125;15.1875;
1441975613777130;0.4332275390625;-0.54425048828125;-0.6737060546875;-0.24957275390625;14.879775426491438;13.321438077543158;0.756866656544707;-1.17529296875;0.6259765625;-0.02880859375;-8.25;-5.5;16.125;
1441975613792131;0.43243408203125;-0.546630859375;-0.67236328125;-0.24932861328125;14.865509895178125;13.343344050749153;0.766229606621284;-1.1708984375;0.6201171875;-0.0478515625;4.0625;-2.0625;16.0;
1441975613816132;0.43017578125;-0.54925537109375;-0.671875;-0.24871826171875;14.83490166294676;13.355024314651608;0.7642673563656976;-1.208984375;0.61181640625;-0.0478515625;10.6875;-1.3125;15.0;
1441975613844134;0.42694091796875;-0.55126953125;-0.6728515625;-0.24737548828125;14.790752684059058;13.350329387968703;0.7516969136254521;-1.1337890625;0.6025390625;-0.03515625;10.8125;-6.0;20.6875;
1441975613861135;0.4228515625;-0.55621337890625;-0.6719970703125;-0.24566650390625;14.72993240383827;13.374005550453898;0.7520574062770622;-1.0419921875;0.57958984375;0.0390625;6.4375;-7.5625;26.25;
1441975613874135;0.4193115234375;-0.5621337890625;-0.67022705078125;-0.242919921875;14.66313568403079;13.414582141455252;0.768534200922746;-1.0146484375;0.64599609375;-0.00244140625;22.0625;-3.125;30.4375;
1441975613897137;0.4168701171875;-0.56744384765625;-0.66851806640625;-0.239501953125;14.601009703498837;13.456420564195943;0.7934773550023851;-1.03466796875;0.7109375;-0.0498046875;24.125;3.6875;32.0625;
1441975613913138;0.414794921875;-0.57177734375;-0.6671142578125;-0.23663330078125;14.548896680390804;13.48962142157706;0.8128853218238667;-1.0595703125;0.74462890625;-0.08642578125;17.375;7.3125;29.3125;
1441975613934139;0.41229248046875;-0.5758056640625;-0.6663818359375;-0.2333984375;14.4905993120689;13.514936124917512;0.8272720848725762;-1.0380859375;0.6982421875;-0.07763671875;13.6875;6.0;27.0;
1441975613957140;0.41082763671875;-0.5804443359375;-0.664794921875;-0.22882080078125;14.427832136514816;13.555860113841156;0.8601930348137126;-0.93896484375;0.69287109375;-0.02490234375;12.625;7.0;27.25;
1441975613973141;0.411376953125;-0.58282470703125;-0.66448974609375;-0.2227783203125;14.37377747099468;13.585921402516302;0.9033548160719708;-0.90771484375;0.6884765625;-0.1171875;9.8125;13.3125;29.125;
1441975613996142;0.41156005859375;-0.58514404296875;-0.6641845703125;-0.217041015625;14.31956258531455;13.612532473450312;0.9413352451647031;-0.990234375;0.72900390625;-0.0810546875;-7.125;22.6875;26.0625;
1441975614017144;0.410888671875;-0.58984375;-0.66217041015625;-0.21185302734375;14.256094092085583;13.657431130007389;0.9810411430313868;-0.99609375;0.71240234375;-0.05322265625;-5.1875;22.1875;28.0;
1441975614033144;0.4112548828125;-0.59326171875;-0.66107177734375;-0.2047119140625;14.187106602708303;13.695798705523385;1.0303147719049977;-0.9501953125;0.736328125;-0.0859375;11.375;22.75;30.0625;
1441975614054146;0.413330078125;-0.596435546875;-0.65972900390625;-0.1956787109375;14.11422308941361;13.742475449441908;1.0990631571619496;-0.87548828125;0.73193359375;-0.04833984375;-0.5;32.25;29.875;
1441975614077147;0.41546630859375;-0.59979248046875;-0.6578369140625;-0.18701171875;14.043372007300354;13.791198231941701;1.1668033491883272;-0.8369140625;0.74169921875;-0.056640625;-7.0;45.4375;29.0625;
1441975614094148;0.41790771484375;-0.60552978515625;-0.65338134765625;-0.1783447265625;13.964716458038367;13.866442982522136;1.2471066954523076;-0.83984375;0.72900390625;-0.02490234375;-1.625;48.4375;29.0625;
1441975614114149;0.421875;-0.60955810546875;-0.650390625;-0.1658935546875;13.867354987136373;13.931135468382099;1.343728106731405;-0.8125;0.81884765625;-0.087890625;14.1875;55.75;26.0625;
1441975614137150;0.4283447265625;-0.60906982421875;-0.6502685546875;-0.150634765625;13.778112693800537;13.966359974453999;1.4505240299655753;-0.787109375;1.04248046875;-0.0712890625;-4.5;71.0;20.125;
1441975614153151;0.43963623046875;-0.604248046875;-0.65130615234375;-0.13238525390625;13.710259942945154;13.993402232521094;1.5905754473071514;-0.7939453125;1.03662109375;-0.0556640625;-39.1875;80.1875;15.75;
1441975614174152;0.456298828125;-0.59991455078125;-0.64825439453125;-0.10833740234375;13.61806442485461;14.066917065654987;1.8000721158896442;-0.78076171875;1.10009765625;0.0205078125;-73.8125;100.9375;12.6875;
1441975614197154;0.476806640625;-0.57525634765625;-0.6597900390625;-0.0806884765625;13.621545789636102;13.984300872633646;1.9853201710236763;-0.84375;0.90185546875;-0.6748046875;-84.6875;143.4375;17.875;
1441975614213155;0.47711181640625;-0.54913330078125;-0.68377685546875;-0.05780029296875;13.57172249547983;13.739436607473243;1.9792983764715628;-1.7939453125;1.44482421875;0.279296875;-210.25;133.0625;-22.625;
1441975614242156;0.468994140625;-0.54559326171875;-0.69287109375;-0.048583984375;13.46583809922497;13.641803930555275;1.9332861677593787;-1.666015625;0.56689453125;0.6416015625;-232.25;9.125;37.8125;
1441975614257157;0.462646484375;-0.54962158203125;-0.6944580078125;-0.04052734375;13.340090630573691;13.627043250357652;1.924784358534513;-0.7333984375;1.1298828125;0.46484375;-39.0625;-3.8125;35.625;
1441975614274158;0.452880859375;-0.56109619140625;-0.69189453125;-0.0379638671875;13.200801642804539;13.653393166140841;1.8910904703771085;-0.9931640625;1.0009765625;0.142578125;0.9375;6.0625;65.25;
1441975614294159;0.4427490234375;-0.55963134765625;-0.6995849609375;-0.03826904296875;13.1471667054816;13.570083735146639;1.8073167640394225;-0.9921875;1.41796875;-0.07470703125;48.9375;-21.8125;55.4375;
1441975614317161;0.4271240234375;-0.556884765625;-0.7115478515625;-0.03546142578125;13.033539476251452;13.443620560432999;1.6952394938516056;-0.9033203125;1.12939453125;-0.146484375;-33.5625;-67.25;24.1875;
1441975614333162;0.41119384765625;-0.55902099609375;-0.71917724609375;-0.034912109375;12.908431607514597;13.363949683921623;1.5920625386136633;-0.86181640625;1.171875;0.0703125;-50.5;-82.3125;49.75;
1441975614354163;0.396240234375;-0.56005859375;-0.7269287109375;-0.03155517578125;12.76882976241156;13.287144150024272;1.5094040436085876;-0.853515625;0.9697265625;-0.03466796875;-18.3125;-85.5;63.0625;
1441975614377164;0.38238525390625;-0.55987548828125;-0.7344970703125;-0.02923583984375;12.647320804379705;13.212158673969727;1.4311709662258445;-0.88818359375;1.0126953125;-0.02587890625;-31.125;-73.5625;71.625;
1441975614393165;0.36724853515625;-0.56158447265625;-0.74102783203125;-0.02703857421875;12.50711406812009;13.150522209691633;1.3531746428960756;-0.962890625;0.853515625;-0.02392578125;-34.375;-74.0625;73.5;
1441975614414166;0.353271484375;-0.56689453125;-0.74383544921875;-0.024658203125;12.360543264575758;13.128433022464467;1.2951080396087278;-0.90185546875;0.88427734375;0.0224609375;-21.0;-76.1875;78.25;
1441975614437168;0.339111328125;-0.577392578125;-0.742431640625;-0.021728515625;12.191066565783904;13.150541240850714;1.2521136810527465;-0.748046875;0.794921875;-0.0625;1.0;-65.0;79.0625;
1441975614453168;0.323974609375;-0.59100341796875;-0.73846435546875;-0.02105712890625;12.022309069376412;13.195976943546196;1.2013951682564188;-0.66455078125;0.84326171875;-0.19189453125;27.875;-58.8125;87.625;
1441975614476170;0.303955078125;-0.6041259765625;-0.7364501953125;-0.01898193359375;11.807290701826286;13.222434904317195;1.1306584607823198;-0.6484375;0.79736328125;-0.23974609375;52.0;-66.125;89.4375;
1441975614497171;0.28021240234375;-0.62225341796875;-0.7308349609375;-0.01605224609375;11.543672490787852;13.282002381356579;1.0554531148361435;-0.62841796875;0.7802734375;-0.158203125;57.375;-74.4375;103.8125;
1441975614513172;0.25543212890625;-0.63983154296875;-0.72479248046875;-0.0130615234375;11.276402344653444;13.341913426519035;0.9752948900788905;-0.40673828125;0.78662109375;-0.11865234375;90.5;-79.875;125.6875;
1441975614534173;0.2315673828125;-0.6544189453125;-0.71978759765625;-0.00994873046875;11.026434631073906;13.389111170563256;0.8963037387462855;-0.21484375;0.9296875;-0.0283203125;91.4375;-82.375;125.875;
1441975614557174;0.20672607421875;-0.66644287109375;-0.71636962890625;-0.0032958984375;10.749088977269494;13.420956108114032;0.8247340572086053;-0.3017578125;1.076171875;-0.001953125;75.5625;-79.375;119.8125;
1441975614573175;0.18133544921875;-0.6795654296875;-0.71087646484375;0.003662109375;10.464469448049675;13.468416009177918;0.7538077107762491;-0.35205078125;0.96435546875;-0.02392578125;54.3125;-72.75;137.125;
1441975614594177;0.158935546875;-0.6944580078125;-0.70172119140625;0.0084228515625;10.220176266677557;13.544109270398113;0.6882512760280161;-0.177734375;0.86328125;-0.02490234375;66.125;-71.0;140.25;
1441975614617178;0.1392822265625;-0.70782470703125;-0.69244384765625;0.01287841796875;10.005820317351626;13.618650345799415;0.6306158548895039;-0.041015625;0.87158203125;-0.025390625;90.9375;-63.75;119.75;
1441975614641179;0.12347412109375;-0.7154541015625;-0.68756103515625;0.01507568359375;9.85230364505357;13.65693395235989;0.5756725483106079;0.00390625;0.9208984375;-0.0400390625;85.4375;-53.875;97.125;
1441975614654180;0.11029052734375;-0.7200927734375;-0.6849365234375;0.01556396484375;9.739210812913612;13.677232610331512;0.5233092847617662;-0.02734375;0.80615234375;0.04833984375;53.625;-49.5;73.0;
1441975614677181;0.09912109375;-0.72454833984375;-0.68194580078125;0.01446533203125;9.655878353052145;13.700671339601417;0.4732132997939532;-0.091796875;0.65380859375;0.10986328125;37.875;-47.3125;59.9375;
1441975614699183;0.08935546875;-0.72979736328125;-0.677734375;0.01177978515625;9.59649184101884;13.733921772972641;0.4231748237017614;-0.10791015625;0.5849609375;0.11181640625;40.0;-45.3125;47.6875;
1441975614716183;0.080322265625;-0.735107421875;-0.6732177734375;0.00567626953125;9.572733920878429;13.769807222693204;0.3629456323623553;-0.0791015625;0.56884765625;0.08544921875;47.8125;-46.3125;34.6875;
1441975614737185;0.07379150390625;-0.73846435546875;-0.6702880859375;-0.00396728515625;9.601417461014396;13.792794472509414;0.29914629108098306;-0.095703125;0.55615234375;0.0400390625;48.5625;-57.6875;20.1875;
1441975614752186;0.0723876953125;-0.7413330078125;-0.6671142578125;-0.0150146484375;9.682479998185656;13.816689629382946;0.25216797653970047;-0.115234375;0.50927734375;0.03125;34.9375;-63.4375;-3.875;
1441975614776187;0.07562255859375;-0.7437744140625;-0.66363525390625;-0.0274658203125;9.811823432157485;13.841531724159703;0.2202350412141843;-0.1357421875;0.47607421875;0.00341796875;33.3125;-49.8125;-29.9375;
1441975614797188;0.081298828125;-0.74322509765625;-0.662841796875;-0.04241943359375;9.98346259683732;13.843374921924672;0.18796646772459452;-0.21875;0.466796875;-0.0234375;31.0;-37.375;-50.375;
1441975614812189;0.0877685546875;-0.7392578125;-0.66510009765625;-0.05914306640625;10.178156822692912;13.817709348726304;0.14958539779910718;-0.2919921875;0.40625;-4.8828125E-4;10.0;-39.625;-66.375;
1441975614836190;0.0958251953125;-0.73309326171875;-0.66888427734375;-0.07794189453125;10.403104688049526;13.775393426961932;0.10699673416276213;-0.2275390625;0.35888671875;0.017578125;-14.75;-46.625;-82.0625;
1441975614857192;0.1064453125;-0.7296142578125;-0.668212890625;-0.09991455078125;10.673877377783924;13.761111619578424;0.0652099639285094;-0.17431640625;0.3154296875;0.087890625;-30.875;-52.5;-106.3125;
1441975614872192;0.11962890625;-0.7281494140625;-0.66326904296875;-0.125;10.992001693652117;13.771464394308945;0.025588791935958987;-0.1572265625;0.29931640625;0.09619140625;-0.9375;-52.3125;-129.8125;
1441975614896194;0.13623046875;-0.72711181640625;-0.65545654296875;-0.1524658203125;11.359430181420425;13.795536208301018;17.994499074133568;-0.17578125;0.35546875;0.044921875;23.9375;-51.8125;-154.1875;
1441975614917195;0.15625;-0.72515869140625;-0.6456298828125;-0.18145751953125;11.770469145329805;13.825898550483585;17.97509592770064;-0.21484375;0.4248046875;0.00927734375;36.3125;-46.25;-179.5625;
1441975614932196;0.1796875;-0.71929931640625;-0.6363525390625;-0.21331787109375;12.23777827933675;13.837338768535908;17.95593128510687;-0.267578125;0.5400390625;-0.07177734375;38.6875;-39.8125;-203.0;
1441975614956197;0.2064208984375;-0.709228515625;-0.626953125;-0.24786376953125;12.761427206896538;13.830185342457591;17.934909272448564;-0.31787109375;0.6123046875;-0.12451171875;20.375;-44.125;-231.125;
1441975614977198;0.235107421875;-0.69659423828125;-0.6160888671875;-0.2828369140625;13.31321764469912;13.818430324845016;17.917729784214252;-0.33984375;0.67041015625;-0.13720703125;4.0625;-48.75;-260.9375;
1441975614992199;0.26239013671875;-0.68560791015625;-0.60211181640625;-0.31402587890625;13.829073444131662;13.835539365403758;17.920925534502288;-0.57470703125;0.408203125;-0.0224609375;-0.25;-43.625;-270.5625;
1441975615015201;0.2861328125;-0.6759033203125;-0.5838623046875;-0.34716796875;14.344806631603621;13.872820659494948;17.910524280982155;-0.8154296875;0.52099609375;-0.17431640625;13.4375;-28.125;-254.3125;
1441975615037202;0.30975341796875;-0.65997314453125;-0.5667724609375;-0.38385009765625;14.906033433741058;13.851556404815009;17.85366293533239;-0.93212890625;0.611328125;-0.2666015625;43.125;-40.875;-254.25;
1441975615052203;0.33392333984375;-0.63848876953125;-0.55328369140625;-0.4180908203125;15.45972910697776;13.755754913009268;17.757763844023636;-0.97314453125;0.595703125;-0.25732421875;24.5;-69.375;-274.625;
1441975615076204;0.35693359375;-0.61785888671875;-0.536865234375;-0.4501953125;15.997053904202225;13.652721534070068;17.645141971894336;-0.998046875;0.38671875;-0.0732421875;-11.8125;-75.0;-269.625;
1441975615097205;0.3760986328125;-0.60015869140625;-0.51763916015625;-0.4801025390625;16.491832040010316;13.535140840436036;17.495354902109625;-1.0673828125;0.07470703125;-0.02392578125;0.9375;-62.625;-259.75;
1441975615112206;0.3907470703125;-0.5841064453125;-0.49761962890625;-0.508544921875;16.937983350611848;13.307441966552622;17.218682917803257;-1.1513671875;-0.06591796875;-0.01220703125;25.1875;-53.3125;-239.75;
1441975615136208;0.40203857421875;-0.5684814453125;-0.478515625;-0.53509521484375;17.32348717490871;12.749854453057623;16.60852403877101;-1.1240234375;-0.10986328125;0.046875;42.3125;-55.1875;-219.0;
1441975615157209;0.411865234375;-0.55438232421875;-0.46221923828125;-0.5562744140625;17.591627209629692;11.482270517014404;15.302537491988744;-1.2705078125;-0.20458984375;0.09716796875;46.3125;-58.4375;-198.3125;
1441975615172210;0.42034912109375;-0.54302978515625;-0.44757080078125;-0.57281494140625;17.673002292232333;9.227448967273867;13.015077511602339;-1.39794921875;-0.35009765625;0.06982421875;33.5;-47.75;-165.25;
1441975615196211;0.4241943359375;-0.53558349609375;-0.43206787109375;-0.5887451171875;17.564456328933357;7.556627001268364;11.285831496271538;-1.3125;-0.31396484375;0.0673828125;28.5;-31.75;-138.875;
1441975615217212;0.42340087890625;-0.53009033203125;-0.4149169921875;-0.6063232421875;17.37819279722455;6.8617006777363745;10.50327319197978;-1.2666015625;-0.1416015625;0.0146484375;55.1875;-28.125;-120.0625;
1441975615232213;0.4207763671875;-0.52447509765625;-0.39788818359375;-0.6241455078125;17.170641093613515;6.579400754257535;10.127289030181307;-1.31396484375;0.009765625;-0.07666015625;84.4375;-35.9375;-114.1875;
1441975615256214;0.420654296875;-0.5162353515625;-0.3826904296875;-0.64044189453125;16.94616169890093;6.4111554466297225;9.889261524494286;-1.3984375;0.154296875;-0.13232421875;90.625;-43.0625;-112.5625;
1441975615277216;0.42535400390625;-0.50372314453125;-0.36962890625;-0.65478515625;16.692526494243822;6.2646570336961735;9.710497230095033;-1.3017578125;0.24609375;-0.1943359375;66.4375;-47.875;-118.75;
1441975615292216;0.430419921875;-0.49102783203125;-0.356201171875;-0.66839599609375;16.437224613321373;6.156906118595954;9.572432998009184;-1.1552734375;0.1328125;-0.12353515625;28.5;-51.375;-129.3125;
1441975615315218;0.43231201171875;-0.480712890625;-0.339111328125;-0.68341064453125;16.18471036707096;6.08879727944802;9.441899575146323;-1.04736328125;-0.017578125;-0.01318359375;26.3125;-46.1875;-128.8125;
1441975615337219;0.42919921875;-0.4722900390625;-0.31768798828125;-0.7012939453125;15.92480289766377;6.078168482924759;9.325499799345803;-1.0263671875;-0.1142578125;0.05224609375;56.875;-37.9375;-129.75;
1441975615352220;0.4248046875;-0.46356201171875;-0.2960205078125;-0.7191162109375;15.665208656698853;6.094645075666241;9.23081513970884;-0.93115234375;-0.0439453125;0.0263671875;98.875;-37.8125;-135.1875;
1441975615383222;0.4237060546875;-0.452392578125;-0.2772216796875;-0.73419189453125;15.404513346485523;6.098149404341106;9.155228037540333;-0.81201171875;0.08447265625;-0.0498046875;104.0625;-41.5625;-135.375;
1441975615397222;0.42498779296875;-0.440185546875;-0.260498046875;-0.74688720703125;15.150834762000354;6.089492483105735;9.0899596772435;-0.7841796875;0.11767578125;-0.07568359375;72.375;-46.375;-133.9375;
1441975615412223;0.42779541015625;-0.427001953125;-0.24505615234375;-0.758056640625;14.898307898840953;6.075734200866206;9.03443490182579;-0.78369140625;0.1376953125;-0.05859375;49.1875;-46.125;-131.25;
1441975615442225;0.43414306640625;-0.41217041015625;-0.232177734375;-0.76666259765625;14.646540361168876;6.042585394745189;8.990262270532336;-0.85302734375;0.189453125;-0.07421875;34.25;-47.625;-131.3125;
1441975615457226;0.4423828125;-0.3975830078125;-0.220947265625;-0.77294921875;14.410322762883597;5.996150653761779;8.950134411244278;-0.9638671875;0.1455078125;-0.04248046875;3.5;-50.25;-130.125;
1441975615472227;0.4483642578125;-0.3848876953125;-0.2095947265625;-0.779052734375;14.196436936374262;5.965766203982298;8.913652101867797;-1.02880859375;-0.0166015625;0.0068359375;-13.25;-45.3125;-122.3125;
1441975615496228;0.449951171875;-0.378662109375;-0.1998291015625;-0.78375244140625;14.065567437441505;5.955100329603505;8.875583837779796;-0.9794921875;-0.10693359375;0.03759765625;-1.1875;-38.5;-111.4375;
1441975615517229;0.45025634765625;-0.37384033203125;-0.19036865234375;-0.7882080078125;13.953103940467061;5.951847324982866;8.838595820134035;-0.8544921875;-0.08349609375;0.044921875;19.0;-27.25;-97.3125;
1441975615532230;0.44677734375;-0.37066650390625;-0.1806640625;-0.79400634765625;13.858946039455464;5.976688970405047;8.807946176433997;-0.775390625;-0.1435546875;0.0556640625;25.9375;-20.3125;-84.0;
1441975615556232;0.43865966796875;-0.36993408203125;-0.171875;-0.80078125;13.800587130549324;6.034575919182677;8.78880549529006;-0.70556640625;-0.15771484375;0.05322265625;49.0625;-18.6875;-71.375;
1441975615577233;0.4322509765625;-0.37066650390625;-0.16552734375;-0.80523681640625;13.773291462161037;6.075654103245066;8.770335291768612;-0.61572265625;0.025390625;0.015625;71.0625;-17.0625;-57.6875;
1441975615599234;0.43231201171875;-0.370361328125;-0.163330078125;-0.8057861328125;13.756655489392783;6.07176113137793;8.757685550613475;-0.5498046875;0.15234375;-0.044921875;52.9375;-11.8125;-47.8125;
1441975615615235;0.43560791015625;-0.36993408203125;-0.16387939453125;-0.80413818359375;13.753218188087821;6.0456119094780405;8.750520808008677;-0.53857421875;0.07958984375;-0.013671875;3.6875;-11.0;-37.0;
1441975615637236;0.43975830078125;-0.37054443359375;-0.16552734375;-0.80120849609375;13.76745719536976;6.009663212112434;8.741589046863197;-0.49658203125;0.01806640625;0.0458984375;-23.1875;-6.625;-24.9375;
1441975615652237;0.442626953125;-0.373046875;-0.1676025390625;-0.79803466796875;13.805229836026344;5.978423922575681;8.730744728303552;-0.44287109375;-0.01025390625;0.0712890625;-31.9375;1.9375;-14.3125;
1441975615675238;0.44232177734375;-0.37744140625;-0.169677734375;-0.79571533203125;13.865348762023363;5.967638931191847;8.722604273242004;-0.4443359375;0.01123046875;0.02490234375;-24.4375;6.875;-5.9375;
1441975615697240;0.43975830078125;-0.384765625;-0.173095703125;-0.79290771484375;13.967039951842946;5.967446107157903;8.71666542505831;-0.48486328125;0.04638671875;-0.0126953125;-5.4375;8.0625;2.0;
1441975615712240;0.43634033203125;-0.3936767578125;-0.178955078125;-0.78912353515625;14.102316261243095;5.972873401556857;8.721228786917708;-0.55908203125;0.0546875;-0.05029296875;5.125;13.3125;17.375;
1441975615735242;0.4349365234375;-0.4031982421875;-0.1866455078125;-0.78326416015625;14.255313208830028;5.959711186460032;8.724694187372574;-0.5107421875;0.1591796875;-0.04052734375;0.0;17.5625;32.4375;
1441975615758243;0.43218994140625;-0.41290283203125;-0.19451904296875;-0.77777099609375;14.413422730323353;5.958012573851341;8.734011891272296;-0.48828125;0.1533203125;-0.072265625;-16.5625;21.5;41.4375;
1441975615772244;0.4210205078125;-0.42816162109375;-0.2025146484375;-0.77362060546875;14.640058839605217;6.013205133354584;8.75542340720884;-0.60302734375;0.015625;-0.076171875;-6.75;17.3125;49.3125;
1441975615795245;0.4127197265625;-0.44635009765625;-0.2142333984375;-0.7646484375;14.923923478658507;6.034080104306398;8.77121194712475;-0.724609375;0.25244140625;-0.185546875;39.0625;21.0;65.75;
1441975615818247;0.4107666015625;-0.4627685546875;-0.23046875;-0.75103759765625;15.217780747913242;6.006463482634132;8.791144811053561;-0.7607421875;0.3837890625;-0.3037109375;9.9375;32.9375;80.1875;
1441975615832247;0.4061279296875;-0.47564697265625;-0.24407958984375;-0.74114990234375;15.458916167827821;6.024207484829791;8.836033708594355;-0.8349609375;0.28564453125;-0.2587890625;-42.4375;36.0625;90.75;
1441975615863249;0.39996337890625;-0.49176025390625;-0.259033203125;-0.7288818359375;15.750675643219495;6.045590996081318;8.881949938222041;-0.9052734375;0.34228515625;-0.23046875;-22.25;36.5625;103.3125;
1441975615878250;0.39324951171875;-0.5084228515625;-0.2774658203125;-0.714111328125;16.07851171117485;6.093706337502833;8.968742771039812;-1.14208984375;0.50830078125;-0.39501953125;-19.75;48.0625;120.1875;
1441975615907252;0.37860107421875;-0.53173828125;-0.29541015625;-0.6976318359375;16.491923604379053;6.2316725689183805;9.1050806451201;-1.3974609375;0.2998046875;-0.41748046875;-31.875;48.1875;144.375;
1441975615915252;0.3681640625;-0.553955078125;-0.32025146484375;-0.67462158203125;16.946563596135555;6.45400851899721;9.380355762014771;-1.39404296875;0.72314453125;-0.3701171875;7.1875;69.625;177.6875;
1441975615938253;0.36370849609375;-0.574462890625;-0.36053466796875;-0.6385498046875;17.47990446290945;7.3162506194895665;10.40023048887036;-1.916015625;0.77685546875;-0.4951171875;-46.25;87.75;218.375;
1441975615959255;0.34075927734375;-0.6048583984375;-0.3944091796875;-0.6021728515625;17.56466480706724;12.076062448727882;15.21050317476535;-2.578125;-0.0810546875;0.11181640625;-149.5625;100.375;279.6875;
1441975615975256;0.30572509765625;-0.6383056640625;-0.4248046875;-0.56451416015625;16.863030870560063;13.52567274033451;16.652903143822193;-2.6201171875;-0.2587890625;0.14599609375;-40.6875;113.3125;338.5;
1441975615998257;0.26544189453125;-0.6729736328125;-0.455078125;-0.51922607421875;16.011925347287924;13.894312173258696;17.00902861298851;-2.638671875;-0.0771484375;0.05078125;17.6875;107.5625;377.8125;
1441975616019258;0.22698974609375;-0.7021484375;-0.48602294921875;-0.46832275390625;15.143044915774082;14.03618628079156;17.171026647155745;-2.66943359375;0.14599609375;9.765625E-4;24.6875;127.0;417.1875;
1441975616035259;0.2012939453125;-0.7164306640625;-0.5208740234375;-0.41827392578125;14.3996553319575;14.026978694930403;17.27439704058774;-2.72998046875;0.658203125;0.08447265625;-6.25;136.125;418.5625;
1441975616058260;0.18310546875;-0.71942138671875;-0.55706787109375;-0.372314453125;13.770404754450524;13.936532060164097;17.350174421554886;-2.8173828125;0.5439453125;0.07763671875;-97.0625;123.0625;355.625;
1441975616081262;0.173095703125;-0.7086181640625;-0.6025390625;-0.323974609375;13.188716888594268;13.746900400309105;17.438114398316586;-2.65380859375;0.3134765625;0.12109375;-149.3125;99.875;302.625;
1441975616095262;0.16632080078125;-0.68121337890625;-0.656494140625;-0.2783203125;12.668906335450947;13.440227721873097;17.501587527343375;-2.81005859375;-0.20751953125;0.076171875;-251.875;96.875;281.5625;
