1441975732830939;0.0386962890625;-0.65765380859375;-0.75225830078125;-0.01220703125;9.425937608597826;13.119599314074625;0.0934671251007444;-0.8994140625;0.1044921875;-0.1552734375;-32.75;32.1875;126.375;
1441975732860941;0.040771484375;-0.65203857421875;-0.75714111328125;-0.001953125;9.368558367243907;13.078093989202385;0.14419258934299245;-0.73046875;0.20751953125;-0.12841796875;-38.75;36.5625;102.4375;
1441975732875942;0.04547119140625;-0.64599609375;-0.76202392578125;0.0059814453125;9.352973018116469;13.034926982533436;0.19491868072482313;-0.64013671875;0.306640625;-0.04931640625;-51.0625;39.5625;78.0;
1441975732890943;0.0531005859375;-0.64129638671875;-0.76544189453125;0.01177978515625;9.379427306993255;13.003874053666483;0.24759300577734392;-0.55810546875;0.32666015625;0.01123046875;-49.0625;42.9375;52.0625;
1441975732912944;0.06256103515625;-0.63873291015625;-0.76678466796875;0.01544189453125;9.437064999006434;12.990823811842322;0.2981710784718536;-0.49560546875;0.31396484375;0.08251953125;-32.25;48.6875;28.375;
1441975732935945;0.074951171875;-0.638427734375;-0.76593017578125;0.01666259765625;9.536651321627494;12.997637117283874;0.3496380305583989;-0.4208984375;0.412109375;0.1533203125;-10.9375;50.3125;6.6875;
1441975732958947;0.09130859375;-0.6375732421875;-0.764892578125;0.01422119140625;9.698077512319784;13.005719528487301;0.40009327026766267;-0.35888671875;0.572265625;0.12060546875;3.875;55.4375;-19.25;
1441975732972947;0.1102294921875;-0.63421630859375;-0.7652587890625;0.007568359375;9.915459175740498;13.00043922764686;0.4410454436889293;-0.3662109375;0.68994140625;0.0478515625;-2.375;59.6875;-51.625;
1441975732995949;0.13067626953125;-0.62701416015625;-0.76800537109375;-0.00115966796875;10.16634716122651;12.971644809609023;0.47630981793595006;-0.3583984375;0.7587890625;0.025390625;-18.25;54.625;-84.1875;
1441975733018950;0.15484619140625;-0.61883544921875;-0.77001953125;-0.01214599609375;10.468465146842009;12.945279779209251;0.5149380869656474;-0.32373046875;0.7177734375;0.09912109375;-35.5625;56.125;-114.25;
1441975733048952;0.181884765625;-0.61083984375;-0.77020263671875;-0.0260009765625;10.817445323753766;12.930410981344508;0.5525979679363582;-0.39208984375;0.6875;0.08642578125;-36.0625;64.5;-137.9375;
1441975733055952;0.20947265625;-0.60382080078125;-0.7679443359375;-0.04296875;11.193743575988641;12.930789323131599;0.5813952672629834;-0.53564453125;0.6484375;0.07421875;-26.3125;68.0;-159.1875;
1441975733070953;0.23736572265625;-0.59625244140625;-0.764404296875;-0.0625;11.593705559767024;12.934554319319947;0.6017083480763052;-0.6728515625;0.666015625;0.01708984375;-11.375;61.75;-172.8125;
1441975733092954;0.26593017578125;-0.58642578125;-0.7607421875;-0.08172607421875;12.002979013356386;12.931130214577449;0.6255479334220794;-0.751953125;0.68115234375;-0.02099609375;-6.875;55.25;-186.0;
1441975733123956;0.29547119140625;-0.57403564453125;-0.75701904296875;-0.10089111328125;12.4273330876866;12.919076154238926;0.6520067736681919;-0.84619140625;0.6484375;-0.064453125;-17.625;57.875;-190.0;
1441975733130956;0.32562255859375;-0.56103515625;-0.75146484375;-0.12078857421875;12.867273641281594;12.91438370540007;0.6808985880560574;-0.93115234375;0.53955078125;-0.07568359375;-28.9375;60.875;-195.6875;
1441975733152958;0.355712890625;-0.5491943359375;-0.74273681640625;-0.142333984375;13.321178303236612;12.931188326020711;0.71194425309406;-1.0009765625;0.4462890625;-0.0517578125;-23.5625;64.125;-202.375;
1441975733175959;0.38482666015625;-0.538330078125;-0.731201171875;-0.16571044921875;13.78321029662648;12.96680426058402;0.7422471098767517;-1.08740234375;0.4189453125;-0.03759765625;-5.375;65.125;-209.4375;
1441975733199960;0.412841796875;-0.5281982421875;-0.71734619140625;-0.18975830078125;14.244238306378058;13.022363642842151;0.7797715381910175;-1.1728515625;0.42919921875;-0.01513671875;12.9375;62.4375;-214.75;
1441975733212961;0.4390869140625;-0.51885986328125;-0.70172119140625;-0.213623046875;14.691519355221011;13.099691608531282;0.8293461989897788;-1.22998046875;0.396484375;0.0;26.0;61.875;-215.4375;
1441975733243963;0.4637451171875;-0.5093994140625;-0.68487548828125;-0.23760986328125;15.131110058750242;13.195299638838057;0.8914898163083943;-1.27587890625;0.3701171875;0.00341796875;36.4375;60.9375;-210.375;
1441975733251963;0.48651123046875;-0.498779296875;-0.66796875;-0.26153564453125;15.561526817162447;13.29785937362044;0.9610578719227337;-1.3017578125;0.35205078125;-0.03271484375;41.6875;56.8125;-208.9375;
1441975733272965;0.50750732421875;-0.48760986328125;-0.65081787109375;-0.284912109375;15.978121567752607;13.421979823709448;1.0519281378812817;-1.33544921875;0.33740234375;-0.03662109375;39.625;48.9375;-207.6875;
1441975733295966;0.5269775390625;-0.47637939453125;-0.63330078125;-0.3072509765625;16.375936163321622;13.59393381561816;1.1904979150816855;-1.330078125;0.29443359375;-0.02001953125;39.875;44.0;-203.0625;
1441975733318967;0.54412841796875;-0.465576171875;-0.61572265625;-0.32879638671875;16.74658809160697;13.838907483122465;1.3982148857805956;-1.328125;0.2236328125;-0.02197265625;40.3125;42.5625;-196.625;
1441975733332968;0.55780029296875;-0.4564208984375;-0.59783935546875;-0.3509521484375;17.084939468200233;14.207567154093539;1.713608277003433;-1.345703125;0.14794921875;-0.060546875;43.375;37.125;-186.0;
1441975733355969;0.56689453125;-0.4505615234375;-0.5789794921875;-0.374755859375;17.37770671196736;14.835274241795243;2.2589369453429917;-1.3466796875;0.01318359375;-0.03955078125;58.4375;27.75;-173.625;
1441975733379971;0.5718994140625;-0.44793701171875;-0.5594482421875;-0.39923095703125;17.59258198306464;16.058313965228148;3.3756788849060757;-1.27978515625;-9.765625E-4;-0.0078125;87.3125;18.5625;-160.0625;
1441975733392971;0.573974609375;-0.44635009765625;-0.5416259765625;-0.421875;17.671270452706427;0.039041858843781856;5.24982946091531;-1.216796875;0.076171875;-0.01611328125;110.5;12.0;-145.0625;
1441975733423973;0.57489013671875;-0.44403076171875;-0.5269775390625;-0.44122314453125;17.611039677955233;1.771259732807052;6.893377804282588;-1.19775390625;0.13427734375;-0.06103515625;110.3125;3.5;-126.125;
1441975733431974;0.57415771484375;-0.44219970703125;-0.51641845703125;-0.45623779296875;17.518385903229994;2.6573737191463622;7.709138783247898;-1.162109375;0.14013671875;-0.04638671875;91.75;-4.0;-108.6875;
1441975733452975;0.5732421875;-0.44000244140625;-0.50848388671875;-0.46826171875;17.42725909625499;3.1796904515454805;8.177862647779055;-1.1064453125;0.15380859375;-0.02783203125;73.5;-7.875;-92.5;
1441975733475976;0.57196044921875;-0.43792724609375;-0.50311279296875;-0.47747802734375;17.35630900909499;3.5144890887271076;8.473110180441829;-1.03759765625;0.1533203125;-0.0185546875;56.1875;-11.0;-78.3125;
1441975733491977;0.57061767578125;-0.435791015625;-0.49932861328125;-0.4849853515625;17.29775029640695;3.766151191770484;8.694682215491097;-0.99658203125;0.158203125;-0.01513671875;41.5;-13.0625;-63.5;
1441975733512978;0.56817626953125;-0.4346923828125;-0.49676513671875;-0.491455078125;17.260355751233185;3.9746349780807453;8.873384846753561;-1.0126953125;0.0947265625;-0.0263671875;32.25;-15.75;-50.5;
1441975733535980;0.564208984375;-0.4354248046875;-0.4949951171875;-0.49700927734375;17.248755735638944;4.150986182398009;9.015188967879775;-0.99658203125;0.08203125;-0.01318359375;31.3125;-16.875;-38.125;
1441975733551981;0.55950927734375;-0.4376220703125;-0.49462890625;-0.5008544921875;17.265432207114632;4.2970507555886766;9.129252210967127;-0.9697265625;0.11328125;-0.02001953125;36.25;-17.625;-25.1875;
1441975733572982;0.55474853515625;-0.43994140625;-0.495849609375;-0.50286865234375;17.301186206446385;4.439938083647025;9.249447895897829;-0.96826171875;0.15869140625;-0.04052734375;33.3125;-17.5625;-13.0625;
1441975733594983;0.54986572265625;-0.44207763671875;-0.49835205078125;-0.50390625;17.34758036497889;4.613263050780148;9.40673621773011;-1.01806640625;0.1513671875;-0.06005859375;24.3125;-20.0;-2.25;
1441975733617984;0.5443115234375;-0.44476318359375;-0.5013427734375;-0.50457763671875;17.402978182241448;4.827190681753253;9.60358606761185;-1.0615234375;0.1162109375;-0.04833984375;17.6875;-21.9375;6.6875;
1441975733632985;0.537841796875;-0.44873046875;-0.504150390625;-0.5052490234375;17.466671901176706;5.083773935206969;9.836257048754165;-1.07275390625;0.1064453125;-0.021484375;18.375;-21.5625;13.9375;
1441975733658987;0.5306396484375;-0.45379638671875;-0.506591796875;-0.50592041015625;17.534760143737422;5.400523021013209;10.122813891643057;-1.0673828125;0.11328125;-0.02197265625;25.0;-20.375;20.375;
1441975733677988;0.52264404296875;-0.459716796875;-0.50872802734375;-0.5067138671875;17.602778675678053;5.832197417433517;10.51837990116847;-1.0703125;0.10791015625;-0.0234375;31.0625;-18.875;25.5625;
1441975733692989;0.51416015625;-0.46624755859375;-0.51092529296875;-0.50726318359375;17.66659560404349;6.4506127487333575;11.098434373782519;-1.05224609375;0.11669921875;-0.029296875;37.0625;-18.9375;29.6875;
1441975733716990;0.505859375;-0.47283935546875;-0.51336669921875;-0.5069580078125;17.716902817740696;7.31397095794202;11.926966423513504;-1.02685546875;0.154296875;-0.03466796875;39.5625;-18.5625;32.625;
1441975733731991;0.4986572265625;-0.4786376953125;-0.51666259765625;-0.50537109375;17.73882285931808;8.403183672293077;12.99290596765286;-0.99951171875;0.19921875;-0.0419921875;35.375;-17.5625;33.25;
1441975733752992;0.4927978515625;-0.483154296875;-0.5205078125;-0.5028076171875;17.724708188124662;9.443510361776971;14.0218682470767;-0.98681640625;0.2548828125;-0.04736328125;23.8125;-15.8125;32.0625;
1441975733775993;0.48809814453125;-0.4864501953125;-0.5245361328125;-0.50006103515625;17.68479473194316;10.188448289620721;14.763313032968949;-0.99951171875;0.2548828125;-0.05615234375;11.6875;-15.4375;30.125;
1441975733791994;0.4840087890625;-0.48931884765625;-0.52838134765625;-0.49713134765625;17.634868261525273;10.713549374524654;15.287900772796217;-0.98828125;0.2265625;-0.03564453125;3.5625;-14.5625;27.6875;
1441975733813996;0.48040771484375;-0.49200439453125;-0.5316162109375;-0.4945068359375;17.584481839259325;11.073546589186178;15.646684675538557;-0.95654296875;0.22509765625;-0.01806640625;0.6875;-11.5;25.9375;
1441975733843997;0.47686767578125;-0.4947509765625;-0.5340576171875;-0.4925537109375;17.536131949709304;11.326150071185772;15.893874906973434;-0.9375;0.18896484375;-0.0087890625;1.3125;-9.0;24.4375;
1441975733851998;0.47308349609375;-0.497802734375;-0.5361328125;-0.490966796875;17.48598097306166;11.530081420800279;16.088714126231682;-0.90625;0.1396484375;-0.0087890625;5.5625;-8.5;24.5;
1441975733872999;0.46881103515625;-0.5015869140625;-0.53753662109375;-0.4896240234375;17.434538396617054;11.72201198220197;16.26542765490062;-0.8583984375;0.09033203125;0.00927734375;9.25;-6.625;27.25;
1441975733896000;0.4637451171875;-0.50616455078125;-0.53875732421875;-0.4884033203125;17.375090627942026;11.904670261492985;16.427434357288842;-0.8447265625;0.06494140625;0.013671875;15.875;-5.1875;31.0;
1441975733912001;0.45849609375;-0.51080322265625;-0.54083251953125;-0.4862060546875;17.303289142590614;12.078320669710607;16.58497726333268;-0.83984375;0.06298828125;-0.00244140625;21.125;-6.0;35.0;
1441975733933002;0.45355224609375;-0.51495361328125;-0.5438232421875;-0.48321533203125;17.224112497634597;12.219694522406922;16.717416360319703;-0.83349609375;0.1025390625;-0.00927734375;16.875;-6.3125;39.0;
1441975733964004;0.4488525390625;-0.5184326171875;-0.54736328125;-0.47979736328125;17.14180900978799;12.323632070896412;16.817845860163608;-0.8466796875;0.123046875;0.0;9.5;-6.5625;41.625;
1441975733972005;0.44366455078125;-0.52215576171875;-0.55078125;-0.47674560546875;17.056272812823007;12.405084605578683;16.892277768447155;-0.8544921875;0.11865234375;0.01318359375;4.1875;-6.8125;43.25;
1441975733993006;0.43798828125;-0.52667236328125;-0.5533447265625;-0.4739990234375;16.97111272437289;12.4905343968931;16.963674728269815;-0.85107421875;0.1240234375;0.037109375;7.5;-6.6875;44.375;
1441975734015007;0.43212890625;-0.53155517578125;-0.5552978515625;-0.47161865234375;16.888382221761994;12.570087062547021;17.024762960106404;-0.86328125;0.15966796875;0.04052734375;15.0;-5.125;43.375;
1441975734032008;0.427001953125;-0.5357666015625;-0.557373046875;-0.46905517578125;16.81125480839907;12.634396532919508;17.075504783082156;-0.88623046875;0.21142578125;0.0380859375;19.0625;-4.125;39.5625;
1441975734053009;0.42315673828125;-0.53863525390625;-0.5599365234375;-0.4661865234375;16.743336563739312;12.676762606523855;17.114139071780226;-0.91015625;0.23876953125;0.03369140625;14.125;-3.8125;35.8125;
1441975734077011;0.42059326171875;-0.54034423828125;-0.562744140625;-0.46319580078125;16.68666589981304;12.703611587217889;17.145355053342378;-0.91748046875;0.23681640625;0.0546875;4.3125;-2.5625;32.0;
1441975734092011;0.419189453125;-0.541015625;-0.565673828125;-0.4600830078125;16.64081666390082;12.719451808159128;17.17261322605603;-0.90283203125;0.212890625;0.0576171875;-3.6875;-1.0;28.375;
1441975734121013;0.41851806640625;-0.54107666015625;-0.5689697265625;-0.45660400390625;16.59850784415468;12.730333538949266;17.200915211215307;-0.8701171875;0.1728515625;0.07080078125;-10.5;0.6875;26.0;
1441975734135014;0.41876220703125;-0.54022216796875;-0.5728759765625;-0.45245361328125;16.559210044108944;12.73458434908666;17.231588353383827;-0.84765625;0.15234375;0.06640625;-16.1875;1.625;25.4375;
1441975734153015;0.41998291015625;-0.53863525390625;-0.5771484375;-0.44775390625;16.524929131719446;12.736422874766495;17.267452349218985;-0.8544921875;0.1455078125;0.05810546875;-25.0625;2.1875;25.4375;
1441975734174016;0.421875;-0.536376953125;-0.58123779296875;-0.443359375;16.500625560283414;12.729799778817004;17.297344541250766;-0.908203125;0.1494140625;0.03564453125;-32.9375;2.125;24.25;
1441975734195017;0.42388916015625;-0.53375244140625;-0.58514404296875;-0.439453125;16.481990275300976;12.714147681514506;17.317694686804195;-0.98876953125;0.13671875;0.01953125;-35.8125;0.8125;21.8125;
1441975734212018;0.42572021484375;-0.53118896484375;-0.58868408203125;-0.43603515625;16.466395027265254;12.69582810740834;17.332216661189747;-1.0322265625;0.119140625;0.02294921875;-35.625;-0.75;20.75;
1441975734235020;0.42730712890625;-0.52911376953125;-0.591552734375;-0.43316650390625;16.45410921957486;12.68281480361726;17.346401958389567;-1.01318359375;0.10791015625;0.04736328125;-32.1875;-0.5;19.1875;
1441975734255021;0.42840576171875;-0.527587890625;-0.593994140625;-0.4305419921875;16.440059918498623;12.675725752756414;17.361590621477404;-0.9833984375;0.09423828125;0.06689453125;-25.8125;1.125;18.125;
1441975734272022;0.42938232421875;-0.52642822265625;-0.596435546875;-0.4276123046875;16.422396181538122;12.676451794925962;17.384079700601795;-0.93603515625;0.10888671875;0.08642578125;-20.875;2.8125;17.6875;
1441975734294023;0.43096923828125;-0.52484130859375;-0.59918212890625;-0.42413330078125;16.406342043174295;12.677996994859903;17.412872391856606;-0.8935546875;0.14208984375;0.08642578125;-20.125;4.5;16.8125;
1441975734315024;0.43341064453125;-0.52227783203125;-0.602294921875;-0.42034912109375;16.396464333870135;12.670950515595553;17.440322918822595;-0.884765625;0.16259765625;0.07666015625;-25.75;5.625;15.25;
1441975734332025;0.43621826171875;-0.5191650390625;-0.6053466796875;-0.4168701171875;16.39318261922798;12.655624938640367;17.461080117299247;-0.9052734375;0.1494140625;0.0732421875;-32.6875;5.6875;13.625;
1441975734354026;0.4390869140625;-0.516357421875;-0.60772705078125;-0.4139404296875;16.396127964301584;12.644904200934981;17.482172382545567;-0.9287109375;0.12353515625;0.087890625;-34.5;5.8125;12.0625;
1441975734384028;0.4417724609375;-0.51434326171875;-0.6090087890625;-0.4117431640625;16.40517927155557;12.646000255971074;17.50692650969562;-0.96435546875;0.11767578125;0.09814453125;-29.9375;7.125;10.25;
1441975734398029;0.444091796875;-0.51275634765625;-0.6094970703125;-0.41046142578125;16.419215353396282;12.648075691224491;17.52539696034525;-1.00927734375;0.11962890625;0.08642578125;-21.9375;7.8125;8.1875;
1441975734414030;0.44573974609375;-0.5115966796875;-0.6097412109375;-0.40972900390625;16.430796962695567;12.648180806446495;17.536421260763454;-1.048828125;0.10888671875;0.08642578125;-14.5;7.0;6.5;
1441975734435031;0.447021484375;-0.5107421875;-0.60986328125;-0.4093017578125;16.44075076899389;12.648036712311878;17.54400018390455;-1.021484375;0.109375;0.09814453125;-9.4375;5.4375;6.3125;
1441975734452032;0.44805908203125;-0.5101318359375;-0.60955810546875;-0.4093017578125;16.45265698744783;12.649000382875462;17.548812163661214;-0.97412109375;0.11083984375;0.1083984375;-6.125;5.4375;6.0625;
1441975734491034;0.44866943359375;-0.50982666015625;-0.6092529296875;-0.40948486328125;16.461131996644347;12.649472065487638;17.55047896770988;-0.962890625;0.10107421875;0.11767578125;-2.0;5.5625;5.125;
1441975734496035;0.44915771484375;-0.50958251953125;-0.6090087890625;-0.40960693359375;16.467790567974987;12.650134822664487;17.552172978616117;-0.9462890625;0.1201171875;0.12060546875;0.3125;4.875;4.75;
1441975734512035;0.44989013671875;-0.50897216796875;-0.6087646484375;-0.409912109375;16.47851839563096;12.645056048720633;17.5493446429868;-0.9453125;0.14697265625;0.1279296875;0.375;4.6875;3.625;
1441975734534037;0.45074462890625;-0.5084228515625;-0.60821533203125;-0.4105224609375;16.49330165041253;12.641013200417811;17.54593089256105;-0.96435546875;0.1572265625;0.13232421875;-0.8125;4.875;0.9375;
1441975734556038;0.45147705078125;-0.5078125;-0.60736083984375;-0.41168212890625;16.511908870349718;12.631616776184474;17.534512510043033;-0.97021484375;0.1630859375;0.13037109375;0.4375;4.6875;-1.4375;
1441975734572039;0.45220947265625;-0.50738525390625;-0.6060791015625;-0.413330078125;16.53482795729632;12.622970051545558;17.520629983209016;-0.95947265625;0.1669921875;0.13720703125;3.25;4.1875;-4.5;
1441975734595040;0.45294189453125;-0.5068359375;-0.6044921875;-0.4154052734375;16.562078150660568;12.609799807023826;17.50046857997172;-0.97314453125;0.1796875;0.13134765625;6.0;3.6875;-7.875;
1441975734615041;0.45379638671875;-0.50604248046875;-0.60284423828125;-0.4178466796875;16.59317948017694;12.588964736989919;17.472434779327287;-0.96728515625;0.181640625;0.123046875;7.5;2.625;-11.0;
1441975734632042;0.45458984375;-0.505126953125;-0.60107421875;-0.42059326171875;16.62630577473791;12.561815455663837;17.437037339402483;-0.95458984375;0.1865234375;0.119140625;7.25;1.25;-14.125;
1441975734654044;0.45556640625;-0.50396728515625;-0.59912109375;-0.4237060546875;16.66431407997257;12.52717212717436;17.393777498013513;-0.94287109375;0.1904296875;0.11474609375;7.75;-0.125;-16.5625;
1441975734679045;0.45660400390625;-0.50238037109375;-0.5972900390625;-0.42718505859375;16.7047455884813;12.476865336976541;17.335541535720985;-0.943359375;0.17578125;0.107421875;8.1875;-1.1875;-18.9375;
1441975734698046;0.45745849609375;-0.50067138671875;-0.59539794921875;-0.43084716796875;16.744793225074968;12.41746010641538;17.267368965352453;-0.96630859375;0.1748046875;0.11376953125;7.1875;-2.9375;-21.1875;
1441975734714047;0.45806884765625;-0.4989013671875;-0.593505859375;-0.434814453125;16.783658621492826;12.346271268584083;17.186015017743326;-0.9677734375;0.1650390625;0.1142578125;7.875;-4.625;-21.625;
1441975734735048;0.45855712890625;-0.49725341796875;-0.5914306640625;-0.43902587890625;16.822475216271837;12.269371521827754;17.097016972304274;-0.9677734375;0.150390625;0.12060546875;8.75;-5.9375;-21.9375;
1441975734758049;0.45867919921875;-0.49591064453125;-0.58929443359375;-0.44329833984375;16.857172005119605;12.190345549163036;17.003630477101467;-0.9736328125;0.12841796875;0.11328125;11.1875;-7.25;-21.375;
1441975734774050;0.45855712890625;-0.49481201171875;-0.58740234375;-0.4471435546875;16.885121189812708;12.115396383184121;16.91488387303279;-0.9638671875;0.12939453125;0.10791015625;12.75;-7.9375;-20.5;
1441975734796052;0.45855712890625;-0.49365234375;-0.58563232421875;-0.45068359375;16.911447340916954;12.040379123804039;16.827847596039703;-0.9560546875;0.14794921875;0.11328125;12.625;-7.625;-19.375;
1441975734820053;0.458740234375;-0.4923095703125;-0.58428955078125;-0.4537353515625;16.93426719687703;11.96438882545577;16.743535001390253;-0.96533203125;0.154296875;0.09814453125;10.25;-7.6875;-18.8125;
1441975734836054;0.458984375;-0.49078369140625;-0.58331298828125;-0.4564208984375;16.953416991509627;11.885679954229468;16.659329906546585;-0.9736328125;0.1533203125;0.0927734375;6.75;-8.0625;-17.625;
1441975734856055;0.45916748046875;-0.4893798828125;-0.5823974609375;-0.45880126953125;16.969823437662725;11.812448888790062;16.581155219964867;-0.96533203125;0.14892578125;0.095703125;4.375;-8.125;-16.125;
1441975734878056;0.45928955078125;-0.48809814453125;-0.5816650390625;-0.4610595703125;16.98321035209431;11.740910812468877;16.505008877254525;-0.958984375;0.138671875;0.09228515625;3.5;-7.6875;-14.25;
1441975734902058;0.45928955078125;-0.4871826171875;-0.58099365234375;-0.462890625;16.993161143488834;11.684637858411516;16.444144903779453;-0.95703125;0.126953125;0.10400390625;3.625;-7.0625;-12.125;
1441975734915058;0.45916748046875;-0.48638916015625;-0.58062744140625;-0.4642333984375;16.99833873835096;11.638629873754397;16.395148216045957;-0.95703125;0.13134765625;0.09716796875;3.5625;-6.125;-10.0625;
1441975734932059;0.459228515625;-0.485595703125;-0.58062744140625;-0.46502685546875;17.001075068783397;11.602477363294213;16.359163187439545;-0.94921875;0.13330078125;0.09228515625;2.1875;-5.6875;-7.5;
1441975734960061;0.4593505859375;-0.48480224609375;-0.5810546875;-0.4652099609375;16.999925179911827;11.577246526617444;16.337271626482494;-0.94775390625;0.1337890625;0.09130859375;-1.0625;-5.1875;-4.8125;
1441975734976062;0.45947265625;-0.484130859375;-0.58172607421875;-0.46490478515625;16.99595993822507;11.564301520709439;16.329435427907143;-0.9560546875;0.130859375;0.0830078125;-3.75;-4.625;-2.0;
1441975734992063;0.45947265625;-0.483642578125;-0.5826416015625;-0.46429443359375;16.988462418225986;11.560898884460077;16.331843458406933;-0.9677734375;0.134765625;0.0830078125;-5.4375;-4.25;0.5;
1441975735014064;0.45953369140625;-0.48321533203125;-0.58367919921875;-0.46337890625;16.979996846430826;11.564913782633534;16.34290536953442;-0.96435546875;0.13330078125;0.08251953125;-6.3125;-3.6875;3.1875;
1441975735035065;0.45928955078125;-0.48297119140625;-0.5848388671875;-0.46246337890625;16.967876131037272;11.57185782989243;16.355845295069308;-0.96875;0.107421875;0.08251953125;-6.75;-3.0625;6.25;
1441975735052066;0.45849609375;-0.4832763671875;-0.5860595703125;-0.4613037109375;16.949702993674183;11.594795752687482;16.38252689603046;-0.96533203125;0.09033203125;0.08642578125;-5.625;-3.3125;9.6875;
1441975735074068;0.45745849609375;-0.48406982421875;-0.58740234375;-0.4598388671875;16.927415473140464;11.632843537145947;16.42343385651937;-0.962890625;0.09619140625;0.09228515625;-3.3125;-3.1875;13.1875;
1441975735098069;0.456298828125;-0.48486328125;-0.58905029296875;-0.45806884765625;16.90101871764246;11.673124892247145;16.467996642203335;-0.9814453125;0.10791015625;0.080078125;-2.0625;-3.1875;15.75;
1441975735113070;0.45526123046875;-0.4854736328125;-0.59100341796875;-0.45587158203125;16.872462077634754;11.714027522769946;16.516192784483135;-0.98974609375;0.11865234375;0.08447265625;-3.75;-3.3125;18.3125;
1441975735141071;0.45416259765625;-0.48614501953125;-0.593017578125;-0.45361328125;16.842466000366603;11.754556704418938;16.564019425799835;-0.98046875;0.11669921875;0.080078125;-6.25;-3.1875;19.8125;
1441975735157072;0.452880859375;-0.4871826171875;-0.5948486328125;-0.451416015625;16.811623832501414;11.799789841447938;16.614262441568098;-0.97412109375;0.11181640625;0.0986328125;-6.25;-2.25;21.125;
1441975735178074;0.4515380859375;-0.488525390625;-0.59649658203125;-0.44903564453125;16.780308006696348;11.85271373807614;16.671164959623315;-0.97314453125;0.1220703125;0.099609375;-3.875;-1.1875;21.6875;
1441975735202075;0.45037841796875;-0.48974609375;-0.5982666015625;-0.446533203125;16.74909723432577;11.902415898395432;16.726419063501936;-0.96728515625;0.14111328125;0.09716796875;-2.6875;0.0625;21.875;
1441975735217076;0.44964599609375;-0.49053955078125;-0.60028076171875;-0.44378662109375;16.719387693911692;11.945434698612114;16.778857281043052;-0.96484375;0.14794921875;0.1015625;-4.1875;0.75;21.8125;
1441975735238077;0.44915771484375;-0.4910888671875;-0.602294921875;-0.44097900390625;16.691656107673666;11.983742677018514;16.828180820717552;-0.95556640625;0.14404296875;0.1015625;-7.75;1.375;21.5625;
1441975735254078;0.4488525390625;-0.4915771484375;-0.6041259765625;-0.43817138671875;16.666548533838267;12.02120095529782;16.87684685867374;-0.95263671875;0.1376953125;0.103515625;-9.5625;1.75;20.9375;
1441975735277079;0.4488525390625;-0.491943359375;-0.605712890625;-0.435546875;16.64622991606545;12.055340777646805;16.9221781544357;-0.9541015625;0.14306640625;0.09033203125;-9.875;2.1875;20.125;
1441975735298080;0.44873046875;-0.49224853515625;-0.607177734375;-0.4332275390625;16.626675060003716;12.083194536064042;16.959822315349683;-0.96484375;0.138671875;0.0859375;-9.8125;2.1875;18.625;
1441975735314081;0.4486083984375;-0.49261474609375;-0.60845947265625;-0.4312744140625;16.609346648146346;12.107367040206375;16.99198481723033;-0.97314453125;0.14306640625;0.0888671875;-8.625;1.5625;17.1875;
1441975735337083;0.44842529296875;-0.49298095703125;-0.60931396484375;-0.42974853515625;16.59580577188653;12.12779755811371;17.01778301951679;-0.9658203125;0.1455078125;0.09814453125;-6.6875;1.625;15.625;
1441975735358084;0.44830322265625;-0.493408203125;-0.60986328125;-0.4285888671875;16.585919897516213;12.146362220700016;17.039747424729185;-0.95654296875;0.14404296875;0.09326171875;-4.25;1.5;13.4375;
1441975735382085;0.44830322265625;-0.49371337890625;-0.61016845703125;-0.42779541015625;16.58024374898033;12.160052171995998;17.055758840007876;-0.95751953125;0.14990234375;0.09912109375;-2.6875;1.4375;11.125;
1441975735397086;0.4483642578125;-0.4940185546875;-0.61029052734375;-0.42724609375;16.57716219552888;12.17199818748061;17.068947492153455;-0.95654296875;0.15087890625;0.0986328125;-1.375;1.5625;8.875;
1441975735413087;0.44866943359375;-0.49407958984375;-0.61016845703125;-0.42706298828125;16.579644299045057;12.17793139043599;17.075747360623293;-0.95458984375;0.15869140625;0.1005859375;-0.5;1.75;6.5;
1441975735435088;0.44915771484375;-0.49395751953125;-0.60980224609375;-0.42706298828125;16.586377522520536;12.181115379677298;17.079634426617716;-0.9521484375;0.158203125;0.10009765625;-0.4375;1.625;3.6875;
1441975735457089;0.44989013671875;-0.49371337890625;-0.60919189453125;-0.427490234375;16.598632119032974;12.179513281961516;17.077795370949822;-0.9609375;0.162109375;0.0986328125;-0.3125;1.625;1.0;
1441975735486091;0.45068359375;-0.49359130859375;-0.6083984375;-0.42803955078125;16.612765932168603;12.179989975250857;17.076956483070934;-0.96337890625;0.15625;0.1015625;0.5;2.0;-1.5;
1441975735494092;0.45159912109375;-0.49322509765625;-0.60736083984375;-0.4288330078125;16.631034842131253;12.175350943256223;17.070675321090782;-0.95654296875;0.1669921875;0.0986328125;1.5625;2.3125;-3.75;
1441975735517093;0.45281982421875;-0.49267578125;-0.60626220703125;-0.42974853515625;16.653096730872875;12.167672750607336;17.062197430384302;-0.9521484375;0.1689453125;0.09716796875;1.5;2.375;-6.125;
1441975735538094;0.45428466796875;-0.49200439453125;-0.60504150390625;-0.43084716796875;16.6789257175496;12.157108701184121;17.050973398155;-0.953125;0.1669921875;0.08935546875;0.5625;2.3125;-8.25;
1441975735554095;0.45574951171875;-0.4912109375;-0.60369873046875;-0.43206787109375;16.70629025622863;12.14302002953055;17.035898217895856;-0.95703125;0.1640625;0.08544921875;0.4375;2.3125;-10.3125;
1441975735577096;0.457275390625;-0.49029541015625;-0.60223388671875;-0.43341064453125;16.73567094567865;12.12544002522865;17.017168742036276;-0.95654296875;0.16845703125;0.08935546875;0.75;2.3125;-12.0;
1441975735598098;0.4588623046875;-0.4893798828125;-0.60064697265625;-0.43499755859375;16.76718394711792;12.104396886619117;16.99406344307349;-0.95556640625;0.17138671875;0.08984375;0.625;2.3125;-13.5625;
1441975735614098;0.46063232421875;-0.48828125;-0.5989990234375;-0.43670654296875;16.801366871898153;12.078060082467623;16.966180093888283;-0.96435546875;0.1708984375;0.083984375;1.375;2.0;-15.5;
1441975735637100;0.46246337890625;-0.4869384765625;-0.597412109375;-0.43841552734375;16.83604543559568;12.045017328338197;16.932667682349642;-0.97314453125;0.17138671875;0.08642578125;0.9375;2.0;-17.0625;
1441975735658101;0.46435546875;-0.48565673828125;-0.595703125;-0.440185546875;16.871981523019663;12.011444423967374;16.898087663163217;-0.96728515625;0.16650390625;0.0849609375;-0.4375;1.5625;-18.1875;
1441975735674102;0.466064453125;-0.484375;-0.59381103515625;-0.4422607421875;16.908462895517527;11.97043229203253;16.854153160725296;-0.9619140625;0.15966796875;0.080078125;0.25;1.6875;-18.5;
1441975735696103;0.4677734375;-0.483154296875;-0.5919189453125;-0.4443359375;16.94457492998883;11.927875771907752;16.80848899905755;-0.96728515625;0.14794921875;0.08642578125;1.75;1.4375;-19.125;
1441975735719104;0.46929931640625;-0.48199462890625;-0.59027099609375;-0.4461669921875;16.97636161211987;11.885757941749088;16.7639891903198;-0.97216796875;0.1357421875;0.08203125;2.375;1.0;-18.3125;
1441975735733105;0.47076416015625;-0.48089599609375;-0.58880615234375;-0.44781494140625;17.005480317437883;11.844496122159828;16.721047082440343;-0.970703125;0.13232421875;0.08447265625;1.625;0.75;-17.0625;
1441975735757107;0.47216796875;-0.47979736328125;-0.5875244140625;-0.44915771484375;17.03176006336172;11.805674038960248;16.681805669413265;-0.97802734375;0.13525390625;0.07666015625;0.8125;0.6875;-15.6875;
1441975735787108;0.47332763671875;-0.47869873046875;-0.58642578125;-0.450439453125;17.054327670034432;11.763580668322689;16.63931611301974;-0.97802734375;0.1298828125;0.080078125;-0.125;0.4375;-14.125;
1441975735801109;0.47418212890625;-0.47802734375;-0.58551025390625;-0.45147705078125;17.071617387364974;11.733460163841814;16.607912778245318;-0.982421875;0.11474609375;0.0859375;-0.1875;0.0625;-11.9375;
1441975735816110;0.474853515625;-0.47760009765625;-0.58477783203125;-0.4522705078125;17.085033703130428;11.712216322274559;16.585386462359455;-0.970703125;0.12255859375;0.0791015625;0.8125;-0.1875;-9.625;
1441975735847112;0.475341796875;-0.47723388671875;-0.5843505859375;-0.45263671875;17.09358808223468;11.699107801855344;16.572441551533153;-0.974609375;0.12548828125;0.076171875;0.75;-0.1875;-7.5;
1441975735854112;0.47576904296875;-0.476806640625;-0.58428955078125;-0.4527587890625;17.098452643646176;11.687110387332915;16.562357889672878;-0.97412109375;0.13720703125;0.06982421875;-0.6875;-0.625;-5.5;
1441975735876113;0.4759521484375;-0.4765625;-0.5843505859375;-0.4527587890625;17.099854725634724;11.680939260574188;16.55758683541474;-0.96826171875;0.13134765625;0.076171875;-2.125;-1.0;-3.5625;
1441975735898115;0.4759521484375;-0.47662353515625;-0.58428955078125;-0.45269775390625;17.100094963293678;11.684437658215085;16.560921742539374;-0.9677734375;0.13330078125;0.07861328125;-1.5;-0.8125;-1.75;
1441975735914116;0.4757080078125;-0.47686767578125;-0.5845947265625;-0.452392578125;17.094802736490717;11.694990713168291;16.571824820638945;-0.966796875;0.13623046875;0.07958984375;-0.375;-0.75;0.0;
1441975735936117;0.4755859375;-0.47711181640625;-0.5849609375;-0.45172119140625;17.089248112682814;11.714068922602062;16.592862867026156;-0.9609375;0.1484375;0.07763671875;-0.4375;-0.6875;1.5;
1441975735959118;0.47552490234375;-0.47723388671875;-0.58551025390625;-0.45098876953125;17.0828459137634;11.73007379797992;16.612041339204374;-0.96630859375;0.140625;0.0703125;-2.125;-0.4375;2.75;
1441975735974119;0.47528076171875;-0.4775390625;-0.5860595703125;-0.4501953125;17.074465869539182;11.751124934993571;16.63540290145011;-0.96240234375;0.130859375;0.0751953125;-3.125;-0.5625;4.3125;
1441975735996120;0.47491455078125;-0.47808837890625;-0.586669921875;-0.44921875;17.06373775796399;11.781105140277903;16.667343770389532;-0.9658203125;0.12939453125;0.0751953125;-2.25;-0.3125;5.5625;
1441975736018122;0.47454833984375;-0.4786376953125;-0.58734130859375;-0.44805908203125;17.051992061982393;11.813963731046396;16.70288724748245;-0.96337890625;0.1298828125;0.07177734375;-1.75;0.0625;7.1875;
1441975736035123;0.4742431640625;-0.47918701171875;-0.588134765625;-0.44683837890625;17.039572249094835;11.846664232064573;16.73894952507503;-0.97216796875;0.13037109375;0.076171875;-2.25;0.375;8.3125;
1441975736063124;0.47381591796875;-0.47979736328125;-0.58892822265625;-0.445556640625;17.025730964881205;11.880607711678497;16.775929220060828;-0.9794921875;0.123046875;0.072265625;-2.75;0.3125;9.625;
1441975736079125;0.473388671875;-0.48040771484375;-0.58990478515625;-0.44403076171875;17.009732540221748;11.9171340439919;16.816730232057484;-0.97802734375;0.11962890625;0.07763671875;-2.625;0.625;10.6875;
1441975736094126;0.47296142578125;-0.48101806640625;-0.591064453125;-0.44232177734375;16.99170938313188;11.954604203995673;16.85952673715562;-0.966796875;0.12353515625;0.08349609375;-3.5625;1.1875;11.875;
1441975736116127;0.4725341796875;-0.48175048828125;-0.5921630859375;-0.44049072265625;16.97328972520763;11.996416678504225;16.906504276066716;-0.95849609375;0.119140625;0.083984375;-4.75;1.5;13.25;
1441975736138128;0.47222900390625;-0.4825439453125;-0.59320068359375;-0.43853759765625;16.9555238248685;12.041701249373975;16.95730569762965;-0.970703125;0.12841796875;0.08154296875;-4.3125;2.0;13.5625;
1441975736154129;0.4720458984375;-0.48309326171875;-0.59442138671875;-0.43646240234375;16.93736149202307;12.081429450028713;17.004491669932875;-0.9853515625;0.1435546875;0.076171875;-4.75;2.375;13.3125;
1441975736176131;0.47198486328125;-0.4833984375;-0.5955810546875;-0.43463134765625;16.921825401618356;12.11128795426276;17.04197212128326;-0.9765625;0.1474609375;0.07177734375;-6.75;2.375;12.8125;
1441975736199132;0.4718017578125;-0.48394775390625;-0.59637451171875;-0.43316650390625;16.908363689832594;12.141332488358907;17.07646122350201;-0.97509765625;0.14013671875;0.08447265625;-6.9375;2.3125;12.125;
1441975736215133;0.47149658203125;-0.4847412109375;-0.5968017578125;-0.43194580078125;16.896542453928955;12.173982960180728;17.110754751822697;-0.96630859375;0.12451171875;0.08642578125;-3.5625;2.75;11.4375;
1441975736237134;0.47119140625;-0.48553466796875;-0.5972900390625;-0.43072509765625;16.884159108503376;12.205335538198307;17.143912557104457;-0.9580078125;0.13330078125;0.08447265625;-0.8125;3.0625;10.625;
1441975736258135;0.47119140625;-0.4859619140625;-0.59783935546875;-0.42950439453125;16.874672250434532;12.230082978312883;17.172567679555037;-0.962890625;0.14697265625;0.08056640625;-1.125;2.9375;9.6875;
1441975736275136;0.47137451171875;-0.4859619140625;-0.59857177734375;-0.4283447265625;16.86675311064703;12.244219534094707;17.192714480712795;-0.96923828125;0.14794921875;0.07861328125;-3.4375;2.5625;8.6875;
1441975736296137;0.4715576171875;-0.4859619140625;-0.59906005859375;-0.42742919921875;16.86138436752107;12.256372711697255;17.209477123727694;-0.966796875;0.14013671875;0.0830078125;-5.25;2.0;7.6875;
1441975736319139;0.4715576171875;-0.48602294921875;-0.59930419921875;-0.42694091796875;16.857669543693735;12.263476488942715;17.218549455632928;-0.96435546875;0.140625;0.08056640625;-4.1875;1.5625;6.25;
1441975736343140;0.47149658203125;-0.4862060546875;-0.59930419921875;-0.42681884765625;16.856182743788896;12.268761308349845;17.223483935851412;-0.96826171875;0.14111328125;0.08740234375;-1.5;1.3125;4.875;
1441975736356141;0.471435546875;-0.48651123046875;-0.59906005859375;-0.4268798828125;16.856693950218485;12.275803518738508;17.228585347328533;-0.96533203125;0.1455078125;0.08251953125;0.6875;0.8125;3.375;
1441975736379142;0.47137451171875;-0.48651123046875;-0.5987548828125;-0.4273681640625;16.86017147009477;12.270127916070752;17.220429625529537;-0.96728515625;0.15185546875;0.07568359375;1.9375;0.5;1.625;
1441975736395143;0.47137451171875;-0.486572265625;-0.5982666015625;-0.427978515625;16.865657117719017;12.265815213359602;17.212747352607195;-0.9697265625;0.14208984375;0.08837890625;2.75;-0.0625;0.3125;
1441975736416144;0.4713134765625;-0.4866943359375;-0.59771728515625;-0.42877197265625;16.87160120093548;12.259697723899091;17.20218242514125;-0.96875;0.13818359375;0.08447265625;3.4375;-0.25;-0.5625;
1441975736439146;0.47125244140625;-0.48675537109375;-0.5970458984375;-0.42962646484375;16.878765821956954;12.252397772512946;17.190112355826663;-0.966796875;0.14208984375;0.0859375;4.5625;-0.3125;-1.5;
1441975736455147;0.47137451171875;-0.48681640625;-0.5963134765625;-0.43048095703125;16.88778669317393;12.246905346053174;17.180173901650015;-0.96337890625;0.14794921875;0.080078125;4.625;-0.4375;-2.4375;
1441975736476148;0.4715576171875;-0.48675537109375;-0.5955810546875;-0.43133544921875;16.89762507385397;12.239193924903416;17.168555934747154;-0.9716796875;0.14892578125;0.07763671875;4.1875;-0.25;-3.4375;
1441975736499149;0.4718017578125;-0.4866943359375;-0.59478759765625;-0.4322509765625;16.908581806252016;12.231266543788221;17.156534380505676;-0.96337890625;0.15380859375;0.07763671875;3.8125;-0.125;-4.375;
1441975736515150;0.47210693359375;-0.48651123046875;-0.5938720703125;-0.433349609375;16.92186057839059;12.218871485347949;17.13969567119461;-0.95751953125;0.15625;0.07861328125;3.8125;0.0625;-5.3125;
1441975736536151;0.47247314453125;-0.48626708984375;-0.59295654296875;-0.43450927734375;16.935987827342192;12.20410886534923;17.120652647312674;-0.9658203125;0.15380859375;0.0791015625;4.0;0.0;-6.4375;
1441975736558152;0.47283935546875;-0.4859619140625;-0.592041015625;-0.4356689453125;16.95023934529742;12.187554420736365;17.100006664271326;-0.96484375;0.15234375;0.08154296875;4.0;-0.125;-7.1875;
1441975736575153;0.47332763671875;-0.485595703125;-0.591064453125;-0.43682861328125;16.96600464220139;12.170621340936815;17.079333121182945;-0.9619140625;0.154296875;0.07666015625;3.75;-0.25;-7.875;
1441975736596155;0.47381591796875;-0.485107421875;-0.59014892578125;-0.4381103515625;16.98204172093717;12.147336988388563;17.052471810922043;-0.9697265625;0.1611328125;0.0771484375;3.4375;-0.1875;-8.75;
1441975736620156;0.47430419921875;-0.48455810546875;-0.5892333984375;-0.43939208984375;16.998150632544082;12.121843172952603;17.02358942146735;-0.9677734375;0.1552734375;0.08154296875;2.875;-0.25;-9.5;
1441975736635157;0.47479248046875;-0.48419189453125;-0.58819580078125;-0.44073486328125;17.014783359767524;12.099719163999739;16.997002799745744;-0.95947265625;0.154296875;0.0869140625;3.25;-0.3125;-9.75;
1441975736656158;0.47540283203125;-0.483642578125;-0.58734130859375;-0.44183349609375;17.03067364589478;12.076560778156257;16.971507984715245;-0.974609375;0.15966796875;0.08056640625;3.8125;-0.125;-10.375;
1441975736680159;0.4761962890625;-0.482666015625;-0.58673095703125;-0.44287109375;17.047035437640822;12.042375366145796;16.937624299847542;-0.96875;0.166015625;0.0791015625;1.875;-0.125;-10.5625;
1441975736695160;0.4769287109375;-0.48175048828125;-0.5860595703125;-0.44384765625;17.062874557011266;12.010032799364735;16.905257547418106;-0.9580078125;0.1533203125;0.0859375;-0.8125;-0.3125;-10.8125;
1441975736716161;0.4776611328125;-0.4810791015625;-0.5853271484375;-0.44488525390625;17.07869005828069;11.981998220769178;16.87610048194019;-0.96044921875;0.14794921875;0.09521484375;-0.25;0.25;-10.3125;
1441975736740163;0.47833251953125;-0.4803466796875;-0.584716796875;-0.4456787109375;17.0924463686755;11.955435451214818;16.849513602379627;-0.9560546875;0.14892578125;0.08447265625;0.75;0.375;-10.125;
1441975736755164;0.47918701171875;-0.47943115234375;-0.58447265625;-0.44610595703125;17.10430133069299;11.92958386372093;16.826787288109127;-0.96337890625;0.1474609375;0.0849609375;-0.6875;0.125;-9.375;
1441975736776165;0.4801025390625;-0.47845458984375;-0.5843505859375;-0.4462890625;17.11514523483144;11.906499248665842;16.80825135303177;-0.9609375;0.1484375;0.08251953125;-3.125;0.1875;-8.3125;
1441975736799166;0.48095703125;-0.4774169921875;-0.5843505859375;-0.4464111328125;17.124504580049624;11.88123316362333;16.788070638249938;-0.962890625;0.14404296875;0.078125;-5.0;0.3125;-7.5;
1441975736815167;0.481689453125;-0.47662353515625;-0.58441162109375;-0.4464111328125;17.13157896516584;11.86378441012991;16.775169623273566;-0.96337890625;0.13916015625;0.083984375;-5.375;0.1875;-6.4375;
1441975736852169;0.4822998046875;-0.47589111328125;-0.58465576171875;-0.44622802734375;17.13569204827846;11.849853016397088;16.76632282846688;-0.96630859375;0.14111328125;0.0810546875;-4.875;0.25;-5.3125;
1441975736883171;0.48291015625;-0.47515869140625;-0.5850830078125;-0.44580078125;17.13781396805135;11.840166929874819;16.762957983529773;-0.96337890625;0.14697265625;0.0810546875;-5.375;0.1875;-4.125;
1441975736885171;0.48358154296875;-0.47442626953125;-0.5855712890625;-0.4451904296875;17.139509598605937;11.834760216641168;16.764759645406194;-0.9580078125;0.14453125;0.080078125;-6.5;0.125;-3.0;
1441975736905172;0.48419189453125;-0.4737548828125;-0.586181640625;-0.4444580078125;17.139380421301546;11.832565200075774;16.770122634750333;-0.96044921875;0.14501953125;0.0791015625;-7.3125;0.5;-2.0;
1441975736926174;0.48468017578125;-0.47320556640625;-0.5869140625;-0.443603515625;17.136810170254037;11.834866924198518;16.779982230914793;-0.9619140625;0.14013671875;0.0791015625;-7.6875;0.5;-0.75;
1441975736935174;0.4849853515625;-0.47283935546875;-0.58770751953125;-0.44256591796875;17.131455420943194;11.844867887586709;16.797218975750372;-0.9580078125;0.13427734375;0.07861328125;-7.625;0.5;0.625;
1441975736957175;0.4852294921875;-0.47271728515625;-0.588623046875;-0.4412841796875;17.12355493925728;11.865626551254353;16.825374936966647;-0.95458984375;0.146484375;0.08447265625;-7.25;1.0625;2.0;
1441975736986177;0.4853515625;-0.47259521484375;-0.58984375;-0.4395751953125;17.111180252368108;11.892363468108993;16.861314492010187;-0.947265625;0.13720703125;0.08740234375;-6.9375;1.875;4.5;
1441975736994177;0.48553466796875;-0.47296142578125;-0.59130859375;-0.43701171875;17.093864716328344;11.948529147556647;16.92862216350273;-0.9404296875;0.1484375;0.0947265625;-8.8125;2.625;6.625;
1441975737019179;0.48590087890625;-0.4735107421875;-0.59320068359375;-0.4334716796875;17.071035096445655;12.025505052079946;17.02080749781419;-0.92724609375;0.1728515625;0.09130859375;-10.4375;5.3125;9.3125;
1441975737038180;0.48663330078125;-0.47430419921875;-0.5953369140625;-0.42877197265625;17.043958002031992;12.128875542800001;17.14383877644136;-0.908203125;0.19140625;0.091796875;-14.25;8.25;13.0;
1441975737061181;0.48760986328125;-0.47515869140625;-0.59783935546875;-0.4232177734375;17.011441663056264;12.242157084087568;17.280857492450465;-0.88818359375;0.22998046875;0.07421875;-18.75;11.5;14.9375;
1441975737076182;0.48876953125;-0.47607421875;-0.6002197265625;-0.4173583984375;16.977918578764925;12.357403988407158;17.42077738129517;-0.88232421875;0.2607421875;0.0634765625;-22.375;13.3125;16.125;
1441975737099183;0.49017333984375;-0.47662353515625;-0.60284423828125;-0.411376953125;16.943568049505874;12.458307482879187;17.549162502372155;-0.931640625;0.28369140625;0.037109375;-23.4375;13.5625;16.375;
1441975737121185;0.49127197265625;-0.4764404296875;-0.606201171875;-0.4052734375;16.903025959941445;12.527266628532054;17.649414584926106;-0.98291015625;0.2666015625;0.00634765625;-26.5625;11.0;17.875;
1441975737144186;0.49212646484375;-0.4765625;-0.609619140625;-0.39892578125;16.85705787723726;12.596393359356663;17.74919656841986;-0.9580078125;0.24658203125;0.03564453125;-30.125;8.6875;20.5;
1441975737159187;0.4927978515625;-0.4769287109375;-0.61309814453125;-0.3922119140625;16.805633646405862;12.665898927418707;17.8494640966102;-0.92236328125;0.25048828125;0.044921875;-29.25;10.0;23.0;
1441975737181188;0.49359130859375;-0.47723388671875;-0.616943359375;-0.38482666015625;16.748714930716957;12.732939609534723;17.95087361128682;-0.90673828125;0.25732421875;0.0458984375;-29.375;11.0;25.375;
1441975737197189;0.49444580078125;-0.4776611328125;-0.62078857421875;-0.37689208984375;16.687695995657393;12.801831008219073;0.05570111216671105;-0.87646484375;0.27294921875;0.0439453125;-32.4375;12.0625;27.3125;
1441975737218190;0.49554443359375;-0.47808837890625;-0.62451171875;-0.3685302734375;16.62551377521966;12.871630139327294;0.16317018739312344;-0.86181640625;0.29296875;0.03271484375;-34.0625;13.6875;28.8125;
1441975737234191;0.49713134765625;-0.4781494140625;-0.62841796875;-0.35968017578125;16.563393454896264;12.936260732476756;0.26995707445047507;-0.83984375;0.296875;0.021484375;-35.5;15.6875;29.25;
1441975737257192;0.49859619140625;-0.47821044921875;-0.632080078125;-0.35101318359375;16.50172155031089;12.993718207484177;0.3681333117044263;-0.8134765625;0.271484375;0.02099609375;-39.4375;17.375;31.25;
1441975737279194;0.49969482421875;-0.47930908203125;-0.635009765625;-0.34259033203125;16.436524019727244;13.06062854490122;0.46893823165949317;-0.80712890625;0.25439453125;0.0224609375;-38.0625;17.8125;32.0;
1441975737301195;0.50048828125;-0.48095703125;-0.6380615234375;-0.33331298828125;16.359229346955654;13.129694338993259;0.5725285957456467;-0.79931640625;0.2490234375;0.00341796875;-31.0625;18.75;34.625;
1441975737317196;0.50152587890625;-0.48297119140625;-0.640869140625;-0.3233642578125;16.2767813269184;13.204664242264801;0.6831092637472838;-0.7451171875;0.27099609375;-0.0224609375;-31.625;19.4375;38.625;
1441975737339197;0.50244140625;-0.48419189453125;-0.64410400390625;-0.31353759765625;16.195472117583265;13.256620078760863;0.773724360090977;-0.6982421875;0.27294921875;-0.087890625;-33.25;19.4375;40.6875;
1441975737361198;0.50244140625;-0.48583984375;-0.647216796875;-0.30438232421875;16.11051819294886;13.295916055387627;0.8456318174713011;-0.61962890625;0.21533203125;-0.1015625;-37.0;15.625;42.125;
1441975737377199;0.50146484375;-0.4892578125;-0.6494140625;-0.2957763671875;16.016601235789775;13.344727601759113;0.9148709141110678;-0.5419921875;0.17236328125;-0.044921875;-30.125;15.4375;44.8125;
1441975737398201;0.49920654296875;-0.49505615234375;-0.65081787109375;-0.28668212890625;15.90026204267049;13.408343650767831;0.9877217318861786;-0.486328125;0.12109375;-0.0283203125;-17.5;17.5625;52.0625;
1441975737422202;0.49664306640625;-0.5029296875;-0.65081787109375;-0.27734375;15.772070659330605;13.493268894963684;1.0716986817199416;-0.41455078125;0.16015625;-0.0478515625;-5.75;19.4375;58.9375;
1441975737437203;0.49420166015625;-0.51031494140625;-0.65087890625;-0.26800537109375;15.645532390938088;13.565878404858474;1.1454527554348137;-0.37939453125;0.22509765625;-0.11083984375;3.8125;22.75;59.875;
1441975737459204;0.49169921875;-0.5177001953125;-0.65069580078125;-0.25860595703125;15.51752422659895;13.633093701392367;1.2133156875580962;-0.36962890625;0.25146484375;-0.12841796875;1.375;21.25;57.375;
1441975737481205;0.48931884765625;-0.52447509765625;-0.6505126953125;-0.24969482421875;15.396348802477636;13.68935672590514;1.2709346182602395;-0.369140625;0.2822265625;-0.146484375;1.375;21.1875;56.1875;
1441975737497206;0.48712158203125;-0.53057861328125;-0.6502685546875;-0.24169921875;15.28656245586531;13.736010853546755;1.3183951133086997;-0.3955078125;0.27685546875;-0.1083984375;1.375;22.125;53.625;
1441975737518207;0.48486328125;-0.53692626953125;-0.64910888671875;-0.2352294921875;15.188569215297528;13.784398921101198;1.3591862879017764;-0.42333984375;0.24072265625;-0.08544921875;2.125;21.1875;51.625;
1441975737541209;0.4827880859375;-0.54364013671875;-0.64666748046875;-0.2308349609375;15.108144895765223;13.83942678967239;1.3955579444450554;-0.45654296875;0.24365234375;-0.0693359375;10.875;20.375;47.0;
1441975737558210;0.48052978515625;-0.5513916015625;-0.642822265625;-0.22784423828125;15.034126053959946;13.905469533625123;1.4306802938586332;-0.51220703125;0.23974609375;-0.06103515625;21.9375;19.9375;40.625;
1441975737579211;0.47894287109375;-0.5595703125;-0.63787841796875;-0.2252197265625;14.965118051397111;13.983567336811408;1.4739969888421671;-0.56005859375;0.29248046875;-0.05810546875;34.8125;20.8125;35.75;
1441975737601212;0.47833251953125;-0.56646728515625;-0.6329345703125;-0.22308349609375;14.911443186007054;14.05774429827585;1.518380280721163;-0.595703125;0.3447265625;-0.09130859375;39.5625;24.75;30.5625;
1441975737617213;0.47821044921875;-0.57293701171875;-0.62725830078125;-0.2227783203125;14.877932539169464;14.134444266748954;1.5598139665808886;-0.66796875;0.359375;-0.09375;34.9375;26.0;24.25;
1441975737638214;0.478271484375;-0.57940673828125;-0.620849609375;-0.223876953125;14.856963795411428;14.215431468630298;1.5993417084440709;-0.751953125;0.31787109375;-0.1025390625;40.375;24.3125;19.5;
1441975737662216;0.47869873046875;-0.58563232421875;-0.61395263671875;-0.22589111328125;14.846324426178809;14.29983095374393;1.6396656298454124;-0.826171875;0.35009765625;-0.09326171875;46.875;24.1875;13.5625;
1441975737677216;0.47979736328125;-0.590576171875;-0.60736083984375;-0.228515625;14.850144272058639;14.379328323335978;1.6798012090652654;-0.91796875;0.41650390625;-0.10498046875;50.5625;24.5625;7.3125;
1441975737700218;0.4818115234375;-0.5933837890625;-0.60186767578125;-0.23150634765625;14.872040766708897;14.446221916695812;1.718404496708906;-1.0234375;0.42724609375;-0.138671875;45.125;22.625;2.1875;
1441975737721219;0.4844970703125;-0.59478759765625;-0.59722900390625;-0.2342529296875;14.901652046430694;14.505166569156914;1.758492117666599;-1.0849609375;0.37353515625;-0.14599609375;33.5;19.5;-1.5625;
1441975737737220;0.48736572265625;-0.59722900390625;-0.5914306640625;-0.23681640625;14.923634291486689;14.580154016567889;1.809300238891382;-1.08203125;0.33203125;-0.1064453125;25.125;21.75;-4.0;
1441975737758221;0.4906005859375;-0.59991455078125;-0.58502197265625;-0.2392578125;14.943159872653446;14.664471196909037;1.8684296181129394;-1.0732421875;0.34521484375;-0.1357421875;31.3125;26.1875;-4.5;
1441975737781222;0.49334716796875;-0.60198974609375;-0.5797119140625;-0.24127197265625;14.959078039656164;14.734870677246635;1.918673084265524;-1.0947265625;0.3291015625;-0.20361328125;31.5;27.1875;-4.375;
1441975737797223;0.49591064453125;-0.60369873046875;-0.57525634765625;-0.24237060546875;14.967236622169255;14.795922441740805;1.9655514622702706;-1.0791015625;0.3623046875;-0.23046875;25.0625;21.9375;-4.875;
1441975737818225;0.49847412109375;-0.605712890625;-0.57037353515625;-0.24365234375;14.974032205958846;14.86203452691106;2.014775654092265;-1.0625;0.376953125;-0.2138671875;19.8125;23.3125;-2.8125;
1441975737841226;0.50054931640625;-0.60882568359375;-0.564697265625;-0.24493408203125;14.970968042000258;14.935672659050667;2.064571032462365;-1.11962890625;0.404296875;-0.2333984375;22.8125;24.75;-3.25;
1441975737857227;0.5029296875;-0.61090087890625;-0.56036376953125;-0.24468994140625;14.960903658209002;14.99544982013358;2.113221954953439;-1.146484375;0.40625;-0.29931640625;28.1875;24.1875;0.5;
1441975737878228;0.50555419921875;-0.6129150390625;-0.556396484375;-0.2432861328125;14.940558397793652;15.052287323749203;2.164526463874122;-1.103515625;0.4169921875;-0.31884765625;15.3125;23.875;1.1875;
1441975737918230;0.50836181640625;-0.6143798828125;-0.5528564453125;-0.2418212890625;14.922950250974221;15.104317794245777;2.214625246236831;-1.06103515625;0.44140625;-0.32470703125;11.0625;27.5625;1.375;
1441975737920230;0.5107421875;-0.61669921875;-0.54791259765625;-0.24212646484375;14.912790102455647;15.169164306351572;2.2641212404495032;-1.1005859375;0.44287109375;-0.345703125;6.4375;26.5625;0.875;
1441975737946232;0.51287841796875;-0.6207275390625;-0.541015625;-0.24285888671875;14.891776635328185;15.253673631209848;2.3204711299359793;-1.22412109375;0.47314453125;-0.36572265625;20.875;26.1875;-1.0;
1441975737961233;0.51580810546875;-0.62445068359375;-0.53375244140625;-0.2432861328125;14.869381234616991;15.344364467742798;2.3860994046403747;-1.2294921875;0.53564453125;-0.40478515625;35.3125;31.1875;-3.25;
1441975737977234;0.51904296875;-0.62628173828125;-0.52850341796875;-0.2431640625;14.855517796841836;15.413878204514917;2.444668212208776;-1.20458984375;0.486328125;-0.45458984375;32.0;33.375;-5.0625;
1441975737999235;0.52215576171875;-0.6282958984375;-0.5233154296875;-0.24249267578125;14.833850675055862;15.480959922706623;2.5018178571992498;-1.2451171875;0.49169921875;-0.36474609375;20.125;34.375;-6.625;
1441975738021236;0.525390625;-0.6322021484375;-0.51544189453125;-0.2421875;14.797288364446576;15.574719662909148;2.571402202663967;-1.244140625;0.474609375;-0.333984375;20.3125;39.75;-3.1875;
1441975738037237;0.528564453125;-0.63824462890625;-0.50555419921875;-0.24029541015625;14.725826491235079;15.682949377834298;2.647978291668026;-1.3134765625;0.46484375;-0.4599609375;33.3125;44.75;-1.3125;
1441975738059238;0.53204345703125;-0.63873291015625;-0.50341796875;-0.2357177734375;14.68002096364831;15.712200259105106;2.69407972594976;-1.31640625;0.51611328125;-0.6796875;38.3125;48.5;4.5;
1441975738081240;0.53216552734375;-0.6416015625;-0.50274658203125;-0.2291259765625;14.599783728393966;15.707765412430167;2.7001937482759906;-1.39306640625;0.580078125;-0.51904296875;-8.3125;41.0;3.5625;
1441975738097240;0.53265380859375;-0.64739990234375;-0.49822998046875;-0.2213134765625;14.481305576992234;15.736968578529602;2.724924931408399;-1.24365234375;0.72216796875;-0.44775390625;-2.1875;38.4375;18.875;
1441975738127242;0.53778076171875;-0.6541748046875;-0.4901123046875;-0.2066650390625;14.28898995569858;15.801284120060007;2.8067342127923243;-1.1572265625;0.7421875;-0.44970703125;17.0;59.0;22.8125;
1441975738142243;0.548828125;-0.65631103515625;-0.481689453125;-0.18994140625;14.10782630623375;15.879229235685507;2.9399737739710248;-1.109375;0.8974609375;-0.658203125;5.875;99.25;15.1875;
1441975738165244;0.56927490234375;-0.63482666015625;-0.4967041015625;-0.162109375;14.046974478341811;15.775497790769679;3.0972838676396552;-1.15673828125;1.21435546875;-1.3349609375;-27.25;113.1875;-5.6875;
1441975738187246;0.57623291015625;-0.60748291015625;-0.5296630859375;-0.1358642578125;14.084362567701014;15.477353807066418;3.086583279228268;-1.66650390625;0.9873046875;-0.5673828125;-222.375;96.0625;-51.8125;
1441975738201246;0.5770263671875;-0.60235595703125;-0.5362548828125;-0.1290283203125;14.074168647202242;15.411330603865546;3.080988413064712;-1.49560546875;0.70654296875;0.74609375;-278.9375;2.875;-7.1875;
1441975738217247;0.5701904296875;-0.62103271484375;-0.5152587890625;-0.15423583984375;14.117830623169246;15.612371232544941;3.058786314163552;-0.74169921875;-0.0205078125;-0.22119140625;-69.9375;9.1875;32.8125;
1441975738240249;0.56256103515625;-0.62933349609375;-0.50823974609375;-0.1708984375;14.189647322885051;15.676458366002652;2.9993048668998963;-1.240234375;0.8583984375;-0.64111328125;219.8125;-24.5;-9.3125;
1441975738261250;0.55743408203125;-0.6300048828125;-0.5146484375;-0.16607666015625;14.15322189446929;15.593257207507403;2.933660932543066;-1.32421875;1.228515625;-0.77734375;113.75;-52.375;-7.5625;
1441975738301252;0.55377197265625;-0.62530517578125;-0.52569580078125;-0.1611328125;14.16055428482768;15.476816419771444;2.8693241020957108;-1.10302734375;1.03515625;-0.7939453125;-27.25;-29.1875;19.625;
1441975738314253;0.54815673828125;-0.6243896484375;-0.53375244140625;-0.15753173828125;14.142993108376784;15.381187870003576;2.7955347828267203;-1.173828125;0.77783203125;-0.498046875;-61.1875;-27.6875;19.75;
1441975738329254;0.54107666015625;-0.62506103515625;-0.542236328125;-0.150146484375;14.075623281911943;15.272360438923979;2.7136488446246054;-1.05859375;0.7236328125;-0.3994140625;-32.1875;-23.8125;32.125;
1441975738337254;0.5340576171875;-0.62567138671875;-0.5511474609375;-0.13995361328125;13.979981281880022;15.159415790681173;2.639073741486527;-0.9990234375;0.818359375;-0.39697265625;-38.8125;-17.0625;49.3125;
1441975738360256;0.52777099609375;-0.624267578125;-0.5614013671875;-0.12890625;13.889413947362975;15.039018516829223;2.572593055172645;-0.8984375;0.79443359375;-0.47900390625;-53.8125;-16.0;57.8125;
1441975738381257;0.521728515625;-0.6185302734375;-0.57574462890625;-0.11749267578125;13.825027195238482;14.88473338213782;2.4999459433506623;-0.876953125;0.7412109375;-0.4765625;-71.25;-17.4375;57.0625;
1441975738397258;0.5157470703125;-0.61285400390625;-0.58892822265625;-0.10784912109375;13.769976846162315;14.743773240074976;2.431683144004712;-0.89111328125;0.5869140625;-0.34765625;-100.375;-26.0;52.8125;
1441975738420259;0.50921630859375;-0.61077880859375;-0.59814453125;-0.0999755859375;13.698752303456189;14.640913428152732;2.371494682086075;-0.83154296875;0.43798828125;-0.2744140625;-93.25;-26.1875;57.9375;
1441975738441260;0.50372314453125;-0.611328125;-0.60321044921875;-0.09332275390625;13.620174888812661;14.580411338491922;2.3324131861754713;-0.7646484375;0.462890625;-0.26513671875;-61.875;-22.3125;58.875;
1441975738457261;0.50079345703125;-0.61126708984375;-0.60675048828125;-0.0863037109375;13.549562206851297;14.539654539926811;2.319235402860259;-0.71435546875;0.49169921875;-0.30810546875;-37.0625;-13.0;53.875;
1441975738480262;0.49969482421875;-0.60772705078125;-0.6121826171875;-0.0791015625;13.50656633242308;14.484574159893585;2.3141298797264747;-0.78125;0.50048828125;-0.35888671875;-39.0625;0.0;47.0;
1441975738501264;0.49761962890625;-0.60546875;-0.616943359375;-0.072265625;13.454537732261103;14.434420574610384;2.3041598999457196;-0.8369140625;0.4482421875;-0.24560546875;-55.5625;6.0;38.375;
1441975738517265;0.4957275390625;-0.605712890625;-0.61907958984375;-0.0650634765625;13.383003545443282;14.409143158589663;2.305622534771245;-0.84228515625;0.525390625;-0.23095703125;-45.75;4.0;40.625;
1441975738540266;0.494873046875;-0.60516357421875;-0.62091064453125;-0.0579833984375;13.321303374359307;14.387656646867526;2.315215704262797;-0.7568359375;0.64599609375;-0.33056640625;-32.125;8.125;38.875;
1441975738562267;0.49432373046875;-0.6019287109375;-0.62518310546875;-0.05059814453125;13.276076891687778;14.34422174903468;2.3205595033071824;-0.693359375;0.6318359375;-0.3798828125;-36.5;8.625;30.5;
1441975738577268;0.49420166015625;-0.59588623046875;-0.6314697265625;-0.0439453125;13.25722197022809;14.28238714843695;2.3209974329447447;-0.68994140625;0.65283203125;-0.33935546875;-54.3125;4.6875;23.4375;
1441975738600269;0.49359130859375;-0.59100341796875;-0.63690185546875;-0.03875732421875;13.24158788278469;14.228655422113146;2.3165805716392573;-0.66845703125;0.484375;-0.2431640625;-67.25;0.625;19.25;
1441975738621270;0.4921875;-0.59136962890625;-0.63775634765625;-0.0367431640625;13.216095222714204;14.218123945174096;2.3112447506308142;-0.6279296875;0.40380859375;-0.1962890625;-55.25;-2.25;20.75;
1441975738637271;0.49072265625;-0.5931396484375;-0.63739013671875;-0.03436279296875;13.178064123225125;14.218869707310944;2.3104096839586976;-0.55712890625;0.4482421875;-0.20654296875;-11.75;-3.0625;20.0625;
1441975738660273;0.490478515625;-0.59405517578125;-0.6368408203125;-0.03118896484375;13.143446727226664;14.221909053663037;2.3205063805085246;-0.47412109375;0.533203125;-0.193359375;-1.625;1.375;17.75;
1441975738681274;0.491943359375;-0.59368896484375;-0.63623046875;-0.02801513671875;13.123972836398947;14.227425526544677;2.341636187749624;-0.42578125;0.56201171875;-0.17919921875;-5.5;8.875;10.5;
1441975738697275;0.49346923828125;-0.59173583984375;-0.636962890625;-0.02587890625;13.124148857474118;14.22103142652459;2.356020504652993;-0.4453125;0.533203125;-0.181640625;-10.5625;15.3125;3.5;
1441975738720276;0.49395751953125;-0.59173583984375;-0.6365966796875;-0.02508544921875;13.119102792938282;14.224369349809102;2.362716594798401;-0.48291015625;0.4970703125;-0.162109375;-17.5625;9.125;-1.375;
1441975738741277;0.49346923828125;-0.593017578125;-0.6358642578125;-0.02374267578125;13.097073316261138;14.229835202633542;2.365817767250873;-0.45458984375;0.6123046875;-0.14501953125;-0.5625;4.6875;-3.8125;
1441975738757278;0.491943359375;-0.5933837890625;-0.6368408203125;-0.01959228515625;13.052576961407656;14.21656891409149;2.3661915287292756;-0.36669921875;0.580078125;-0.14111328125;3.9375;3.5;2.25;
1441975738780280;0.48907470703125;-0.59478759765625;-0.63787841796875;-0.0147705078125;12.990106918931957;14.200979589863847;2.3601266717496636;-0.298828125;0.58154296875;-0.103515625;-11.25;5.0;10.5625;
1441975738801281;0.48370361328125;-0.59844970703125;-0.63861083984375;-0.00830078125;12.88828045494708;14.184452693720651;2.3447792833635086;-0.279296875;0.5302734375;-0.033203125;-6.75;5.0625;22.0;
1441975738817282;0.47552490234375;-0.603515625;-0.64007568359375;-0.00213623046875;12.768267918688215;14.159719679281547;2.3099967138191575;-0.22021484375;0.68310546875;-0.0224609375;1.0;2.625;33.875;
1441975738840283;0.46368408203125;-0.6092529296875;-0.643310546875;0.00469970703125;12.621536938093719;14.11658975576718;2.2526008578765233;-0.12060546875;0.69140625;0.0048828125;5.6875;-10.75;41.625;
1441975738861284;0.44830322265625;-0.6148681640625;-0.64874267578125;0.0133056640625;12.442018401558656;14.05205341315518;2.1782478079747634;-0.11328125;0.7421875;0.05615234375;3.6875;-24.5625;57.5;
1441975738877285;0.43182373046875;-0.6220703125;-0.65277099609375;0.0224609375;12.23974045406687;14.00068924086127;2.107123752065219;-0.11474609375;0.6982421875;0.1064453125;-7.875;-35.875;78.875;
1441975738899286;0.4127197265625;-0.630859375;-0.65618896484375;0.03399658203125;11.991533798809387;13.953284544466314;2.035450094341449;-0.0498046875;0.740234375;0.14453125;-8.3125;-38.25;104.3125;
1441975738921288;0.39111328125;-0.6383056640625;-0.66119384765625;0.049560546875;11.699526838457349;13.889471436157343;1.966856062137253;-0.013671875;0.76123046875;0.11669921875;-6.75;-39.0;126.125;
1441975738937289;0.36578369140625;-0.64544677734375;-0.6671142578125;0.0677490234375;11.361381618453759;13.815688788940887;1.8938690250350927;-0.041015625;0.8623046875;0.1279296875;-27.3125;-37.0625;147.3125;
1441975738959290;0.33770751953125;-0.65228271484375;-0.6728515625;0.08831787109375;10.982943316454694;13.740824275612344;1.8243574824777706;-0.07666015625;0.8544921875;0.12353515625;-39.3125;-43.75;171.25;
1441975738981291;0.30804443359375;-0.65887451171875;-0.677490234375;0.10980224609375;10.58242199270282;13.672670764856997;1.7603157042210236;-0.01904296875;0.92236328125;0.10302734375;-46.25;-45.5;189.375;
1441975739020293;0.27655029296875;-0.66455078125;-0.68157958984375;0.1319580078125;10.16294895241546;13.60573198552469;1.6989082166943532;0.0732421875;0.98828125;0.07958984375;-46.1875;-45.9375;198.375;
1441975739021293;0.243896484375;-0.667724609375;-0.6861572265625;0.15447998046875;9.73771592531052;13.530810487345803;1.6416255178058554;0.08447265625;1.02001953125;0.03271484375;-51.0625;-49.375;207.375;
1441975739048295;0.2108154296875;-0.67010498046875;-0.68951416015625;0.17633056640625;9.311843758505503;13.46259146259961;1.588390383572422;0.06982421875;1.02001953125;0.08349609375;-63.75;-51.375;210.5;
1441975739072296;0.17724609375;-0.6724853515625;-0.691162109375;0.19683837890625;8.886958119427641;13.406016102871009;1.5349635532518064;0.1162109375;0.982421875;0.06982421875;-62.5;-53.1875;210.375;
1441975739094298;0.1435546875;-0.6729736328125;-0.69268798828125;0.2161865234375;8.471594935195007;13.347305216932643;1.4828030219474546;0.1455078125;0.9482421875;0.03955078125;-55.5;-58.125;208.8125;
1441975739101298;0.11065673828125;-0.67181396484375;-0.6943359375;0.23321533203125;8.081182558217131;13.288227234237901;1.4298604186441548;0.1630859375;0.92041015625;0.0263671875;-62.3125;-61.0625;204.0;
1441975739125299;0.0789794921875;-0.67010498046875;-0.69525146484375;0.24786376953125;7.715299785921761;13.236574915779114;1.3759087204817595;0.12451171875;0.84375;0.056640625;-65.625;-64.875;191.875;
1441975739153301;0.048095703125;-0.6693115234375;-0.69500732421875;0.25830078125;7.380538009631316;13.202765283864391;1.3080644443231924;0.0986328125;0.78515625;0.06494140625;-62.3125;-68.3125;179.25;
1441975739177302;0.0196533203125;-0.673095703125;-0.69183349609375;0.2608642578125;7.109874362427204;13.21724117773992;1.208465139284605;0.115234375;0.66455078125;0.083984375;-50.5625;-81.9375;161.4375;
1441975739183303;-0.00408935546875;-0.67999267578125;-0.68682861328125;0.2568359375;6.921432534367313;13.269064088159757;1.0900312548300932;0.1953125;0.5791015625;0.09814453125;-14.9375;-108.375;125.25;
1441975739207304;-0.022216796875;-0.68536376953125;-0.68402099609375;0.24884033203125;6.819325445631386;13.316010309341264;0.9751416716290053;0.21923828125;0.52099609375;0.0615234375;11.8125;-119.4375;83.4375;
1441975739236306;-0.0343017578125;-0.687744140625;-0.68621826171875;0.23455810546875;6.830419446936653;13.340391925005026;0.8598452021427382;0.18798828125;0.59375;0.00439453125;4.75;-110.3125;43.8125;
1441975739245306;-0.041015625;-0.68890380859375;-0.69134521484375;0.214111328125;6.940924555921416;13.354488882375424;0.7412463022836818;0.13232421875;0.58544921875;0.0078125;-18.9375;-106.8125;-10.3125;
1441975739261307;-0.04266357421875;-0.69219970703125;-0.69512939453125;0.1895751953125;7.123256134507365;13.38445203554306;0.6235801612467182;0.03271484375;0.45751953125;-0.00439453125;-29.125;-107.375;-59.0;
1441975739282308;-0.0391845703125;-0.6998291015625;-0.694580078125;0.162353515625;7.364153604501909;13.447741425178101;0.5122981706303099;-0.02197265625;0.369140625;0.0546875;-9.1875;-106.75;-93.5;
1441975739303309;-0.02947998046875;-0.7098388671875;-0.69140625;0.13153076171875;7.6851384421118905;13.527644324219853;0.41335596116135015;-0.025390625;0.38330078125;0.076171875;30.875;-103.25;-121.25;
1441975739320310;-0.014404296875;-0.71844482421875;-0.6888427734375;0.09588623046875;8.093170501766984;13.594793570631518;0.32385457489537206;-0.0771484375;0.4619140625;0.03857421875;55.3125;-95.1875;-157.8125;
1441975739342312;0.0048828125;-0.72357177734375;-0.68798828125;0.05572509765625;8.576067941769562;13.635484903372562;0.24084339345088487;-0.1845703125;0.55517578125;-0.00146484375;50.25;-92.25;-197.6875;
1441975739371313;0.02850341796875;-0.72564697265625;-0.6873779296875;0.0128173828125;9.117939432476671;13.656877737433097;0.16911622264632906;-0.25830078125;0.58642578125;-0.041015625;30.5625;-91.9375;-233.0;
1441975739379314;0.057373046875;-0.72674560546875;-0.68377685546875;-0.0322265625;9.719789095575589;13.681629768167689;0.11356247003257042;-0.31591796875;0.58447265625;-0.03076171875;19.3125;-85.3125;-262.0;
1441975739403315;0.09039306640625;-0.72698974609375;-0.6761474609375;-0.07916259765625;10.372775282918;13.716173133683004;0.07189129822261399;-0.36572265625;0.61572265625;-0.0078125;29.375;-72.75;-292.5;
1441975739423316;0.12493896484375;-0.7254638671875;-0.6650390625;-0.1260986328125;11.043281370289552;13.756293224773858;0.04144161004419355;-0.56005859375;0.5029296875;0.02001953125;42.9375;-63.0625;-315.9375;
1441975739439317;0.16082763671875;-0.722412109375;-0.6497802734375;-0.17333984375;11.735150335288164;13.808564718084922;0.022906828033886318;-0.71337890625;0.53125;0.00244140625;49.9375;-55.75;-323.75;
1441975739462319;0.19677734375;-0.71575927734375;-0.63232421875;-0.221923828125;12.450485661257542;13.855278089220782;0.0035969008825924606;-0.8515625;0.63427734375;-0.07958984375;59.5625;-50.5;-335.0;
1441975739483320;0.23272705078125;-0.70233154296875;-0.61712646484375;-0.26788330078125;13.15677049019669;13.86405473100115;17.98570797376362;-0.95458984375;0.64013671875;-0.154296875;55.375;-57.5625;-346.6875;
1441975739499321;0.2679443359375;-0.68438720703125;-0.6036376953125;-0.30902099609375;13.82815110899427;13.84654268170103;17.9728022456273;-1.08837890625;0.4345703125;-0.07958984375;19.6875;-57.5;-340.0;
1441975739530322;0.30145263671875;-0.66363525390625;-0.58941650390625;-0.34832763671875;14.48515584416522;13.811825898868449;17.94769406104746;-1.19921875;0.3154296875;-0.12548828125;-9.5;-50.5;-322.8125;
1441975739543323;0.33392333984375;-0.6390380859375;-0.576416015625;-0.3846435546875;15.122189037899728;13.736304332923927;17.900909043934377;-1.35693359375;0.28076171875;-0.171875;-16.625;-54.125;-315.5625;
1441975739567325;0.3663330078125;-0.61248779296875;-0.5621337890625;-0.41802978515625;15.749626273818608;13.639245818688089;17.84104035311184;-1.34912109375;0.2548828125;-0.1591796875;-37.0;-56.5;-307.75;
1441975739582325;0.39508056640625;-0.58880615234375;-0.5435791015625;-0.44921875;16.342877111874472;13.555301923864715;17.767526097318417;-1.458984375;0.06103515625;-0.12548828125;-44.0;-48.0625;-303.0625;
1441975739603327;0.41943359375;-0.56805419921875;-0.521484375;-0.47906494140625;16.901215390950938;13.457329014028709;17.651544950330546;-1.56298828125;-0.02685546875;-0.08544921875;-15.0625;-35.9375;-287.5625;
1441975739619328;0.4410400390625;-0.54833984375;-0.49853515625;-0.50634765625;17.422890652457205;13.22232393947509;17.391969320239973;-1.6455078125;0.029296875;-0.09130859375;14.1875;-30.0625;-274.4375;
1441975739642329;0.4605712890625;-0.52850341796875;-0.47552490234375;-0.531494140625;17.876434386798245;10.862098469270432;15.006908283327551;-1.6923828125;0.125;-0.10791015625;21.875;-25.375;-261.625;
1441975739663330;0.475830078125;-0.51104736328125;-0.4505615234375;-0.55633544921875;17.579708846805037;5.494279091158496;9.589781172802194;-1.77734375;0.06884765625;-0.0791015625;22.1875;-24.625;-251.1875;
1441975739679331;0.48760986328125;-0.49517822265625;-0.42413330078125;-0.58074951171875;17.135921515704982;5.157703375373222;9.185503714475075;-1.7705078125;0.14453125;-0.07373046875;47.125;-22.625;-240.875;
1441975739703332;0.49560546875;-0.48028564453125;-0.39727783203125;-0.60491943359375;16.710983790255412;5.1141068287149976;9.058787833629488;-1.69384765625;0.16162109375;-0.12939453125;65.5;-23.0;-232.25;
1441975739723333;0.50079345703125;-0.466064453125;-0.37066650390625;-0.62823486328125;16.30916712217209;5.1361802036132715;8.989433599735188;-1.6611328125;0.18505859375;-0.13671875;81.125;-27.1875;-222.0;
1441975739739334;0.505859375;-0.4508056640625;-0.3458251953125;-0.64910888671875;15.923922826353893;5.1672283818113725;8.94235777264821;-1.60595703125;0.25830078125;-0.162109375;89.75;-30.375;-212.375;
1441975739768336;0.5098876953125;-0.43463134765625;-0.3218994140625;-0.6689453125;15.547180545823654;5.212707826195125;8.913311942841254;-1.533203125;0.27490234375;-0.19140625;76.25;-33.875;-205.0;
1441975739783337;0.50872802734375;-0.41949462890625;-0.29736328125;-0.6905517578125;15.186765724424196;5.3033650900873;8.901997999421607;-1.4501953125;0.11669921875;-0.14404296875;73.0;-38.8125;-197.8125;
1441975739800338;0.503173828125;-0.40582275390625;-0.27301025390625;-0.7125244140625;14.853660090342487;5.417563511655069;8.893805167712053;-1.306640625;0.1005859375;-0.10986328125;101.1875;-46.8125;-187.125;
1441975739822339;0.49774169921875;-0.3917236328125;-0.25146484375;-0.73187255859375;14.545267762131564;5.519968419205806;8.88947791125947;-1.16015625;0.21728515625;-0.13134765625;122.0625;-50.5;-173.6875;
1441975739851341;0.49456787109375;-0.3768310546875;-0.23321533203125;-0.7476806640625;14.25767851683378;5.595760049205563;8.886851662192951;-1.0166015625;0.2958984375;-0.1494140625;106.375;-54.25;-160.3125;
1441975739859341;0.49090576171875;-0.36260986328125;-0.21649169921875;-0.7620849609375;13.991979879731112;5.667240448413827;8.884099844938895;-0.921875;0.23486328125;-0.1220703125;78.0;-55.625;-146.6875;
1441975739890343;0.484619140625;-0.35040283203125;-0.20074462890625;-0.77593994140625;13.759006581025327;5.7486470952316076;8.880639679206054;-0.84814453125;0.15576171875;-0.07080078125;73.75;-54.1875;-134.1875;
1441975739913344;0.47735595703125;-0.344482421875;-0.1903076171875;-0.78570556640625;13.629853757297786;5.819017841096225;8.876283730876962;-0.70556640625;0.2314453125;-0.0869140625;83.8125;-49.8125;-117.6875;
1441975739926345;0.47216796875;-0.33917236328125;-0.1822509765625;-0.79296875;13.523618668592013;5.86986104386167;8.872809249923534;-0.60205078125;0.2802734375;-0.15283203125;74.0;-45.375;-99.6875;
1441975739942346;0.4654541015625;-0.33648681640625;-0.176513671875;-0.79937744140625;13.46082286757351;5.927647934204357;8.87507451319259;-0.5087890625;0.19970703125;-0.1572265625;55.5625;-40.625;-80.3125;
1441975739965347;0.459228515625;-0.3370361328125;-0.17303466796875;-0.80352783203125;13.446738832024678;5.973465403753401;8.873612402470004;-0.419921875;0.30224609375;-0.162109375;56.0;-33.4375;-59.8125;
1441975739979348;0.45654296875;-0.33984375;-0.1727294921875;-0.803955078125;13.475538829517934;5.986776713942482;8.868560241524948;-0.36669921875;0.427734375;-0.2158203125;45.6875;-21.5;-43.125;
1441975740002349;0.45166015625;-0.34552001953125;-0.174560546875;-0.80389404296875;13.549074100640613;6.0131789303838055;8.871410343745868;-0.41162109375;0.3935546875;-0.26220703125;18.3125;-12.3125;-26.0;
1441975740025351;0.44329833984375;-0.35491943359375;-0.17803955078125;-0.80364990234375;13.674302592674024;6.060338593805634;8.88079359928758;-0.53564453125;0.32470703125;-0.21337890625;25.5625;-6.6875;-5.3125;
1441975740039352;0.43670654296875;-0.36773681640625;-0.18450927734375;-0.800048828125;13.854873694970225;6.0865420559884065;8.887663343407878;-0.5;0.4140625;-0.22607421875;39.5;3.0;15.75;
1441975740070353;0.43048095703125;-0.38433837890625;-0.19427490234375;-0.79327392578125;14.098588744937796;6.102078554393734;8.896797124252124;-0.48828125;0.39111328125;-0.23486328125;20.8125;19.5;40.4375;
1441975740092355;0.42218017578125;-0.40081787109375;-0.204345703125;-0.7869873046875;14.345801480251486;6.138149281972908;8.919157922055916;-0.5419921875;0.28662109375;-0.23828125;10.8125;34.0625;70.9375;
1441975740099355;0.4122314453125;-0.42034912109375;-0.21697998046875;-0.7786865234375;14.645803619131126;6.186297412228817;8.95518714186;-0.60107421875;0.3564453125;-0.3115234375;19.0;47.125;101.375;
1441975740122356;0.4044189453125;-0.44384765625;-0.2342529296875;-0.76458740234375;15.024698183338518;6.20975938595449;8.99545624979036;-0.7314453125;0.4560546875;-0.27734375;18.625;57.1875;124.5625;
1441975740145358;0.400634765625;-0.4693603515625;-0.25775146484375;-0.7435302734375;15.47456698174775;6.198980506876078;9.048398023065726;-0.94482421875;0.5615234375;-0.25634765625;-11.9375;79.8125;153.9375;
1441975740166359;0.392333984375;-0.49737548828125;-0.28436279296875;-0.71966552734375;15.98734317937876;6.250913939564285;9.158398892140708;-1.11669921875;0.48095703125;-0.31201171875;-57.875;96.25;185.75;
1441975740182360;0.3768310546875;-0.5308837890625;-0.31280517578125;-0.691650390625;16.594352067326035;6.442869491780277;9.385620696157591;-1.3896484375;0.44677734375;-0.15087890625;-50.3125;102.75;221.625;
1441975740205361;0.3626708984375;-0.563720703125;-0.3460693359375;-0.656494140625;17.235786350701062;6.985252525375386;10.000193031234982;-1.873046875;0.5595703125;-0.21240234375;-26.25;120.25;267.0;
1441975740226362;0.34234619140625;-0.59869384765625;-0.37994384765625;-0.61651611328125;17.662823223687948;10.695582751340341;13.768200553766523;-2.50244140625;0.2841796875;-0.04052734375;-62.25;140.1875;309.4375;
1441975740242363;0.31915283203125;-0.63128662109375;-0.4202880859375;-0.568359375;17.03371857887979;13.512063998340679;16.676959787743836;-2.71142578125;0.177734375;0.14404296875;-46.6875;150.25;345.625;
1441975740265365;0.29052734375;-0.65899658203125;-0.4647216796875;-0.51513671875;16.161551011822;13.840057821969044;17.11513067591532;-2.78857421875;0.11865234375;0.0576171875;-80.375;151.0;392.0;
1441975740288366;0.2493896484375;-0.68994140625;-0.49688720703125;-0.46368408203125;15.256889486769518;13.976711235011154;17.26658188777238;-2.95166015625;-0.2421875;0.14306640625;-98.4375;132.9375;428.3125;
1441975740302367;0.20111083984375;-0.7259521484375;-0.5133056640625;-0.4112548828125;14.346687816165316;14.154542121452767;17.368329210283758;-2.93310546875;-0.279296875;0.203125;-3.5;123.125;440.125;
1441975740325368;0.153564453125;-0.7562255859375;-0.5242919921875;-0.36016845703125;13.488760052165128;14.281327227089308;17.407872050906025;-2.6103515625;0.185546875;-0.03515625;91.1875;142.125;436.5625;
1441975740346369;0.1107177734375;-0.778564453125;-0.533935546875;-0.310791015625;12.702146805375332;14.362340572588563;17.42393910119246;-2.42333984375;0.65966796875;0.0078125;96.75;131.75;409.9375;
1441975740361370;0.08404541015625;-0.78411865234375;-0.56024169921875;-0.25360107421875;11.946119041362856;14.312690026923745;17.49617283120782;-2.365234375;1.23486328125;0.015625;70.5;123.0;374.625;
