1441975526387131;0.1639404296875;-0.61676025390625;-0.73944091796875;-0.214599609375;12.047172497259824;12.878425954160933;17.616165081179787;-1.1171875;-0.99072265625;0.1533203125;-212.5;103.9375;165.5625;
1441975526409133;0.1708984375;-0.592529296875;-0.766357421875;-0.1802978515625;11.839520615966071;12.710114806119948;17.75933946864095;-1.01904296875;-0.3134765625;-0.1171875;-217.375;113.3125;156.875;
1441975526426134;0.1785888671875;-0.57269287109375;-0.78564453125;-0.15167236328125;11.701905426199106;12.582909383091016;17.891396085293255;-1.00732421875;-0.142578125;-0.216796875;-241.0625;90.1875;147.5;
1441975526448135;0.18505859375;-0.562744140625;-0.79486083984375;-0.13165283203125;11.625309420681468;12.529013790957485;17.996773715601286;-0.908203125;-0.34814453125;-0.35400390625;-192.0;85.0;116.125;
1441975526469136;0.19952392578125;-0.56573486328125;-0.7904052734375;-0.1246337890625;11.715280039122236;12.581672755988416;0.09251191405736783;-0.86279296875;-0.3505859375;-0.2451171875;-102.4375;70.625;82.0;
1441975526486137;0.21728515625;-0.580322265625;-0.77471923828125;-0.12591552734375;11.8868303493732;12.73171461507271;0.18689376491213194;-0.8837890625;-0.1328125;-0.15771484375;3.6875;73.125;41.0625;
1441975526508138;0.23077392578125;-0.5987548828125;-0.75567626953125;-0.131103515625;12.038308579997889;12.909797199681364;0.2600837637725175;-1.07177734375;0.21142578125;-0.169921875;92.875;80.8125;-2.25;
1441975526529139;0.246337890625;-0.6151123046875;-0.7352294921875;-0.14306640625;12.256069441100342;13.083938250568185;0.31562974037445557;-1.33642578125;0.4970703125;-0.1826171875;138.0625;73.5625;-43.5;
1441975526554141;0.2647705078125;-0.6270751953125;-0.7152099609375;-0.15863037109375;12.528685277329455;13.24218366045128;0.370072016789476;-1.42919921875;0.58740234375;-0.0908203125;142.5;61.375;-84.0625;
1441975526568142;0.28582763671875;-0.6356201171875;-0.69439697265625;-0.17938232421875;12.867826135221652;13.394830777682738;0.42066620641454017;-1.2939453125;0.66748046875;0.03466796875;127.6875;59.5;-118.5625;
1441975526583143;0.3101806640625;-0.6396484375;-0.67230224609375;-0.20672607421875;13.295895496660647;13.541633054627962;0.4672587235342335;-1.1982421875;0.791015625;0.138671875;124.0;51.75;-159.0625;
1441975526606144;0.33978271484375;-0.6365966796875;-0.65045166015625;-0.23724365234375;13.80751927390545;13.677330664874349;0.5346253940728157;-1.18798828125;0.83154296875;0.14453125;118.3125;39.375;-208.5;
1441975526628145;0.372314453125;-0.62677001953125;-0.62957763671875;-0.26873779296875;14.367188241588586;13.80459157580008;0.6255041483827621;-1.28173828125;0.74462890625;0.0849609375;89.25;39.3125;-252.4375;
1441975526649146;0.40582275390625;-0.613037109375;-0.6070556640625;-0.3016357421875;14.960247286106753;13.960607886258854;0.7522682746202768;-1.341796875;0.64794921875;0.109375;58.375;36.5;-279.1875;
1441975526665147;0.43902587890625;-0.5968017578125;-0.5804443359375;-0.3380126953125;15.59283867773128;14.193233541385876;0.9412725036853137;-1.32666015625;0.53515625;0.14453125;52.25;33.4375;-300.0625;
1441975526688149;0.4691162109375;-0.578857421875;-0.5499267578125;-0.37738037109375;16.234042852901748;14.566180277269593;1.2482941151509057;-1.47119140625;0.44140625;0.11181640625;66.25;25.875;-324.1875;
1441975526709150;0.49786376953125;-0.5576171875;-0.51873779296875;-0.41497802734375;16.829933085515826;15.270351032996004;1.8970839339613141;-1.62353515625;0.37109375;0.07080078125;86.875;11.4375;-336.875;
1441975526725151;0.52349853515625;-0.53277587890625;-0.49053955078125;-0.4488525390625;17.268924159473073;16.775544348743875;3.3685846419856613;-1.7001953125;0.16796875;-0.046875;75.8125;6.5625;-336.8125;
1441975526748152;0.54388427734375;-0.508544921875;-0.4652099609375;-0.47882080078125;17.318171026340373;1.1839632609996849;5.746318785926217;-1.69580078125;-0.24365234375;-0.072265625;51.625;-8.625;-315.375;
1441975526770153;0.5577392578125;-0.4886474609375;-0.44158935546875;-0.5052490234375;17.048256720589162;2.648908493077079;7.164523251787572;-1.5654296875;-0.43505859375;0.07666015625;45.875;-16.4375;-278.375;
1441975526785154;0.5672607421875;-0.47137451171875;-0.4219970703125;-0.5272216796875;16.736415934931852;3.31493010400055;7.788014356571551;-1.529296875;-0.4404296875;0.0712890625;59.5;-17.125;-233.8125;
1441975526807155;0.5732421875;-0.45635986328125;-0.406005859375;-0.54620361328125;16.457122506415693;3.6959948662724704;8.128591176474023;-1.50048828125;-0.376953125;0.00634765625;53.125;-22.5;-193.3125;
1441975526830157;0.57794189453125;-0.44232177734375;-0.39373779296875;-0.56158447265625;16.21474697616544;3.942776636364773;8.349321715771152;-1.42626953125;-0.1943359375;-0.03466796875;50.5625;-28.9375;-162.25;
1441975526845158;0.58251953125;-0.4298095703125;-0.38458251953125;-0.57281494140625;16.01147172670258;4.094024988891355;8.490707781106204;-1.26025390625;-0.0478515625;-0.01220703125;35.4375;-31.75;-138.4375;
1441975526867159;0.5865478515625;-0.4208984375;-0.3809814453125;-0.57769775390625;15.893311882983152;4.1620230206854005;8.571497068401012;-1.14111328125;0.0361328125;-0.044921875;17.6875;-27.75;-114.8125;
1441975526890160;0.59161376953125;-0.41259765625;-0.3807373046875;-0.57867431640625;15.811818627745499;4.188720975901148;8.633514143954574;-1.05419921875;0.08154296875;-0.08447265625;-5.375;-23.0625;-94.125;
1441975526905161;0.5977783203125;-0.40460205078125;-0.38311767578125;-0.576416015625;15.757903549123284;4.183863876489301;8.683507382092591;-0.96630859375;0.10888671875;-0.0751953125;-28.5625;-20.3125;-75.625;
1441975526927162;0.60443115234375;-0.39727783203125;-0.3875732421875;-0.571533203125;15.731068307964353;4.155290097193831;8.723058823136157;-0.86669921875;0.111328125;-0.06103515625;-49.0625;-17.4375;-59.0;
1441975526950164;0.61126708984375;-0.39068603515625;-0.3941650390625;-0.56427001953125;15.732986947541962;4.108458197919575;8.755950780760564;-0.79638671875;0.11181640625;-0.0595703125;-63.5;-15.0625;-43.625;
1441975526965164;0.61834716796875;-0.38385009765625;-0.40301513671875;-0.554931640625;15.757326135028213;4.052737283656469;8.79398085745514;-0.7607421875;0.130859375;-0.064453125;-74.875;-14.3125;-29.4375;
1441975526987166;0.6231689453125;-0.37713623046875;-0.411865234375;-0.54754638671875;15.786702502687596;4.033111212061946;8.855403127710312;-0.75830078125;0.0595703125;-0.10009765625;-87.875;-20.0625;-13.9375;
1441975527010167;0.62200927734375;-0.37396240234375;-0.42010498046875;-0.5447998046875;15.844291070389083;4.081802143413739;8.941756043591441;-0.7734375;-0.13525390625;-0.08203125;-74.75;-27.75;-0.625;
1441975527025168;0.61480712890625;-0.37640380859375;-0.42718505859375;-0.54583740234375;15.94059666119194;4.179755066307814;9.028631315291758;-0.74951171875;-0.14501953125;-0.0205078125;-31.6875;-34.6875;13.8125;
1441975527047169;0.6048583984375;-0.38250732421875;-0.434814453125;-0.54669189453125;16.07578419438565;4.2892071442431465;9.110357657718735;-0.73388671875;-0.1025390625;-0.02294921875;17.25;-36.6875;32.5;
1441975527070170;0.593994140625;-0.39007568359375;-0.44476318359375;-0.54522705078125;16.248946537142686;4.4057169485033185;9.205712566259418;-0.79345703125;-0.0703125;-0.0732421875;34.4375;-37.3125;51.0625;
1441975527085171;0.583251953125;-0.3973388671875;-0.4576416015625;-0.54083251953125;16.45002223019669;4.541538152747498;9.338661796356694;-0.86083984375;-0.041015625;-0.0908203125;28.0;-40.125;69.5;
1441975527109173;0.57305908203125;-0.4034423828125;-0.47186279296875;-0.53497314453125;16.652196283659013;4.7176202632197475;9.525006612791017;-0.88623046875;-0.05126953125;-0.05810546875;9.625;-42.875;86.875;
1441975527130174;0.56207275390625;-0.40985107421875;-0.48748779296875;-0.52777099609375;16.86763611854851;4.973117861603534;9.795525648581993;-0.95703125;-0.0458984375;-0.04296875;-4.375;-42.9375;100.0;
1441975527145175;0.54779052734375;-0.4178466796875;-0.50341796875;-0.52154541015625;17.085130851305212;5.430946334255807;10.252451443900034;-1.11572265625;-0.14892578125;-0.0869140625;-8.1875;-47.0;112.3125;
1441975527169176;0.5289306640625;-0.4302978515625;-0.517578125;-0.5169677734375;17.29129987600328;6.234395599373189;11.019358889407888;-1.228515625;-0.365234375;-0.05224609375;8.375;-54.25;127.8125;
1441975527190177;0.50665283203125;-0.44781494140625;-0.52947998046875;-0.5123291015625;17.445294681932594;7.615273147832393;12.333265694806835;-1.1572265625;-0.34130859375;0.01904296875;44.5625;-51.75;143.75;
1441975527205178;0.48406982421875;-0.46685791015625;-0.54107666015625;-0.5050048828125;17.444005506279424;9.484128149119156;14.136967021836483;-1.052734375;-0.208984375;0.01611328125;74.625;-40.25;159.875;
1441975527227179;0.46319580078125;-0.4842529296875;-0.55364990234375;-0.49444580078125;17.261936024998562;10.87377888235128;15.483292573194689;-1.021484375;-0.0556640625;-0.00927734375;73.125;-29.375;170.625;
1441975527250181;0.4443359375;-0.49908447265625;-0.56756591796875;-0.48101806640625;16.98951819062918;11.62129978461632;16.212756002516418;-1.056640625;0.0625;-0.01025390625;51.6875;-23.25;173.5625;
1441975527265182;0.4276123046875;-0.51104736328125;-0.58270263671875;-0.46533203125;16.687063017923013;12.022255922224321;16.620115693804745;-1.087890625;0.130859375;0.01416015625;25.8125;-19.4375;174.1875;
1441975527287183;0.41259765625;-0.52044677734375;-0.59869384765625;-0.44775390625;16.37571433683642;12.254477562141231;16.879182892171716;-1.10205078125;0.13818359375;0.03662109375;1.625;-16.5625;172.4375;
1441975527310184;0.39892578125;-0.5279541015625;-0.61492919921875;-0.428955078125;16.06552837470259;12.398394486051385;17.063906245440585;-1.10400390625;0.12939453125;0.06884765625;-18.5;-13.8125;171.0625;
1441975527324185;0.3863525390625;-0.5341796875;-0.63043212890625;-0.40985107421875;15.766390111282513;12.493417024183257;17.205909254013143;-1.0546875;0.130859375;0.08349609375;-31.6875;-11.0;168.25;
1441975527347186;0.3753662109375;-0.53948974609375;-0.64404296875;-0.3916015625;15.495161166755711;12.561860905016763;17.32111678874366;-0.97607421875;0.1640625;0.10009765625;-37.5625;-7.125;161.0;
1441975527370188;0.3663330078125;-0.5438232421875;-0.65557861328125;-0.374755859375;15.259461775181329;12.612930737093494;17.41774696420476;-0.92138671875;0.2294921875;0.09521484375;-37.125;-2.0625;146.0625;
1441975527385188;0.35906982421875;-0.5469970703125;-0.66546630859375;-0.35931396484375;15.056429415179949;12.649285901296208;17.499668525160004;-0.88525390625;0.2626953125;0.08544921875;-35.5625;2.6875;128.0;
1441975527407190;0.35491943359375;-0.54852294921875;-0.67303466796875;-0.34674072265625;14.910321599705249;12.672018505741127;17.566699379882383;-0.865234375;0.27783203125;0.09716796875;-35.6875;6.1875;111.0625;
1441975527430191;0.3525390625;-0.54931640625;-0.678955078125;-0.33624267578125;14.800161411327542;12.689098271396006;17.62442094802781;-0.86376953125;0.2841796875;0.1044921875;-34.5625;8.5625;92.625;
1441975527452192;0.3515625;-0.54962158203125;-0.6834716796875;-0.32757568359375;14.719834545109906;12.70319126539721;17.67504498164036;-0.8583984375;0.2705078125;0.107421875;-31.0625;10.9375;76.0;
1441975527469193;0.351806640625;-0.549560546875;-0.6866455078125;-0.32061767578125;14.666568224023589;12.716177708005239;17.720021765588324;-0.82275390625;0.2529296875;0.1044921875;-27.4375;12.5625;61.125;
1441975527490194;0.35345458984375;-0.5491943359375;-0.6884765625;-0.3154296875;14.642069964735839;12.729630546595766;17.760945554587284;-0.7666015625;0.24658203125;0.1015625;-23.625;14.3125;46.1875;
1441975527506195;0.3565673828125;-0.54852294921875;-0.68890380859375;-0.31219482421875;14.648211105934752;12.744053619646447;17.797651908000297;-0.70751953125;0.2373046875;0.09521484375;-19.375;16.875;30.3125;
1441975527527197;0.36083984375;-0.54736328125;-0.688232421875;-0.310791015625;14.680986442827553;12.756764392738964;17.82840463756106;-0.67236328125;0.2353515625;0.08984375;-15.0625;18.75;13.8125;
1441975527550198;0.3663330078125;-0.5455322265625;-0.68670654296875;-0.31103515625;14.739335368218097;12.766397409846167;17.853824881979314;-0.65673828125;0.2373046875;0.08056640625;-12.375;19.125;-1.25;
1441975527566199;0.373046875;-0.54315185546875;-0.6839599609375;-0.31329345703125;14.82680427520035;12.774593021698795;17.87296287689753;-0.6591796875;0.24609375;0.06982421875;-11.5625;18.4375;-15.0625;
1441975527587200;0.3804931640625;-0.5399169921875;-0.68060302734375;-0.317138671875;14.935202110612202;12.775770632818537;17.88296257495148;-0.68408203125;0.2421875;0.04052734375;-9.0;17.0625;-30.0625;
1441975527617202;0.38812255859375;-0.536376953125;-0.67657470703125;-0.32244873046875;15.057955309240032;12.7726581708905;17.883560166640006;-0.6767578125;0.23974609375;0.04248046875;-8.125;14.875;-42.0625;
1441975527632203;0.396240234375;-0.53289794921875;-0.671142578125;-0.32958984375;15.201862673979022;12.771245879503669;17.877286800609184;-0.6474609375;0.2490234375;0.056640625;-3.75;13.8125;-53.0625;
1441975527647203;0.40509033203125;-0.5291748046875;-0.6640625;-0.33905029296875;15.373955515397244;12.768161174921165;17.860265577328626;-0.64453125;0.2744140625;0.056640625;3.625;13.0625;-67.0;
1441975527677205;0.414306640625;-0.52471923828125;-0.65606689453125;-0.350341796875;15.566576506568843;12.753461742485888;17.826763482728378;-0.68994140625;0.2802734375;0.04248046875;11.125;11.375;-82.375;
1441975527686206;0.423828125;-0.51953125;-0.64691162109375;-0.3634033203125;15.779918475065605;12.724791665646356;17.773884280137306;-0.7470703125;0.29345703125;0.05517578125;14.75;8.8125;-94.5625;
1441975527715207;0.43353271484375;-0.5137939453125;-0.636474609375;-0.378173828125;16.012301245697767;12.67842689906422;17.696937659872248;-0.80810546875;0.2958984375;0.0478515625;19.8125;7.0625;-108.1875;
1441975527730208;0.44293212890625;-0.50799560546875;-0.62469482421875;-0.3944091796875;16.25660126514083;12.610393707517124;17.589798718278132;-0.875;0.2509765625;0.064453125;25.125;5.0;-118.625;
1441975527746209;0.4515380859375;-0.50286865234375;-0.611328125;-0.41192626953125;16.506133395014242;12.518196930902374;17.44638252572706;-0.92138671875;0.2099609375;0.08642578125;33.625;3.0625;-125.5;
1441975527767210;0.45892333984375;-0.49835205078125;-0.59649658203125;-0.430419921875;16.754339357665856;12.381374841804274;17.246589650440885;-0.97998046875;0.169921875;0.10205078125;45.75;2.375;-129.9375;
1441975527790212;0.4649658203125;-0.494140625;-0.58160400390625;-0.4488525390625;16.984880355607018;12.161999349794726;16.960012174708915;-1.06640625;0.115234375;0.09716796875;57.25;0.3125;-131.1875;
1441975527806213;0.469482421875;-0.49041748046875;-0.567138671875;-0.46636962890625;17.184407875564855;11.827021643708552;16.556362888710904;-1.0947265625;0.02978515625;0.0927734375;62.3125;-3.0625;-125.5625;
1441975527827214;0.4730224609375;-0.4869384765625;-0.5535888671875;-0.48248291015625;17.345865880552935;11.326211363216103;15.99032921739444;-1.03564453125;-0.0419921875;0.1181640625;63.75;-5.125;-115.5;
1441975527850215;0.47650146484375;-0.48284912109375;-0.5411376953125;-0.4970703125;17.463568179041513;10.575488333007801;15.183666602789023;-1.00537109375;-0.0693359375;0.13037109375;60.875;-5.6875;-105.1875;
1441975527867216;0.4798583984375;-0.478515625;-0.5313720703125;-0.50836181640625;17.517458945109755;9.710719989167751;14.280548880444707;-0.98046875;-0.07421875;0.1083984375;52.375;-5.375;-92.9375;
1441975527895218;0.48394775390625;-0.4735107421875;-0.52484130859375;-0.515869140625;17.522789026497353;8.921772153466938;13.477424560108034;-0.9599609375;-0.0361328125;0.107421875;35.375;-4.5;-80.0;
1441975527910218;0.4891357421875;-0.46759033203125;-0.52166748046875;-0.51971435546875;17.502014471834023;8.314769756321137;12.882148741055184;-0.970703125;0.00439453125;0.10107421875;11.375;-3.375;-67.5625;
1441975527932220;0.4949951171875;-0.4613037109375;-0.5213623046875;-0.52001953125;17.478300622818796;7.908921786797148;12.509393544795037;-0.978515625;0.0380859375;0.109375;-14.3125;-1.625;-55.6875;
1441975527947221;0.50115966796875;-0.4554443359375;-0.522705078125;-0.51788330078125;17.464602117310104;7.629409003993854;12.274359752459484;-0.99072265625;0.08251953125;0.12890625;-35.25;1.875;-43.25;
1441975527970222;0.507080078125;-0.4501953125;-0.525146484375;-0.5142822265625;17.460293708162723;7.440003613270418;12.13433608788244;-1.01806640625;0.10205078125;0.11767578125;-46.8125;5.0;-32.875;
1441975527986223;0.5123291015625;-0.4456787109375;-0.52777099609375;-0.51025390625;17.461810018669894;7.301701613968887;12.043159891199771;-1.0380859375;0.12060546875;0.11767578125;-51.0;6.6875;-24.625;
1441975528007224;0.516357421875;-0.44219970703125;-0.53021240234375;-0.5067138671875;17.465151713900386;7.215946263662149;11.996120505666113;-1.033203125;0.1005859375;0.1005859375;-48.5;6.8125;-17.6875;
1441975528030225;0.5185546875;-0.440185546875;-0.53253173828125;-0.5037841796875;17.47219868808742;7.2160754824172315;12.02340756048909;-0.99462890625;0.06494140625;0.09326171875;-39.625;5.0;-11.0625;
1441975528060227;0.518798828125;-0.439697265625;-0.53485107421875;-0.50146484375;17.482710783174397;7.317017572900268;12.13976765105091;-0.94677734375;0.03857421875;0.09912109375;-27.625;3.1875;-2.5;
1441975528067227;0.5174560546875;-0.44073486328125;-0.53741455078125;-0.49920654296875;17.499220662293318;7.527461490101043;12.357201160108826;-0.91162109375;0.02197265625;0.1005859375;-15.375;0.6875;7.0625;
1441975528090229;0.5147705078125;-0.4425048828125;-0.54083251953125;-0.49676513671875;17.512122278209635;7.86590950978033;12.699657563007557;-0.90185546875;0.025390625;0.0869140625;-6.6875;-2.1875;16.1875;
1441975528106230;0.51129150390625;-0.4447021484375;-0.54486083984375;-0.49395751953125;17.516881870554457;8.29525417075174;13.132331854557076;-0.90673828125;0.04052734375;0.08203125;-3.0625;-6.125;24.4375;
1441975528127231;0.5067138671875;-0.447509765625;-0.54931640625;-0.4912109375;17.505337474798598;8.795251726484572;13.631815577028163;-0.9345703125;0.02001953125;0.0791015625;-2.0;-9.375;32.6875;
1441975528150232;0.5006103515625;-0.45135498046875;-0.5538330078125;-0.4888916015625;17.472112146370694;9.326450092265615;14.154112994212625;-0.9609375;-0.0126953125;0.0830078125;2.1875;-12.5;41.1875;
1441975528166233;0.492919921875;-0.45672607421875;-0.5582275390625;-0.4866943359375;17.417533788242814;9.862953661833512;14.672109051793196;-0.9716796875;-0.02197265625;0.10302734375;11.1875;-14.5;49.25;
1441975528187234;0.484130859375;-0.4632568359375;-0.5625;-0.4844970703125;17.341759185670348;10.349863583395964;15.133690326630202;-0.97705078125;0.00537109375;0.111328125;21.125;-15.375;56.0625;
1441975528211236;0.47454833984375;-0.47015380859375;-0.56695556640625;-0.4820556640625;17.24452774720053;10.754819005204155;15.511263957418082;-0.990234375;0.03369140625;0.099609375;28.0;-16.3125;61.75;
1441975528232237;0.4647216796875;-0.47723388671875;-0.57183837890625;-0.47894287109375;17.131152151564997;11.088800195307828;15.819795489742074;-1.00048828125;0.04931640625;0.10693359375;30.3125;-17.5625;66.5;
1441975528247238;0.455078125;-0.4840087890625;-0.57696533203125;-0.4752197265625;17.008607315656644;11.35150752004152;16.060927973502448;-0.99609375;0.07763671875;0.1083984375;28.875;-17.8125;70.8125;
1441975528270239;0.4459228515625;-0.4901123046875;-0.58251953125;-0.47088623046875;16.880555735437735;11.553507714678164;16.247671233355415;-1.00244140625;0.09228515625;0.09912109375;24.75;-17.6875;73.1875;
1441975528286240;0.43719482421875;-0.49566650390625;-0.58819580078125;-0.46612548828125;16.75084017022412;11.711807005960202;16.39511627184134;-0.99658203125;0.0947265625;0.11279296875;18.6875;-17.125;74.75;
1441975528307241;0.42877197265625;-0.50091552734375;-0.59381103515625;-0.46124267578125;16.621376916933322;11.83863776270946;16.513019048169667;-0.9755859375;0.09765625;0.11669921875;14.5;-15.875;75.1875;
1441975528337243;0.42083740234375;-0.50592041015625;-0.5989990234375;-0.456298828125;16.497183074442432;11.944924998645774;16.611433554608638;-0.9619140625;0.111328125;0.1279296875;12.625;-14.6875;74.5;
1441975528345243;0.41339111328125;-0.51068115234375;-0.60369873046875;-0.4515380859375;16.37984527145925;12.033802262444858;16.692597528236135;-0.96875;0.1298828125;0.12744140625;11.6875;-12.875;71.875;
1441975528375245;0.40667724609375;-0.51513671875;-0.6080322265625;-0.44677734375;16.270488015946814;12.111109293557254;16.764109350510772;-0.9765625;0.1572265625;0.130859375;11.4375;-11.0;67.8125;
1441975528390246;0.40106201171875;-0.51873779296875;-0.612060546875;-0.442138671875;16.17345100704371;12.171819618236741;16.8234297223557;-0.97021484375;0.1845703125;0.13134765625;9.5;-8.9375;63.0625;
1441975528405247;0.39654541015625;-0.52142333984375;-0.615966796875;-0.43768310546875;16.0882340596177;12.216865329864053;16.87202599938612;-0.94482421875;0.1982421875;0.130859375;4.9375;-6.6875;57.0625;
1441975528436249;0.393310546875;-0.52325439453125;-0.61944580078125;-0.43341064453125;16.018527543564137;12.251828245548861;16.914968887369838;-0.931640625;0.21484375;0.142578125;-0.3125;-4.375;50.125;
1441975528450249;0.39141845703125;-0.52423095703125;-0.62255859375;-0.42950439453125;15.965334015413836;12.276569132519134;16.95192592464783;-0.9140625;0.22265625;0.142578125;-4.75;-1.6875;42.5;
1441975528474251;0.39080810546875;-0.5245361328125;-0.62506103515625;-0.426025390625;15.929701166269078;12.295306163151434;16.98552268465727;-0.8994140625;0.23486328125;0.14501953125;-9.1875;0.875;33.9375;
1441975528496252;0.3916015625;-0.52386474609375;-0.62701416015625;-0.42327880859375;15.914265310756582;12.302676844863372;17.010904300605187;-0.88916015625;0.23779296875;0.13720703125;-12.125;3.0625;25.375;
1441975528510253;0.3936767578125;-0.5224609375;-0.62823486328125;-0.4212646484375;15.918741647041305;12.302958898553339;17.030740988704316;-0.89697265625;0.23388671875;0.1328125;-15.75;4.875;15.875;
1441975528526254;0.3966064453125;-0.52044677734375;-0.62890625;-0.41998291015625;15.938189516203686;12.295457476999962;17.04327028724624;-0.91162109375;0.2216796875;0.1259765625;-17.5;6.25;7.125;
1441975528549255;0.40045166015625;-0.5179443359375;-0.6287841796875;-0.41961669921875;15.975153487075797;12.281481845184413;17.048351316329853;-0.916015625;0.21728515625;0.12939453125;-18.25;7.375;-0.75;
1441975528570256;0.405029296875;-0.5150146484375;-0.6279296875;-0.42010498046875;16.027304242122124;12.26090041149029;17.045501387352168;-0.93310546875;0.21044921875;0.12548828125;-18.375;8.0;-9.25;
1441975528586257;0.41021728515625;-0.51165771484375;-0.62652587890625;-0.42120361328125;16.0914149605736;12.233708509003762;17.03562094683443;-0.9453125;0.19287109375;0.1201171875;-17.125;8.5625;-16.6875;
1441975528616259;0.41571044921875;-0.50799560546875;-0.624755859375;-0.42291259765625;16.163404971618405;12.198288554653153;17.016379639072916;-0.953125;0.17578125;0.11328125;-17.3125;8.875;-22.4375;
1441975528630260;0.42144775390625;-0.50408935546875;-0.62261962890625;-0.42510986328125;16.24201008034687;12.155163720923078;16.988319005979225;-0.947265625;0.16162109375;0.12744140625;-16.375;9.125;-26.9375;
1441975528645261;0.4273681640625;-0.5;-0.62005615234375;-0.42767333984375;16.32638388031062;12.105216208226958;16.952178123175166;-0.955078125;0.14599609375;0.1240234375;-15.375;8.9375;-30.8125;
1441975528668262;0.43341064453125;-0.49566650390625;-0.617431640625;-0.43048095703125;16.413104786936948;12.044828710769572;16.905732737808613;-0.97265625;0.13134765625;0.11181640625;-14.6875;8.25;-33.8125;
1441975528689263;0.439208984375;-0.49127197265625;-0.61480712890625;-0.433349609375;16.497468948247082;11.975697624267829;16.849855005761867;-0.984375;0.107421875;0.1103515625;-15.125;7.3125;-35.125;
1441975528705264;0.44482421875;-0.487060546875;-0.61199951171875;-0.4364013671875;16.58101278845102;11.900282350134802;16.78555752663903;-0.984375;0.099609375;0.1162109375;-14.5;6.9375;-35.4375;
1441975528729265;0.4500732421875;-0.483154296875;-0.6090087890625;-0.43951416015625;16.661509208056362;11.820800504573786;16.71457421712299;-0.9912109375;0.087890625;0.11865234375;-12.1875;6.8125;-35.6875;
1441975528757267;0.45489501953125;-0.4794921875;-0.6060791015625;-0.442626953125;16.736585118897985;11.734924374836188;16.635452223469766;-1.00146484375;0.0830078125;0.11279296875;-9.875;6.4375;-35.1875;
1441975528774268;0.45928955078125;-0.47613525390625;-0.60333251953125;-0.4454345703125;16.804502722506033;11.648276789514266;16.55489703175456;-1.00244140625;0.08349609375;0.11474609375;-8.0;5.375;-34.0;
1441975528788269;0.46331787109375;-0.47271728515625;-0.6009521484375;-0.44805908203125;16.865174329672357;11.551132014444;16.464588594334174;-0.998046875;0.08251953125;0.10986328125;-7.4375;4.9375;-31.9375;
1441975528810270;0.46697998046875;-0.4696044921875;-0.598876953125;-0.4503173828125;16.918307981318144;11.455810154632255;16.37612175488943;-0.99267578125;0.07763671875;0.11474609375;-7.9375;3.6875;-29.6875;
1441975528832271;0.4703369140625;-0.46661376953125;-0.59716796875;-0.4521484375;16.9642315461763;11.361197501309345;16.289460666969035;-0.9755859375;0.076171875;0.10693359375;-8.25;3.0625;-26.8125;
1441975528849272;0.47332763671875;-0.464111328125;-0.595703125;-0.45361328125;17.003545545091875;11.277402668261123;16.21291183223795;-0.9775390625;0.07958984375;0.11474609375;-9.125;2.75;-24.1875;
1441975528870273;0.47589111328125;-0.46185302734375;-0.59454345703125;-0.45477294921875;17.03576965177782;11.199433791950712;16.14204969281338;-0.97705078125;0.08984375;0.1005859375;-8.25;2.3125;-21.3125;
1441975528885274;0.4781494140625;-0.4595947265625;-0.59368896484375;-0.45574951171875;17.06224937734638;11.120163927588647;16.07044897926722;-0.98486328125;0.095703125;0.10009765625;-8.4375;1.5625;-18.6875;
1441975528909276;0.47998046875;-0.45770263671875;-0.59307861328125;-0.45654296875;17.082576524654016;11.050922223088431;16.007824763510555;-0.9833984375;0.08837890625;0.1064453125;-8.6875;0.6875;-16.0625;
1441975528930277;0.4810791015625;-0.45654296875;-0.59234619140625;-0.45751953125;17.097482389749576;10.995640070134547;15.954074195674648;-0.984375;0.0810546875;0.10693359375;-6.9375;-0.0625;-12.875;
1441975528945278;0.4813232421875;-0.4561767578125;-0.59173583984375;-0.45843505859375;17.104281934149938;10.963528925085848;15.919298697956997;-0.98095703125;0.07763671875;0.1015625;-2.5;-0.9375;-9.8125;
1441975528968279;0.48101806640625;-0.45635986328125;-0.59124755859375;-0.459228515625;17.105665154744358;10.950133463039851;15.90079156764671;-0.978515625;0.0947265625;0.11279296875;2.5;-1.5625;-6.25;
1441975528990280;0.4805908203125;-0.45672607421875;-0.5909423828125;-0.45965576171875;17.104640348514792;10.950824857992206;15.897098175893413;-0.970703125;0.1064453125;0.10498046875;4.4375;-2.25;-3.375;
1441975529006281;0.47998046875;-0.45721435546875;-0.59063720703125;-0.460205078125;17.10214975523707;10.952266756164041;15.892917473938159;-0.96630859375;0.10009765625;0.099609375;4.125;-2.125;-0.6875;
1441975529029282;0.4791259765625;-0.45782470703125;-0.5904541015625;-0.46075439453125;17.096721051133844;10.95746400073747;15.891792423385036;-0.9638671875;0.0908203125;0.10302734375;5.5625;-2.5;0.625;
1441975529050284;0.47784423828125;-0.4588623046875;-0.59033203125;-0.461181640625;17.08740251989204;10.977893111150204;15.903987997517131;-0.9755859375;0.08203125;0.10400390625;6.25;-3.0625;2.8125;
1441975529065285;0.47540283203125;-0.46087646484375;-0.59027099609375;-0.46173095703125;17.06820269251137;11.022908827085626;15.93447023148988;-0.97802734375;0.08251953125;0.10205078125;8.375;-3.75;5.5;
1441975529089286;0.4735107421875;-0.46258544921875;-0.59051513671875;-0.46173095703125;17.05086919981678;11.0699593086004;15.971883500628904;-0.97265625;0.0966796875;0.09521484375;14.5;-6.3125;10.25;
1441975529110287;0.47125244140625;-0.46429443359375;-0.59130859375;-0.46124267578125;17.02573472504207;11.125670040237672;16.019941153960843;-0.97216796875;0.0966796875;0.0947265625;10.125;-4.5;11.125;
1441975529125288;0.468017578125;-0.46710205078125;-0.59210205078125;-0.460693359375;16.991946923469072;11.20741688504368;16.088240573102308;-0.9716796875;0.12939453125;0.1162109375;8.125;-4.3125;13.1875;
1441975529148289;0.466796875;-0.4683837890625;-0.5933837890625;-0.45904541015625;16.97016911956432;11.269900699980694;16.15200883494415;-0.97216796875;0.1455078125;0.08447265625;14.125;-6.875;18.1875;
1441975529169290;0.4666748046875;-0.4683837890625;-0.59527587890625;-0.4566650390625;16.95222240832291;11.3132653452831;16.207403438310756;-0.96923828125;0.09814453125;0.09814453125;-0.4375;-1.625;17.5;
1441975529201292;0.46563720703125;-0.46917724609375;-0.59686279296875;-0.45477294921875;16.92875771813091;11.363718027533814;16.26269525819627;-0.96435546875;0.10986328125;0.11767578125;-11.125;0.4375;14.6875;
1441975529208293;0.4649658203125;-0.46917724609375;-0.5987548828125;-0.45306396484375;16.906486523829212;11.389632715104334;16.297118181027958;-0.98046875;0.11181640625;0.12255859375;-3.6875;-0.875;17.0625;
1441975529230294;0.464111328125;-0.4697265625;-0.60040283203125;-0.45111083984375;16.883646976400087;11.431928575314963;16.345847500887583;-0.97314453125;0.09716796875;0.15673828125;-7.375;-0.875;15.625;
1441975529245295;0.46343994140625;-0.471435546875;-0.601318359375;-0.44891357421875;16.866213259424132;11.505820687893811;16.42189324589966;-0.94921875;0.123046875;0.16455078125;-4.9375;2.1875;15.75;
1441975529275297;0.464111328125;-0.4716796875;-0.60272216796875;-0.4459228515625;16.855731966902695;11.561305978639357;16.491364725604196;-0.95849609375;0.1357421875;0.123046875;-0.5625;5.75;17.0;
1441975529290297;0.46453857421875;-0.4713134765625;-0.6046142578125;-0.44329833984375;16.840535618675766;11.592771096125794;16.538222151276226;-0.95947265625;0.14453125;0.11572265625;-12.5625;6.8125;13.25;
1441975529314299;0.46441650390625;-0.4705810546875;-0.606689453125;-0.44140625;16.82114116475004;11.600054918936687;16.558799734105534;-0.96240234375;0.140625;0.125;-14.3125;2.6875;12.8125;
1441975529328300;0.4649658203125;-0.469482421875;-0.60870361328125;-0.43927001953125;16.807765586549614;11.605739915839145;16.58128653731965;-0.9638671875;0.15380859375;0.14013671875;-12.8125;-1.5;10.5625;
1441975529359301;0.46588134765625;-0.4683837890625;-0.61053466796875;-0.4368896484375;16.798268334238042;11.617345502034224;16.610938358751262;-0.95068359375;0.15966796875;0.1318359375;-16.3125;0.1875;7.875;
1441975529365302;0.467041015625;-0.46746826171875;-0.6116943359375;-0.43499755859375;16.796546302886384;11.628366958738987;16.63679474994922;-0.9443359375;0.15576171875;0.13330078125;-17.1875;2.375;7.5625;
1441975529388303;0.46875;-0.46661376953125;-0.61236572265625;-0.43310546875;16.80288890363706;11.645047059340117;16.668278194985906;-0.94580078125;0.14501953125;0.12939453125;-14.1875;4.4375;4.9375;
1441975529411304;0.470458984375;-0.46490478515625;-0.61328125;-0.43182373046875;16.809989278310624;11.632338581576404;16.671771696318583;-0.94970703125;0.140625;0.10791015625;-14.0;6.125;2.75;
1441975529425305;0.47100830078125;-0.46380615234375;-0.6138916015625;-0.431640625;16.811217381326003;11.611106256194402;16.657572705260044;-0.978515625;0.125;0.123046875;-16.0;2.5625;0.25;
1441975529448306;0.47174072265625;-0.4635009765625;-0.6136474609375;-0.43145751953125;16.81916639095559;11.61158473234595;16.66085083619629;-0.96435546875;0.13330078125;0.14501953125;-6.8125;-0.5625;-0.375;
1441975529478308;0.473388671875;-0.46246337890625;-0.6136474609375;-0.43072509765625;16.832786639738302;11.607970074365614;16.66706713467124;-0.95068359375;0.1474609375;0.12158203125;-2.4375;2.875;-2.1875;
1441975529492309;0.475830078125;-0.4599609375;-0.6143798828125;-0.4296875;16.848972191174592;11.577057652252268;16.65549606715592;-0.9697265625;0.162109375;0.09765625;-10.0;3.4375;-5.0;
1441975529508310;0.47845458984375;-0.4576416015625;-0.6148681640625;-0.4285888671875;16.868091502598194;11.552532310687276;16.64976347852749;-0.96728515625;0.12890625;0.1337890625;-19.5625;4.0625;-6.0;
1441975529531311;0.48077392578125;-0.45538330078125;-0.61529541015625;-0.42767333984375;16.88535685003794;11.524821172355852;16.639129018938583;-0.9775390625;0.10498046875;0.1201171875;-18.625;4.875;-5.1875;
1441975529560313;0.48272705078125;-0.4537353515625;-0.61553955078125;-0.4268798828125;16.900382740650734;11.507742114998322;16.635398629293835;-0.97216796875;0.09619140625;0.1201171875;-16.9375;3.5;-4.4375;
1441975529568313;0.48480224609375;-0.4521484375;-0.61578369140625;-0.4259033203125;16.915994970838753;11.495673541049893;16.637373318433117;-0.966796875;0.09716796875;0.1123046875;-12.875;3.8125;-3.0;
1441975529591315;0.486572265625;-0.4505615234375;-0.61614990234375;-0.42498779296875;16.928244307474497;11.48068642168774;16.63576741677097;-0.9794921875;0.0927734375;0.09912109375;-13.9375;3.8125;-2.4375;
1441975529605315;0.487548828125;-0.4493408203125;-0.61676025390625;-0.42437744140625;16.932167896737422;11.464269880297655;16.629200744320865;-0.98876953125;0.0947265625;0.10302734375;-13.25;2.375;-1.3125;
1441975529628317;0.48785400390625;-0.448486328125;-0.61724853515625;-0.4241943359375;16.931714415462817;11.446512936273225;16.616757957373427;-0.98681640625;0.10107421875;0.11181640625;-9.6875;-0.375;0.125;
1441975529651318;0.48773193359375;-0.44830322265625;-0.61749267578125;-0.4241943359375;16.92906817844103;11.44069372618289;16.61183129632063;-0.9619140625;0.1044921875;0.12646484375;-5.4375;-1.3125;1.0625;
1441975529665319;0.48779296875;-0.4481201171875;-0.61767578125;-0.42401123046875;16.92807333249512;11.439317573255892;16.6122403085284;-0.96826171875;0.11962890625;0.125;-0.8125;-1.4375;1.75;
1441975529688320;0.48834228515625;-0.4473876953125;-0.61798095703125;-0.42376708984375;16.930773189585043;11.427212575651293;16.60540837908728;-0.95849609375;0.12646484375;0.1142578125;-1.8125;-0.5;0.9375;
1441975529711321;0.48883056640625;-0.4466552734375;-0.61798095703125;-0.42388916015625;16.935871523302875;11.409170297476576;16.590546367923192;-0.97021484375;0.11865234375;0.1142578125;-5.0;-0.4375;-0.5;
1441975529726322;0.48858642578125;-0.447021484375;-0.617431640625;-0.424560546875;16.93873561736185;11.406404775835952;16.582466604188042;-0.97607421875;0.10498046875;0.12060546875;-3.4375;-0.6875;-1.875;
1441975529748324;0.4886474609375;-0.44696044921875;-0.6171875;-0.4249267578125;16.9417827726652;11.399028437533966;16.573653905218208;-0.97216796875;0.109375;0.09912109375;5.375;-1.5;-0.1875;
1441975529771325;0.4886474609375;-0.4464111328125;-0.61749267578125;-0.425048828125;16.940236897416472;11.382315363904805;16.559074713193098;-0.9755859375;0.1083984375;0.09912109375;1.125;-1.6875;-0.375;
1441975529792326;0.48846435546875;-0.44586181640625;-0.61749267578125;-0.4259033203125;16.940603897090604;11.35198846394592;16.527311450947877;-0.9716796875;0.09326171875;0.109375;-2.1875;-3.5;1.5625;
1441975529808327;0.4876708984375;-0.4464111328125;-0.61663818359375;-0.4273681640625;16.942161293466246;11.33760448727346;16.50234059802867;-0.951171875;0.05029296875;0.1220703125;1.6875;-4.125;1.375;
1441975529831328;0.48468017578125;-0.44921875;-0.615234375;-0.429931640625;16.9291355752312;11.351932694277131;16.48843420357978;-0.9423828125;0.04248046875;0.126953125;11.0;-2.5625;2.125;
1441975529852330;0.480224609375;-0.45355224609375;-0.61346435546875;-0.43292236328125;16.90589959438222;11.391369981166529;16.488767777801907;-0.92724609375;0.087890625;0.15234375;28.5;-4.125;5.8125;
1441975529868330;0.4752197265625;-0.4588623046875;-0.61114501953125;-0.43603515625;16.881426644317898;11.450668220115192;16.50265505888781;-0.884765625;0.0703125;0.14013671875;40.0;-6.0625;12.5;
1441975529891332;0.4698486328125;-0.46435546875;-0.60943603515625;-0.4384765625;16.847763338376613;11.520797296655411;16.52951661216419;-0.8662109375;0.09228515625;0.09033203125;45.75;-7.875;13.375;
1441975529912333;0.465087890625;-0.4688720703125;-0.60870361328125;-0.43975830078125;16.810531193091258;11.584861338553706;16.561108716302737;-0.88330078125;0.17333984375;0.07421875;42.9375;-9.625;13.8125;
1441975529929334;0.461181640625;-0.47210693359375;-0.60888671875;-0.440185546875;16.773244675439354;11.632219725805063;16.58727695486478;-0.85205078125;0.21044921875;0.06787109375;31.8125;-9.625;13.5;
1441975529951335;0.45721435546875;-0.4757080078125;-0.6082763671875;-0.4412841796875;16.74211098199717;11.67767607590795;16.60605201571706;-0.82763671875;0.251953125;0.11572265625;21.1875;-6.625;10.5625;
1441975529972336;0.45245361328125;-0.48089599609375;-0.6058349609375;-0.44384765625;16.718772842380737;11.736332540580177;16.621602360411156;-0.78857421875;0.21142578125;0.123046875;26.375;-4.8125;10.1875;
1441975529988337;0.44647216796875;-0.487548828125;-0.60198974609375;-0.4478759765625;16.696717065627606;11.802499549525878;16.628604576734762;-0.7412109375;0.16455078125;0.10888671875;43.625;-3.375;9.5;
1441975530011339;0.43853759765625;-0.4957275390625;-0.59698486328125;-0.45343017578125;16.668205288101557;11.872741643934477;16.62191103849386;-0.7255859375;0.16064453125;0.0966796875;59.0;-4.5625;8.3125;
1441975530032340;0.42864990234375;-0.506103515625;-0.59149169921875;-0.4586181640625;16.62229712476536;11.98287750697949;16.64281309955251;-0.69189453125;0.15673828125;0.1005859375;76.5625;-8.3125;9.8125;
1441975530048341;0.4200439453125;-0.515625;-0.5872802734375;-0.46136474609375;16.5717177615995;12.104998363997103;16.692580365418358;-0.62744140625;0.21142578125;0.07763671875;89.25;-7.75;16.8125;
1441975530071342;0.413818359375;-0.52276611328125;-0.5853271484375;-0.46142578125;16.52000951962496;12.212383651113681;16.755581681576885;-0.57763671875;0.25830078125;0.0634765625;72.875;-2.125;19.0625;
1441975530092343;0.409423828125;-0.52764892578125;-0.585205078125;-0.4599609375;16.469226419419037;12.292864455301975;16.81315261955832;-0.53466796875;0.2509765625;0.0595703125;45.375;2.4375;22.0625;
1441975530108344;0.4063720703125;-0.53082275390625;-0.58587646484375;-0.4581298828125;16.425852577912668;12.347543687029715;16.857075323627075;-0.57568359375;0.2626953125;0.08056640625;24.25;3.625;21.125;
1441975530138346;0.40350341796875;-0.5328369140625;-0.58709716796875;-0.456787109375;16.384498521669695;12.373624280433626;16.876449864202243;-0.6943359375;0.2509765625;0.0693359375;11.625;1.8125;19.875;
1441975530152347;0.39971923828125;-0.53533935546875;-0.58819580078125;-0.455810546875;16.33666236603086;12.398562752830149;16.889197529669598;-0.6923828125;0.1650390625;0.1005859375;7.875;-1.5;22.375;
1441975530168348;0.3951416015625;-0.539794921875;-0.587890625;-0.454833984375;16.28681989121486;12.456157473029513;16.92256055513045;-0.60986328125;0.0986328125;0.12060546875;14.1875;-2.4375;28.125;
1441975530191349;0.3897705078125;-0.54571533203125;-0.58721923828125;-0.453369140625;16.226785430949203;12.535297916471173;16.971237476897613;-0.54443359375;0.078125;0.1044921875;27.125;2.9375;31.8125;
1441975530219351;0.38385009765625;-0.55157470703125;-0.58660888671875;-0.4520263671875;16.161882763482424;12.605572876064532;17.009389202030622;-0.5166015625;0.12548828125;0.08447265625;33.5;5.4375;35.1875;
1441975530228351;0.3770751953125;-0.55633544921875;-0.587646484375;-0.4505615234375;16.081687948785685;12.644833954484225;17.022290083906732;-0.5048828125;0.14404296875;0.08056640625;34.6875;2.5625;35.5625;
1441975530250352;0.369140625;-0.56146240234375;-0.5897216796875;-0.4481201171875;15.98016463740655;12.683584125789643;17.035984795709417;-0.490234375;0.17822265625;0.12646484375;28.625;-3.125;38.625;
1441975530281354;0.363037109375;-0.5672607421875;-0.59112548828125;-0.4439697265625;15.887287907168364;12.752810664675254;17.086491277463047;-0.466796875;0.23388671875;0.1533203125;27.5625;-3.125;45.375;
1441975530288355;0.358642578125;-0.5718994140625;-0.593017578125;-0.43896484375;15.803318058828069;12.814465074297043;17.141671469287;-0.46484375;0.21826171875;0.11279296875;23.0625;8.9375;46.5;
1441975530310356;0.35430908203125;-0.57470703125;-0.59613037109375;-0.43450927734375;15.720049414207812;12.841066369192127;17.16926801038482;-0.55517578125;0.2490234375;0.06591796875;10.5;10.0;43.5;
1441975530333357;0.349365234375;-0.57537841796875;-0.60150146484375;-0.4302978515625;15.626052345613257;12.826049618844154;17.165586188068716;-0.6162109375;0.2431640625;0.05859375;1.125;0.5625;43.5;
1441975530348358;0.34393310546875;-0.5770263671875;-0.6060791015625;-0.426025390625;15.529687761915648;12.824917432750176;17.169356953898255;-0.59326171875;0.236328125;0.1162109375;-10.125;-8.875;46.375;
1441975530370359;0.33880615234375;-0.5809326171875;-0.60809326171875;-0.4219970703125;15.445365717570247;12.859773228360954;17.195173418788567;-0.58251953125;0.27392578125;0.16015625;-2.0;-3.3125;46.375;
1441975530393361;0.33428955078125;-0.58544921875;-0.60906982421875;-0.41790771484375;15.369365635130727;12.906858193465336;17.230329180348942;-0.70751953125;0.33984375;0.12548828125;13.0;4.0625;42.875;
1441975530416362;0.3314208984375;-0.58758544921875;-0.6107177734375;-0.414794921875;15.314472654206448;12.92589994758198;17.24845290684456;-0.904296875;0.4501953125;0.068359375;14.4375;5.625;39.5625;
1441975530438363;0.32952880859375;-0.5877685546875;-0.61322021484375;-0.412353515625;15.271831897713813;12.921060962709388;17.251915493422246;-1.10302734375;0.4697265625;0.0830078125;2.6875;0.375;33.375;
1441975530453364;0.3289794921875;-0.58770751953125;-0.61517333984375;-0.40997314453125;15.243914467738707;12.921021484044305;17.263122137409702;-1.11474609375;0.44189453125;0.10107421875;-7.6875;-3.5625;28.75;
1441975530475365;0.33013916015625;-0.58721923828125;-0.61602783203125;-0.40838623046875;15.241148348656065;12.924291597260503;17.278445249187737;-1.060546875;0.42578125;0.11083984375;-9.1875;2.3125;22.125;
1441975530490366;0.330810546875;-0.58709716796875;-0.61639404296875;-0.407470703125;15.239794347599776;12.928318161715252;17.288591279032428;-1.14111328125;0.388671875;0.0927734375;-9.8125;4.875;14.8125;
1441975530513367;0.330810546875;-0.58734130859375;-0.61700439453125;-0.4061279296875;15.228345436198795;12.934427390679458;17.299706443098692;-1.20166015625;0.41357421875;0.10302734375;-4.625;3.0625;14.4375;
1441975530534369;0.33135986328125;-0.58782958984375;-0.6175537109375;-0.40423583984375;15.217784172961121;12.94769091733323;17.320331890197984;-1.201171875;0.49072265625;0.0869140625;-4.125;1.875;14.6875;
1441975530558370;0.333984375;-0.5860595703125;-0.61944580078125;-0.40179443359375;15.219950876663697;12.94290517674843;17.341316063869527;-1.19970703125;0.515625;0.01513671875;-7.8125;1.625;13.5;
1441975530574371;0.3365478515625;-0.5838623046875;-0.62152099609375;-0.3995361328125;15.222975380561573;12.932152413293977;17.357405016233223;-1.185546875;0.45361328125;-0.001953125;-26.25;2.1875;10.75;
1441975530595372;0.3377685546875;-0.58380126953125;-0.6217041015625;-0.3983154296875;15.224969010048165;12.94117330056478;17.374354368374778;-1.236328125;0.4619140625;0.02392578125;-27.0;1.25;10.9375;
1441975530610373;0.33697509765625;-0.5858154296875;-0.62054443359375;-0.3978271484375;15.216027182590315;12.965641621635529;17.38854090026048;-1.24609375;0.4501953125;-0.03515625;-10.25;-2.4375;12.75;
1441975530634374;0.33514404296875;-0.591552734375;-0.61639404296875;-0.39739990234375;15.203297655507942;13.036136103531945;17.42567794764084;-1.18798828125;0.537109375;-0.0087890625;8.25;-2.25;10.6875;
1441975530654375;0.3349609375;-0.59552001953125;-0.61322021484375;-0.396484375;15.200226630591937;13.093481502255031;17.464088725561684;-1.18505859375;0.60986328125;-0.0771484375;31.875;4.8125;9.8125;
1441975530670376;0.33514404296875;-0.59783935546875;-0.61163330078125;-0.395263671875;15.19483565327415;13.129857901080909;17.493057622040272;-1.255859375;0.66552734375;-0.08984375;17.625;5.9375;3.8125;
1441975530693378;0.3353271484375;-0.59869384765625;-0.6116943359375;-0.3936767578125;15.183509307376625;13.145429712917082;17.511478468591907;-1.2392578125;0.60986328125;-0.06494140625;5.75;3.5;7.25;
1441975530716379;0.33587646484375;-0.60272216796875;-0.60858154296875;-0.3919677734375;15.179061966019475;13.209087761024977;17.560701233887766;-1.1416015625;0.56494140625;0.01513671875;-2.4375;4.5;9.1875;
1441975530730380;0.33526611328125;-0.60931396484375;-0.60382080078125;-0.38958740234375;15.159463206323904;13.302861695917821;17.626078990332214;-1.08984375;0.44091796875;-0.0625;16.75;15.0;13.6875;
1441975530754381;0.3331298828125;-0.61614990234375;-0.59930419921875;-0.3876953125;15.127907615682222;13.387564367470604;17.6763498511891;-1.1533203125;0.60791015625;-0.12744140625;30.5;19.3125;13.125;
1441975530775382;0.3302001953125;-0.62274169921875;-0.59613037109375;-0.384521484375;15.075526283077187;13.46253776003827;17.722860098877955;-1.20849609375;0.677734375;-0.10986328125;35.625;14.75;15.875;
1441975530790383;0.3297119140625;-0.6280517578125;-0.5936279296875;-0.3802490234375;15.033810152683781;13.535744954740968;17.7838985394482;-1.08251953125;0.70361328125;-0.115234375;30.0625;14.4375;20.6875;
1441975530813385;0.32891845703125;-0.635009765625;-0.58880615234375;-0.37677001953125;14.997193985721456;13.630424213774532;17.85135242858169;-1.03369140625;0.595703125;0.0078125;20.6875;30.8125;20.3125;
1441975530835386;0.32415771484375;-0.645751953125;-0.58331298828125;-0.37109375;14.90266641115975;13.745830303219227;17.920520469201865;-1.22119140625;0.568359375;-0.03369140625;35.8125;33.75;25.9375;
1441975530850387;0.3265380859375;-0.662841796875;-0.57159423828125;-0.35693359375;14.78205497625719;13.996584366777514;0.1336726827538267;-1.1142578125;0.7294921875;-0.09912109375;54.625;35.625;40.8125;
1441975530873388;0.345703125;-0.64886474609375;-0.58203125;-0.34765625;14.858848894616235;13.946478238274171;0.24174940323736105;-0.724609375;0.4375;-0.44189453125;55.625;96.9375;45.875;
1441975530902390;0.35784912109375;-0.64849853515625;-0.5782470703125;-0.34222412109375;14.905195969032354;14.044239441883867;0.3818459847424157;-1.1171875;1.73828125;0.5087890625;-134.9375;58.375;-63.1875;
1441975530934391;0.36456298828125;-0.637451171875;-0.59564208984375;-0.32562255859375;14.81438498998244;13.92726704827952;0.4187211448167542;-1.14501953125;0.166015625;-0.55859375;-40.625;41.875;-4.375;
1441975530936392;0.34881591796875;-0.6578369140625;-0.58349609375;-0.3243408203125;14.648278724454164;14.067904141756033;0.4187025272555813;-2.30908203125;1.11474609375;1.16845703125;-148.8125;26.4375;41.5;
1441975530962393;0.35235595703125;-0.6607666015625;-0.5867919921875;-0.30816650390625;14.515727783413416;14.11376285460239;0.5243313733117931;-0.4248046875;1.06298828125;-0.3642578125;139.5625;10.25;70.4375;
1441975530978394;0.3514404296875;-0.65496826171875;-0.59454345703125;-0.30682373046875;14.505650546505189;14.027442504859328;0.4799674839748878;-1.34228515625;1.32861328125;-0.38720703125;-45.8125;59.9375;28.375;
1441975531000395;0.35931396484375;-0.64044189453125;-0.60888671875;-0.3001708984375;14.528048445351368;13.895683726143604;0.4784869791374711;-0.958984375;1.14990234375;0.07275390625;-38.25;-12.6875;-19.125;
1441975531022396;0.36187744140625;-0.632568359375;-0.61724853515625;-0.29656982421875;14.527534880849485;13.81316511866136;0.46321953882870714;-0.64794921875;0.73193359375;0.28271484375;-126.875;2.3125;-14.9375;
1441975531032397;0.36395263671875;-0.63043212890625;-0.6180419921875;-0.29693603515625;14.551032949852763;13.802879728766353;0.4667570371202447;-0.67724609375;0.54931640625;0.1748046875;-60.75;4.25;-3.5625;
1441975531061399;0.36431884765625;-0.6251220703125;-0.62542724609375;-0.29217529296875;14.518246236082618;13.735980177628969;0.4535426681194119;-1.11669921875;0.84228515625;-0.0703125;-12.125;1.375;-16.8125;
1441975531075400;0.3673095703125;-0.61260986328125;-0.6405029296875;-0.28216552734375;14.470465448736006;13.600891810601658;0.4408994955879919;-1.203125;0.9326171875;0.00244140625;-53.0625;-2.125;11.375;
1441975531090400;0.36572265625;-0.60443115234375;-0.65216064453125;-0.2750244140625;14.404247219231044;13.490916654612759;0.4082009387829872;-1.0244140625;0.74365234375;0.16162109375;-122.75;-3.0625;23.875;
1441975531113402;0.3641357421875;-0.5972900390625;-0.66241455078125;-0.26812744140625;14.338763250283236;13.39749881169213;0.3842938428897027;-0.98974609375;0.806640625;0.1640625;-77.0;-9.125;28.1875;
1441975531134403;0.36346435546875;-0.58978271484375;-0.67327880859375;-0.25860595703125;14.259522287895154;13.310148573022769;0.3807303392921122;-0.97705078125;0.88134765625;0.17236328125;-68.1875;-6.6875;23.5;
1441975531150404;0.363037109375;-0.57952880859375;-0.686767578125;-0.24658203125;14.166217309182388;13.20019726934507;0.3802107120769379;-0.99072265625;0.86279296875;0.07958984375;-83.6875;-2.5;33.25;
1441975531173405;0.36199951171875;-0.56842041015625;-0.7005615234375;-0.23486328125;14.072679431641312;13.083110632168532;0.37422530058829184;-0.90087890625;0.7197265625;0.06591796875;-109.625;-4.75;46.1875;
1441975531196406;0.3614501953125;-0.562255859375;-0.7086181640625;-0.2261962890625;14.004576209472463;13.022610477399597;0.38424218325414805;-0.8740234375;0.6728515625;0.08251953125;-112.4375;-9.625;46.5625;
1441975531224408;0.36224365234375;-0.55780029296875;-0.714111328125;-0.21856689453125;13.956399599210377;12.987765725022852;0.4075013829811387;-0.8916015625;0.658203125;-0.0283203125;-74.75;-7.3125;38.9375;
1441975531241409;0.36083984375;-0.5582275390625;-0.71612548828125;-0.21307373046875;13.899528238288509;12.989038266306872;0.4280893380008686;-0.95849609375;0.6357421875;-0.0859375;-61.4375;-1.8125;35.1875;
1441975531256410;0.3564453125;-0.5618896484375;-0.71563720703125;-0.2125244140625;13.849901383433934;13.002386949875913;0.4181572041522855;-0.8408203125;0.53759765625;-0.1513671875;-25.5625;-6.6875;40.3125;
1441975531270411;0.34814453125;-0.56890869140625;-0.71307373046875;-0.21630859375;13.794756091935456;13.025705118450489;0.37585486257781453;-0.791015625;0.4228515625;-0.1552734375;10.1875;-25.4375;37.0;
1441975531293412;0.33465576171875;-0.58209228515625;-0.70660400390625;-0.22344970703125;13.71420248974609;13.084148810654177;0.3115145206409295;-0.7744140625;0.3349609375;-0.1630859375;44.8125;-47.375;40.4375;
1441975531316413;0.31842041015625;-0.59637451171875;-0.69970703125;-0.2310791015625;13.615293022534118;13.143722179434073;0.23357344524162668;-0.67431640625;0.45068359375;-0.13916015625;96.25;-61.0;41.75;
1441975531330414;0.30126953125;-0.6103515625;-0.692626953125;-0.23883056640625;13.513982460520202;13.201050116205325;0.15000250071600701;-0.67724609375;0.5380859375;-0.095703125;114.125;-62.0;42.9375;
1441975531353415;0.284423828125;-0.6246337890625;-0.68402099609375;-0.2471923828125;13.42568526450957;13.268067835411332;0.06860851064487997;-0.693359375;0.5869140625;-0.04541015625;115.75;-65.4375;44.5625;
1441975531376417;0.26947021484375;-0.63677978515625;-0.67547607421875;-0.25634765625;13.36662848064503;13.326131823136574;17.987616916094744;-0.61962890625;0.59912109375;-0.0390625;123.5;-62.625;38.9375;
1441975531390418;0.25604248046875;-0.64739990234375;-0.66632080078125;-0.26727294921875;13.340944696158619;13.378777797634319;17.90276353105773;-0.630859375;0.6337890625;-0.01220703125;113.375;-61.125;25.75;
1441975531413419;0.2447509765625;-0.6580810546875;-0.6553955078125;-0.27850341796875;13.341811996581558;13.444256958266347;17.830605630572364;-0.65087890625;0.61181640625;0.0341796875;111.25;-61.9375;10.5625;
1441975531436420;0.23699951171875;-0.66845703125;-0.64361572265625;-0.2877197265625;13.360722584730974;13.52365799220188;17.78808876777404;-0.6220703125;0.63330078125;0.052734375;115.6875;-52.0;-1.5625;
1441975531457421;0.23309326171875;-0.674560546875;-0.63519287109375;-0.29547119140625;13.399926826479259;13.5740370327362;17.757244590047414;-0.58056640625;0.67431640625;0.03759765625;109.0625;-30.1875;-10.5;
1441975531473422;0.2301025390625;-0.677490234375;-0.62890625;-0.30426025390625;13.456083599240138;13.595879696279816;17.714396557546362;-0.58544921875;0.6005859375;0.06884765625;76.125;-18.75;-18.9375;
1441975531496424;0.226806640625;-0.68133544921875;-0.62091064453125;-0.3145751953125;13.525212611424154;13.626871874818763;17.667308557586775;-0.5634765625;0.54248046875;0.16064453125;60.6875;-22.875;-25.6875;
1441975531517425;0.22564697265625;-0.68487548828125;-0.61151123046875;-0.32586669921875;13.624063527969174;13.66507718146604;17.628439467433104;-0.49462890625;0.49267578125;0.203125;75.1875;-23.4375;-33.125;
1441975531533426;0.226318359375;-0.68743896484375;-0.60150146484375;-0.33843994140625;13.751664156443573;13.701396122577142;17.591531086745597;-0.47900390625;0.39306640625;0.1708984375;75.375;-19.8125;-44.875;
1441975531556427;0.228515625;-0.6873779296875;-0.59222412109375;-0.35302734375;13.910773098855785;13.716153643577787;17.543022375467842;-0.46142578125;0.34521484375;0.1552734375;71.8125;-19.9375;-57.875;
1441975531577428;0.23236083984375;-0.68511962890625;-0.5831298828125;-0.36968994140625;14.103092944450264;13.71276580982591;17.48358606969303;-0.44189453125;0.30859375;0.2041015625;61.5;-25.9375;-73.125;
1441975531593429;0.2388916015625;-0.68145751953125;-0.5740966796875;-0.38604736328125;14.316688188997992;13.704852012982386;17.434062248261025;-0.4150390625;0.27001953125;0.228515625;53.0625;-31.6875;-89.4375;
1441975531616430;0.24774169921875;-0.678955078125;-0.56317138671875;-0.40069580078125;14.539523791103907;13.725382471381948;17.416360677131028;-0.39306640625;0.21142578125;0.23583984375;42.125;-24.0625;-99.6875;
1441975531637432;0.25750732421875;-0.67681884765625;-0.5509033203125;-0.41497802734375;14.771190728813545;13.761476146039444;17.41325081838006;-0.44970703125;0.18017578125;0.23779296875;37.25;-15.1875;-108.3125;
1441975531653433;0.26861572265625;-0.67376708984375;-0.538330078125;-0.42913818359375;15.016029548048472;13.800827553386794;17.419951841270723;-0.5302734375;0.16552734375;0.18115234375;40.4375;-8.5;-113.0625;
1441975531676434;0.28173828125;-0.6690673828125;-0.5247802734375;-0.444580078125;15.294169484007597;13.840737442805093;17.431993875645208;-0.5771484375;0.1484375;0.17236328125;35.5;-5.375;-119.5;
1441975531697435;0.29681396484375;-0.662353515625;-0.51007080078125;-0.46160888671875;15.609643578068708;13.879729810243898;17.4471600529558;-0.61474609375;0.169921875;0.15234375;30.5;-7.0625;-136.4375;
1441975531713436;0.31243896484375;-0.654052734375;-0.49310302734375;-0.48114013671875;15.963007464606074;13.919214347209733;17.45519617265812;-0.76708984375;0.1455078125;0.10009765625;26.375;-10.9375;-154.5625;
1441975531736437;0.32757568359375;-0.64483642578125;-0.4755859375;-0.50079345703125;16.320578567107603;13.959438109740482;17.462735419647625;-0.9541015625;0.0263671875;0.0859375;32.625;-19.5;-170.3125;
1441975531757439;0.3433837890625;-0.633544921875;-0.45849609375;-0.5201416015625;16.68783733175203;13.988497234947673;17.468654156125;-1.0390625;0.087890625;0.0302734375;33.0625;-23.9375;-173.375;
1441975531773439;0.36175537109375;-0.6187744140625;-0.44342041015625;-0.53826904296875;17.069835399390197;13.987829576039811;17.471199356758685;-1.0224609375;0.12841796875;-0.02490234375;23.4375;-28.1875;-179.625;
1441975531796441;0.38134765625;-0.6021728515625;-0.42950439453125;-0.5545654296875;17.45110797444228;13.98208024942363;17.48505446312749;-1.02490234375;-0.0068359375;-0.00439453125;-3.3125;-31.5625;-185.625;
1441975531817442;0.39947509765625;-0.58612060546875;-0.4151611328125;-0.56976318359375;17.816366144785707;14.051257081550673;17.568773655848624;-1.10107421875;-0.12939453125;-0.02294921875;-19.6875;-30.5;-184.0625;
1441975531833443;0.41583251953125;-0.57147216796875;-0.39935302734375;-0.583984375;17.832337245762474;4.600229526673537;8.1205626655046;-1.17626953125;-0.123046875;-0.05078125;-14.4375;-28.375;-178.125;
1441975531856444;0.4315185546875;-0.556640625;-0.38226318359375;-0.5982666015625;17.47730284042525;4.751583771142641;8.268549289284412;-1.25830078125;-0.05712890625;-0.1044921875;-2.625;-22.125;-173.75;
1441975531884446;0.44573974609375;-0.54034423828125;-0.3642578125;-0.61376953125;17.110377382442312;4.848011726122012;8.354264292795895;-1.33544921875;-0.11572265625;-0.16796875;3.4375;-23.0625;-176.625;
1441975531893446;0.45672607421875;-0.52508544921875;-0.34454345703125;-0.630126953125;16.752313378997297;4.918573044048871;8.393138311769693;-1.33984375;-0.251953125;-0.119140625;12.0;-32.1875;-180.8125;
1441975531916448;0.46600341796875;-0.51080322265625;-0.3233642578125;-0.64605712890625;16.402080906941155;4.958526982977395;8.389240250617464;-1.23583984375;-0.228515625;-0.083984375;32.3125;-33.125;-177.1875;
1441975531937449;0.47515869140625;-0.49615478515625;-0.302001953125;-0.6610107421875;16.05348162653737;4.985382202219502;8.373941377665194;-1.2060546875;-0.18115234375;-0.08642578125;44.5;-28.125;-176.0;
1441975531953450;0.48284912109375;-0.48114013671875;-0.28033447265625;-0.6759033203125;15.708165801598499;5.023672635744158;8.364549198308554;-1.236328125;-0.228515625;-0.07080078125;41.875;-26.375;-176.125;
1441975531976451;0.48797607421875;-0.466552734375;-0.2581787109375;-0.69110107421875;15.37377737394861;5.076733748714138;8.35707579140211;-1.14013671875;-0.24658203125;-0.009765625;47.5625;-28.5;-174.375;
1441975531998452;0.491943359375;-0.45166015625;-0.236083984375;-0.70587158203125;15.044840870505363;5.132356373216274;8.349132430609382;-1.00048828125;-0.12890625;-0.044921875;60.0;-31.0625;-170.3125;
1441975532013453;0.49560546875;-0.4359130859375;-0.215087890625;-0.7198486328125;14.721462049010837;5.187951371020839;8.34674288110942;-0.96630859375;-0.08447265625;-0.1025390625;63.625;-34.3125;-168.5625;
1441975532036454;0.49957275390625;-0.41973876953125;-0.19500732421875;-0.7322998046875;14.405237498472488;5.232796690125654;8.341432636152872;-0.9794921875;-0.0625;-0.1279296875;58.875;-39.4375;-166.0;
1441975532057456;0.50390625;-0.40313720703125;-0.176025390625;-0.743408203125;14.096196797135855;5.269665360844662;8.336571145084243;-0.92724609375;0.01123046875;-0.13427734375;50.625;-40.375;-163.4375;
1441975532073457;0.506103515625;-0.38726806640625;-0.1571044921875;-0.7545166015625;13.80177800630474;5.315464560528844;8.330489698477521;-0.875;-0.04248046875;-0.11865234375;41.9375;-41.25;-158.625;
1441975532095458;0.50531005859375;-0.37255859375;-0.1383056640625;-0.76605224609375;13.52756308530267;5.375848807274383;8.32364011254284;-0.83642578125;-0.06103515625;-0.0927734375;51.5;-40.3125;-151.0;
1441975532117459;0.5037841796875;-0.35870361328125;-0.1207275390625;-0.77655029296875;13.274174859665743;5.433587778122642;8.315140131826766;-0.7783203125;0.01123046875;-0.05224609375;66.0;-38.9375;-141.875;
1441975532139460;0.50439453125;-0.34515380859375;-0.10589599609375;-0.78436279296875;13.041270409821607;5.469969410381412;8.308254576555703;-0.7041015625;0.10986328125;-0.0673828125;63.8125;-37.0;-132.125;
1441975532155461;0.50274658203125;-0.3365478515625;-0.09625244140625;-0.7904052734375;12.89605181104524;5.507972017055055;8.307129366682181;-0.642578125;0.05078125;-0.07958984375;41.8125;-36.6875;-120.625;
1441975532178463;0.4969482421875;-0.33258056640625;-0.0892333984375;-0.79656982421875;12.820689596889979;5.562914690822857;8.306455881845446;-0.63330078125;-0.0361328125;0.0419921875;37.25;-33.75;-99.1875;
1441975532193463;0.4925537109375;-0.33160400390625;-0.08599853515625;-0.800048828125;12.797294862118134;5.598383662772008;8.306201469828494;-0.61181640625;0.0947265625;0.001953125;53.375;-24.4375;-70.75;
1441975532215465;0.48907470703125;-0.3323974609375;-0.087158203125;-0.80169677734375;12.818625888413184;5.624376910472806;8.317887778510462;-0.53125;0.1611328125;-0.1015625;37.25;-19.0;-44.6875;
1441975532238466;0.48211669921875;-0.33721923828125;-0.091552734375;-0.80340576171875;12.905960018666711;5.667222272973729;8.337201520297626;-0.54052734375;0.1171875;-0.0498046875;19.0625;-17.6875;-18.75;
1441975532259467;0.47711181640625;-0.3446044921875;-0.09942626953125;-0.8023681640625;13.03781971397523;5.689410843100621;8.358098757569103;-0.57080078125;0.23291015625;-0.08740234375;30.25;-12.75;7.8125;
1441975532275468;0.47418212890625;-0.35418701171875;-0.1114501953125;-0.79833984375;13.215782513484177;5.691281868014912;8.384926315454196;-0.52587890625;0.30712890625;-0.1455078125;9.375;-5.875;27.5625;
1441975532298469;0.4688720703125;-0.36676025390625;-0.1263427734375;-0.79351806640625;13.447096363877549;5.704542912246759;8.420294254257064;-0.552734375;0.23828125;-0.08203125;-16.9375;2.1875;52.625;
1441975532320471;0.46392822265625;-0.37921142578125;-0.14154052734375;-0.78802490234375;13.679849415159197;5.716212203420092;8.45787916514795;-0.54541015625;0.26220703125;-0.06005859375;-13.5;9.3125;78.875;
1441975532335472;0.4595947265625;-0.3944091796875;-0.16107177734375;-0.779296875;13.970754487659333;5.716608594771442;8.503638175997581;-0.681640625;0.4169921875;-0.140625;-15.8125;18.4375;104.5;
1441975532358473;0.4573974609375;-0.41064453125;-0.183837890625;-0.76708984375;14.2951418055833;5.6964121581436995;8.553087452376365;-0.85546875;0.5234375;-0.31201171875;-32.8125;24.375;129.4375;
1441975532381474;0.45233154296875;-0.4295654296875;-0.208251953125;-0.75335693359375;14.667750565660615;5.690496571112165;8.60854205656734;-0.951171875;0.50244140625;-0.298828125;-58.125;29.6875;144.8125;
1441975532395475;0.43963623046875;-0.4547119140625;-0.23406982421875;-0.7384033203125;15.131482180077644;5.731034838563658;8.676208633116516;-1.080078125;0.3173828125;-0.20263671875;-50.4375;38.75;169.625;
1441975532418476;0.428955078125;-0.48187255859375;-0.26629638671875;-0.71624755859375;15.672529564892827;5.755649338544481;8.768245579475852;-1.2998046875;0.50537109375;-0.1455078125;-18.1875;56.5625;208.3125;
1441975532439478;0.4200439453125;-0.50531005859375;-0.3060302734375;-0.68890380859375;16.24197930198114;5.842997571398301;8.972930338454692;-1.6494140625;0.64111328125;-0.31201171875;-58.0625;67.3125;242.3125;
1441975532455478;0.396728515625;-0.53814697265625;-0.34100341796875;-0.660888671875;16.90611138128177;6.1989513349055985;9.359229629036616;-2.20361328125;0.0966796875;-0.037109375;-104.4375;54.4375;275.5625;
1441975532478480;0.36614990234375;-0.5740966796875;-0.37335205078125;-0.63006591796875;17.54263536834392;7.788878968942148;10.944376345599071;-2.3447265625;0.0859375;0.0458984375;-19.5625;82.1875;325.9375;
1441975532499481;0.33843994140625;-0.6038818359375;-0.41552734375;-0.590087890625;17.365152521201367;12.393675745022803;15.620832427537776;-2.53125;0.4189453125;-0.04443359375;16.3125;98.0;359.75;
1441975532515482;0.3023681640625;-0.632080078125;-0.4576416015625;-0.54742431640625;16.563282271441746;13.290191927638464;16.56974934427502;-2.79541015625;-0.009765625;0.13330078125;-59.0;91.4375;392.375;
1441975532539483;0.25933837890625;-0.65972900390625;-0.49725341796875;-0.50030517578125;15.66333745321081;13.535626856634204;16.84692657352609;-2.875;-0.126953125;0.31298828125;-39.4375;75.75;424.4375;
1441975532559484;0.2210693359375;-0.6773681640625;-0.5447998046875;-0.44219970703125;14.712975722959744;13.581040324709132;17.018548470698835;-2.9306640625;0.44873046875;0.08935546875;-17.6875;76.1875;453.0;
1441975532575485;0.18841552734375;-0.68218994140625;-0.5897216796875;-0.38909912109375;13.885651950910109;13.50746147089273;17.106761808699048;-3.28369140625;0.0634765625;-0.0908203125;-106.5;90.625;474.5;
1441975532598487;0.1451416015625;-0.7047119140625;-0.59857177734375;-0.35223388671875;13.208050482064955;13.63640660710356;17.149596426099077;-2.65185546875;0.09130859375;0.3232421875;-144.4375;59.875;413.625;
1441975532619488;0.09124755859375;-0.74151611328125;-0.58111572265625;-0.32281494140625;12.57853716823735;13.911983351469999;17.14014111935488;-2.61328125;-0.79248046875;0.1240234375;98.1875;38.3125;338.25;
