1441975889056875;-0.16363525390625;0.76934814453125;0.61285400390625;0.07525634765625;10.844468219299646;14.224747549839456;0.48414325979231027;-0.626953125;0.16064453125;-0.17919921875;-91.3125;55.8125;63.1875;
1441975889077876;-0.166259765625;0.76171875;0.62213134765625;0.0706787109375;10.83352598622824;14.157143280379282;0.5016165984641952;-0.4091796875;0.15673828125;-0.14501953125;-96.0;38.375;37.1875;
1441975889093877;-0.16900634765625;0.7567138671875;0.6275634765625;0.07000732421875;10.854819153597104;14.116528722869692;0.5101185079362325;-0.31494140625;0.10009765625;-0.0859375;-77.1875;20.3125;19.25;
1441975889116878;-0.17254638671875;0.75390625;0.62982177734375;0.07183837890625;10.900624736627078;14.099185328230048;0.5169256251994883;-0.33056640625;0.18408203125;-0.06103515625;-44.5;9.0;5.0;
1441975889137880;-0.17626953125;0.7501220703125;0.63287353515625;0.074951171875;10.960848263500171;14.074441303793172;0.5185917246225346;-0.35546875;0.359375;-0.12158203125;-22.375;3.625;-9.25;
1441975889153880;-0.179931640625;0.7451171875;0.63739013671875;0.07830810546875;11.024773416154247;14.038070492394734;0.5167567823929478;-0.400390625;0.5439453125;-0.15576171875;-28.0625;-3.1875;-16.5;
1441975889176882;-0.1837158203125;0.7403564453125;0.641357421875;0.08184814453125;11.090858715731521;14.00510965422298;0.5150874189230847;-0.42041015625;0.599609375;-0.14208984375;-37.75;-5.8125;-18.75;
1441975889197883;-0.1873779296875;0.736572265625;0.6441650390625;0.08551025390625;11.15557721603496;13.980929736214282;0.5137084943277758;-0.44287109375;0.6044921875;-0.1181640625;-32.9375;-5.4375;-18.5625;
1441975889213884;-0.19097900390625;0.7337646484375;0.64593505859375;0.08868408203125;11.214017896645435;13.965318416153304;0.5152641835704135;-0.43896484375;0.61962890625;-0.091796875;-23.125;-4.5625;-19.5;
1441975889236885;-0.19476318359375;0.730224609375;0.64825439453125;0.09185791015625;11.27512351589052;13.944497415709224;0.516530761041301;-0.4423828125;0.708984375;-0.10498046875;-15.375;-1.4375;-19.625;
1441975889257886;-0.19891357421875;0.7266845703125;0.650634765625;0.0947265625;11.336194824094866;13.923912462748818;0.5203834357376973;-0.4638671875;0.78369140625;-0.080078125;-18.625;-1.0625;-22.0;
1441975889273887;-0.20269775390625;0.72369384765625;0.65234375;0.09765625;11.394383336349927;13.908059196952106;0.5231943207633267;-0.48779296875;0.7783203125;-0.06396484375;-18.75;1.75;-21.25;
1441975889296889;-0.20648193359375;0.7210693359375;0.653564453125;0.10076904296875;11.453648792325756;13.895818516020027;0.5259571057557073;-0.50390625;0.8330078125;-0.0654296875;-13.75;0.9375;-20.6875;
1441975889317890;-0.21038818359375;0.71875;0.654296875;0.10455322265625;11.519182970893736;13.886912549739309;0.5273477498683582;-0.517578125;0.8505859375;-0.06201171875;-9.625;0.9375;-21.9375;
1441975889333891;-0.21380615234375;0.71728515625;0.654052734375;0.10894775390625;11.585102999000238;13.88498194472172;0.5257365942583491;-0.5400390625;0.84326171875;-0.03662109375;-4.625;0.1875;-23.875;
1441975889356892;-0.2174072265625;0.7159423828125;0.653564453125;0.11383056640625;11.656398071399689;13.884677732389987;0.523443528489882;-0.52880859375;0.857421875;-0.03955078125;3.625;-2.5625;-25.6875;
1441975889377893;-0.22125244140625;0.7144775390625;0.65283203125;0.1195068359375;11.736750266616232;13.884937890259511;0.5194256999989308;-0.564453125;0.83984375;-0.04052734375;5.125;-3.1875;-26.375;
1441975889393894;-0.225830078125;0.712890625;0.65185546875;0.12579345703125;11.828085166999239;13.886593498846066;0.516765624952112;-0.595703125;0.8046875;-0.02587890625;7.1875;-5.125;-28.3125;
1441975889416895;-0.2313232421875;0.710693359375;0.65093994140625;0.13275146484375;11.933236756734582;13.886487103716568;0.5153474402640368;-0.66015625;0.7578125;-0.01611328125;8.5;-3.4375;-29.8125;
1441975889437897;-0.23828125;0.707275390625;0.6505126953125;0.140380859375;12.057340094026078;13.880958614349579;0.5166708575077613;-0.732421875;0.76318359375;-0.021484375;5.4375;-2.9375;-33.8125;
1441975889453898;-0.2464599609375;0.703369140625;0.64996337890625;0.14837646484375;12.194731413277214;13.87586311756067;0.5222613543408208;-0.7734375;0.64013671875;-0.009765625;-1.5;-1.25;-38.0625;
1441975889476899;-0.2564697265625;0.6986083984375;0.64923095703125;0.1568603515625;12.351939295952064;13.87122842645252;0.5346026980500592;-0.77783203125;0.63818359375;-0.02294921875;-4.5625;0.5;-46.4375;
1441975889497900;-0.26861572265625;0.69366455078125;0.6473388671875;0.1658935546875;12.530869572795263;13.875892860336798;0.557823099379667;-0.7841796875;0.5341796875;-0.02880859375;-8.75;5.0625;-54.75;
1441975889519901;-0.2825927734375;0.68731689453125;0.645751953125;0.17529296875;12.729662558158973;13.87756678507942;0.5877697865619501;-0.83642578125;0.486328125;-0.04541015625;-7.5;11.8125;-63.0;
1441975889536902;-0.2984619140625;0.67779541015625;0.64593505859375;0.18499755859375;12.952328245111099;13.861339181910557;0.6198837310118078;-0.90380859375;0.5458984375;-0.01611328125;-12.75;16.9375;-75.1875;
1441975889557904;-0.31475830078125;0.66522216796875;0.64898681640625;0.1927490234375;13.168514687211411;13.820065407199312;0.6523675771353443;-0.95166015625;0.65380859375;-0.03076171875;-33.25;15.75;-91.5;
1441975889573904;-0.333251953125;0.6512451171875;0.651611328125;0.2003173828125;13.40496497631494;13.781294188137636;0.6964593785253563;-0.978515625;0.556640625;-0.0234375;-61.875;12.6875;-104.375;
1441975889596906;-0.3538818359375;0.63751220703125;0.65155029296875;0.20904541015625;13.670017324312301;13.765399732602814;0.7557160094128151;-1.04248046875;0.40625;-0.09619140625;-69.4375;20.1875;-112.8125;
1441975889617907;-0.37677001953125;0.623291015625;0.6490478515625;0.219482421875;13.970950726089738;13.770722870167177;0.8301988330382398;-1.15283203125;0.37255859375;-0.203125;-60.0625;27.5625;-127.125;
1441975889633908;-0.4010009765625;0.607421875;0.64532470703125;0.2318115234375;14.305486908205262;13.784472072250225;0.911243516809901;-1.2109375;0.50341796875;-0.26171875;-52.5;33.375;-147.6875;
1441975889656909;-0.42462158203125;0.5909423828125;0.64013671875;0.2462158203125;14.658487808047294;13.80816279246593;0.9905694571777822;-1.20263671875;0.5087890625;-0.23779296875;-51.875;32.0625;-165.9375;
1441975889693911;-0.4461669921875;0.574951171875;0.6331787109375;0.26336669921875;15.021897558506808;13.843207493329489;1.0595916701363028;-1.20654296875;0.462890625;-0.208984375;-42.5;25.6875;-175.5;
1441975889696911;-0.46502685546875;0.56072998046875;0.62347412109375;0.28387451171875;15.39280368719188;13.901306670040599;1.120397810882639;-1.19287109375;0.43994140625;-0.15966796875;-25.0;14.125;-181.0;
1441975889722913;-0.48175048828125;0.54876708984375;0.610107421875;0.30743408203125;15.771077409302386;14.004771510707487;1.1945271078777706;-1.17822265625;0.328125;-0.130859375;3.75;3.3125;-183.9375;
1441975889737914;-0.49786376953125;0.5360107421875;0.59515380859375;0.33251953125;16.16449931467894;14.145929044186666;1.2988041972180682;-1.18701171875;0.34228515625;-0.18701171875;34.875;-1.25;-189.5625;
1441975889753915;-0.51416015625;0.51983642578125;0.58197021484375;0.35589599609375;16.55862614373575;14.307558429150738;1.445314614519376;-1.14111328125;0.50634765625;-0.2509765625;42.5;-6.4375;-202.5625;
1441975889775916;-0.53118896484375;0.50042724609375;0.5704345703125;0.37664794921875;16.946265282315284;14.5466906238926;1.6941295334373963;-1.16748046875;0.5087890625;-0.25;20.3125;-12.375;-204.8125;
1441975889797917;-0.5474853515625;0.4814453125;0.5577392578125;0.39666748046875;17.307612600381567;15.07855369582742;2.231801906873525;-1.19384765625;0.373046875;-0.16162109375;-3.9375;-12.0625;-203.625;
1441975889812918;-0.55987548828125;0.4664306640625;0.54168701171875;0.4189453125;17.58787621444902;16.487446793065732;3.608404172530135;-1.19580078125;0.21240234375;-0.07421875;0.125;-6.625;-198.9375;
1441975889826919;-0.56695556640625;0.45654296875;0.52252197265625;0.4439697265625;17.625759774989625;1.1887913343154868;6.2312322416374375;-1.19091796875;0.1201171875;-0.041015625;37.9375;-4.9375;-190.5;
1441975889849920;-0.570556640625;0.44854736328125;0.5028076171875;0.469482421875;17.42517548207876;2.8855707830916932;7.831591237254489;-1.21044921875;0.15576171875;-0.06640625;84.375;-7.1875;-177.75;
1441975889872922;-0.57366943359375;0.43994140625;0.48455810546875;0.49237060546875;17.1614379825785;3.592557709178299;8.454511261480874;-1.18408203125;0.31884765625;-0.09326171875;101.75;-12.375;-169.125;
1441975889886922;-0.57855224609375;0.429443359375;0.46893310546875;0.51080322265625;16.892110630675486;3.924742697948955;8.733555867192083;-1.08544921875;0.4130859375;-0.09814453125;89.125;-14.3125;-160.875;
1441975889909924;-0.5853271484375;0.41741943359375;0.45599365234375;0.52459716796875;16.635722833748858;4.089096737891901;8.875732993922258;-0.9833984375;0.4541015625;-0.087890625;57.5625;-11.875;-153.125;
1441975889932925;-0.59246826171875;0.4056396484375;0.4449462890625;0.53515625;16.404128939844327;4.174262972455237;8.953881624860209;-0.93115234375;0.40478515625;-0.02783203125;25.875;-8.0;-142.1875;
1441975889946926;-0.59820556640625;0.395751953125;0.435546875;0.54388427734375;16.210067602246482;4.229671151121629;9.00272322480088;-0.90966796875;0.30859375;0.00439453125;9.6875;-4.5;-126.9375;
1441975889969927;-0.60064697265625;0.39068603515625;0.4307861328125;0.54864501953125;16.111962938912676;4.262250156136022;9.029822607545803;-0.88134765625;0.28466796875;0.0205078125;8.75;-3.1875;-107.375;
1441975889992928;-0.6026611328125;0.38714599609375;0.42816162109375;0.55096435546875;16.051202867163624;4.274788204230411;9.044381342702726;-0.80517578125;0.29248046875;0.01953125;7.0625;-1.375;-87.0625;
1441975890006929;-0.60455322265625;0.38494873046875;0.4276123046875;0.55084228515625;16.024868792859145;4.267536017107225;9.047900178840155;-0.74267578125;0.291015625;0.0126953125;-1.125;-0.1875;-67.25;
1441975890030931;-0.60638427734375;0.384033203125;0.42901611328125;0.54840087890625;16.03088724475137;4.241306184557582;9.040831361408094;-0.68505859375;0.294921875;0.0107421875;-10.0625;1.75;-48.5;
1441975890051932;-0.60791015625;0.38433837890625;0.43218994140625;0.5439453125;16.067287820834853;4.199882692487654;9.02500883148331;-0.66259765625;0.2978515625;0.0068359375;-19.4375;3.875;-31.75;
1441975890074933;-0.6085205078125;0.38604736328125;0.43682861328125;0.538330078125;16.132125392378462;4.152854969089944;9.004298262002681;-0.6513671875;0.27685546875;-0.00634765625;-25.625;4.625;-14.6875;
1441975890089934;-0.60736083984375;0.38958740234375;0.44293212890625;0.53204345703125;16.230083361582743;4.108578967636489;8.98188758063869;-0.63623046875;0.25146484375;-0.017578125;-26.5625;3.125;2.1875;
1441975890112935;-0.6041259765625;0.39501953125;0.45013427734375;0.525634765625;16.358155100101925;4.071712355748731;8.958737255007323;-0.6474609375;0.2607421875;-0.03857421875;-21.375;0.0;18.5;
1441975890135937;-0.5986328125;0.4019775390625;0.4586181640625;0.519287109375;16.51571903952108;4.051285409009925;8.944469484072986;-0.6806640625;0.265625;-0.06884765625;-12.4375;-5.125;33.25;
1441975890149937;-0.59088134765625;0.41021728515625;0.468017578125;0.51324462890625;16.697879946497785;4.053653027409007;8.944496550702075;-0.7119140625;0.26513671875;-0.0859375;-4.5625;-12.0625;48.125;
1441975890172939;-0.580322265625;0.4205322265625;0.47760009765625;0.5081787109375;16.904166543498125;4.087539024126599;8.959668925497562;-0.74169921875;0.220703125;-0.109375;4.8125;-20.0;63.375;
1441975890194940;-0.56671142578125;0.43316650390625;0.4869384765625;0.5040283203125;17.13457285553047;4.16333837442461;8.998110326978313;-0.78564453125;0.169921875;-0.126953125;21.1875;-25.875;79.3125;
1441975890209941;-0.55059814453125;0.44647216796875;0.4952392578125;0.502197265625;17.36319165818629;4.369988391793139;9.148900258298985;-0.84765625;0.1396484375;-0.14013671875;39.8125;-29.8125;94.4375;
1441975890231942;-0.53179931640625;0.462646484375;0.502685546875;0.5003662109375;17.613820466843205;4.764410942290132;9.469332711036824;-0.88818359375;0.10595703125;-0.130859375;57.375;-30.9375;109.125;
1441975890254943;-0.51055908203125;0.48138427734375;0.50909423828125;0.49835205078125;17.86199338143067;6.446105046180483;11.0604785197635;-0.92529296875;0.08154296875;-0.12158203125;75.375;-28.125;123.125;
1441975890269944;-0.48779296875;0.50225830078125;0.51422119140625;0.4952392578125;17.77840634603517;11.987216411203754;16.500158659289138;-0.9501953125;0.08154296875;-0.0888671875;91.75;-23.1875;135.9375;
1441975890291946;-0.46453857421875;0.52435302734375;0.518310546875;0.490478515625;17.48486011804622;12.906337264769402;17.314615835604723;-0.96826171875;0.115234375;-0.06884765625;102.5;-14.9375;145.9375;
1441975890314947;-0.44195556640625;0.54656982421875;0.52191162109375;0.483154296875;17.17232902491394;13.265551012182893;17.576347103583753;-0.9990234375;0.15283203125;-0.04541015625;105.9375;-4.625;153.3125;
1441975890338948;-0.4207763671875;0.5682373046875;0.52545166015625;0.47314453125;16.852127869784937;13.499729208678989;17.725643613177763;-1.0283203125;0.1982421875;-0.02783203125;99.5;7.0;158.125;
1441975890352949;-0.40167236328125;0.58856201171875;0.5294189453125;0.4603271484375;16.529246757124596;13.675702920186886;17.835226161362545;-1.07177734375;0.2412109375;-0.005859375;86.75;18.8125;160.4375;
1441975890374950;-0.38470458984375;0.607177734375;0.53411865234375;0.4449462890625;16.205498249893648;13.81121614607672;17.924297688440177;-1.109375;0.26953125;-0.00439453125;69.25;30.125;161.0625;
1441975890389951;-0.3702392578125;0.62353515625;0.53973388671875;0.42742919921875;15.887654213243545;13.913779310161635;0.0025309144839609317;-1.1318359375;0.30419921875;0.0048828125;50.25;39.5;160.0625;
1441975890411952;-0.3583984375;0.6373291015625;0.54656982421875;0.40814208984375;15.57917392907622;13.986647800366667;0.07462049299068324;-1.13134765625;0.34814453125;-0.0048828125;28.9375;46.9375;155.875;
1441975890434954;-0.348876953125;0.64849853515625;0.5543212890625;0.38775634765625;15.284740951937827;14.03446555833288;0.1420014702185769;-1.11767578125;0.35888671875;-0.0185546875;6.75;52.4375;149.9375;
1441975890449955;-0.34161376953125;0.65716552734375;0.56298828125;0.36663818359375;15.006360917950579;14.061533491660429;0.20781782562684806;-1.09130859375;0.3349609375;-0.0341796875;-12.9375;55.875;142.9375;
1441975890471956;-0.33612060546875;0.6636962890625;0.57196044921875;0.34552001953125;14.74734393762527;14.073638190839485;0.2716893188267045;-1.06103515625;0.3251953125;-0.03466796875;-30.375;58.5625;134.8125;
1441975890494957;-0.33197021484375;0.66864013671875;0.5806884765625;0.32476806640625;14.50731360906618;14.077406050862537;0.33482058102343426;-1.0439453125;0.30078125;-0.048828125;-42.375;59.4375;125.6875;
1441975890509958;-0.3289794921875;0.67205810546875;0.58917236328125;0.3048095703125;14.288371921647801;14.072870559318599;0.3954004754528319;-1.02197265625;0.28515625;-0.06494140625;-48.9375;59.4375;116.375;
1441975890531959;-0.32861328125;0.6732177734375;0.59625244140625;0.28839111328125;14.12839020569239;14.064899279568378;0.4533174928880897;-0.99072265625;0.28955078125;-0.07373046875;-53.6875;57.5625;106.25;
1441975890554961;-0.32916259765625;0.67352294921875;0.60272216796875;0.27337646484375;13.991104676449867;14.05497360286238;0.5091856043297565;-0.94580078125;0.31689453125;-0.0869140625;-54.4375;54.4375;94.9375;
1441975890569961;-0.33074951171875;0.6729736328125;0.6083984375;0.25982666015625;13.878197012911583;14.045163043773572;0.5645916001175191;-0.90380859375;0.3203125;-0.08740234375;-53.9375;51.5;83.1875;
1441975890591963;-0.3333740234375;0.67156982421875;0.61334228515625;0.24822998046875;13.793528410037569;14.034793205389548;0.6174121108180977;-0.859375;0.33349609375;-0.10400390625;-53.5625;48.375;70.0;
1441975890614964;-0.33709716796875;0.66943359375;0.6173095703125;0.239013671875;13.740980993190973;14.026086990224966;0.667415818004981;-0.83544921875;0.3427734375;-0.10009765625;-51.3125;44.625;55.4375;
1441975890629965;-0.341552734375;0.66680908203125;0.6202392578125;0.2322998046875;13.718254726853452;14.019768591655726;0.7126923535450628;-0.8203125;0.33544921875;-0.1083984375;-47.9375;39.625;40.8125;
1441975890651966;-0.3465576171875;0.66400146484375;0.62200927734375;0.22821044921875;13.724017584627035;14.017719084939607;0.7526940950432092;-0.8037109375;0.33642578125;-0.107421875;-41.375;33.75;25.9375;
1441975890675967;-0.35223388671875;0.66082763671875;0.6226806640625;0.22674560546875;13.759588519931711;14.019543848154372;0.7880355310178987;-0.78076171875;0.3466796875;-0.10693359375;-33.4375;27.375;10.9375;
1441975890689968;-0.3587646484375;0.6572265625;0.622314453125;0.22796630859375;13.826678852348248;14.025522040217124;0.819640469388821;-0.76513671875;0.35986328125;-0.10546875;-26.125;21.4375;-4.9375;
1441975890711970;-0.3660888671875;0.65313720703125;0.6209716796875;0.23187255859375;13.92500886548226;14.03520326916295;0.8472266812631885;-0.76904296875;0.3701171875;-0.107421875;-19.0625;15.75;-20.9375;
1441975890751972;-0.37384033203125;0.6485595703125;0.61865234375;0.23834228515625;14.051323421369808;14.04780691751349;0.8693761580500419;-0.77392578125;0.3681640625;-0.10302734375;-12.75;10.0625;-36.4375;
1441975890753972;-0.3819580078125;0.6434326171875;0.6156005859375;0.24713134765625;14.203091069603216;14.061743092420011;0.8860753977076802;-0.78173828125;0.37548828125;-0.10107421875;-5.5;3.1875;-50.8125;
1441975890771973;-0.39056396484375;0.63720703125;0.6121826171875;0.258056640625;14.38152407045868;14.072598358901644;0.896713930292973;-0.8037109375;0.40771484375;-0.10546875;-0.0625;-3.625;-65.0625;
1441975890794974;-0.39971923828125;0.62969970703125;0.60845947265625;0.2708740234375;14.585841194718713;14.079273888414296;0.901934503435259;-0.83544921875;0.4306640625;-0.103515625;1.75;-10.25;-79.25;
1441975890809975;-0.4088134765625;0.6214599609375;0.604736328125;0.28448486328125;14.800115399690934;14.080849569092065;0.9017082418292391;-0.86572265625;0.42333984375;-0.0927734375;1.875;-15.875;-91.9375;
1441975890831976;-0.41796875;0.6123046875;0.60064697265625;0.29925537109375;15.02988567679021;14.077996106930545;0.8954573231940545;-0.888671875;0.4072265625;-0.06982421875;1.75;-21.125;-102.8125;
1441975890854978;-0.42694091796875;0.60247802734375;0.5963134765625;0.31488037109375;15.26978812764378;14.069090001653281;0.8814337162028179;-0.9189453125;0.38671875;-0.046875;2.8125;-25.4375;-110.3125;
1441975890870979;-0.435791015625;0.5916748046875;0.59210205078125;0.3306884765625;15.5154863116734;14.049214541615848;0.8589441018897765;-0.94140625;0.38720703125;-0.0263671875;3.875;-29.3125;-114.75;
1441975890891980;-0.44451904296875;0.580078125;0.58819580078125;0.34625244140625;15.76199988984379;14.016127652155616;0.826962154490681;-0.97265625;0.375;-0.02294921875;0.8125;-32.4375;-117.5;
1441975890915981;-0.4534912109375;0.567138671875;0.5853271484375;0.36065673828125;16.00487686246357;13.960558879430696;0.7836727348465087;-0.99609375;0.36376953125;-0.0048828125;-3.5;-34.5;-118.0625;
1441975890929982;-0.4622802734375;0.5538330078125;0.58282470703125;0.3739013671875;16.23809222023435;13.888768131577805;0.7292379752877912;-1.015625;0.3154296875;0.01220703125;-14.875;-34.6875;-116.375;
1441975890953983;-0.47064208984375;0.540771484375;0.5806884765625;0.3857421875;16.45478548592026;13.801012006268063;0.66211274473191;-1.0283203125;0.26953125;0.0322265625;-20.0625;-33.4375;-111.8125;
1441975890974985;-0.47747802734375;0.5286865234375;0.57818603515625;0.3975830078125;16.65728870633004;13.686736554956324;0.5602734865425664;-1.02880859375;0.2275390625;0.0478515625;-22.875;-30.75;-104.5;
1441975890989985;-0.48284912109375;0.51922607421875;0.57513427734375;0.40802001953125;16.827003953809275;13.577219738036094;0.45399709042303665;-1.033203125;0.18359375;0.080078125;-14.0;-27.375;-94.5;
1441975891011987;-0.4893798828125;0.509033203125;0.57269287109375;0.4163818359375;16.98904788423054;13.455220522705398;0.34856159312494406;-1.03466796875;0.2177734375;0.0595703125;-4.875;-22.625;-84.0;
1441975891034988;-0.494140625;0.5009765625;0.5709228515625;0.42279052734375;17.111106257945753;13.32276308966667;0.22913792980461328;-1.048828125;0.1044921875;0.0556640625;-17.8125;-16.75;-74.9375;
1441975891050989;-0.4990234375;0.493896484375;0.56884765625;0.42822265625;17.222662325122915;13.202826690091928;0.12172758009660332;-1.01513671875;0.203125;0.0556640625;-14.1875;-14.1875;-65.0625;
1441975891081991;-0.501953125;0.48931884765625;0.56689453125;0.43267822265625;17.301321252047238;13.093781755962715;0.015648330330073696;-1.02197265625;0.1533203125;0.03662109375;-13.375;-9.4375;-57.9375;
1441975891094991;-0.50390625;0.48626708984375;0.56524658203125;0.43597412109375;17.356911783100056;13.006454535767382;17.928379818539568;-1.00048828125;0.2060546875;0.02685546875;-4.125;-8.125;-46.5625;
1441975891109992;-0.50494384765625;0.4847412109375;0.563720703125;0.43841552734375;17.39329164673689;12.953282465304058;17.871101085209784;-0.97265625;0.24609375;0.009765625;-0.625;-6.25;-38.9375;
1441975891140994;-0.50506591796875;0.4844970703125;0.56256103515625;0.4400634765625;17.41094484995374;12.929506529297985;17.840263715434034;-0.96044921875;0.26611328125;-0.01220703125;3.125;-5.0625;-30.4375;
1441975891154995;-0.50457763671875;0.48504638671875;0.5616455078125;0.441162109375;17.41640515329175;12.926997712216947;17.82897295441787;-0.9443359375;0.296875;-0.0234375;6.25;-4.5625;-23.8125;
1441975891169996;-0.5035400390625;0.4862060546875;0.56121826171875;0.441650390625;17.409166640269753;12.937765134890416;17.83079602353935;-0.923828125;0.30712890625;-0.03759765625;7.9375;-4.625;-17.8125;
1441975891191997;-0.50201416015625;0.48779296875;0.56109619140625;0.4417724609375;17.39287592532658;12.95409148214135;17.837502363294064;-0.9111328125;0.3115234375;-0.04248046875;8.375;-4.8125;-11.875;
1441975891214998;-0.5;0.48968505859375;0.56134033203125;0.44158935546875;17.368049038255496;12.968232221480072;17.84169484186871;-0.90625;0.2978515625;-0.0419921875;8.8125;-5.1875;-6.125;
1441975891229999;-0.49749755859375;0.4920654296875;0.56182861328125;0.44122314453125;17.335209444437364;12.98504209525212;17.846969298425623;-0.908203125;0.26806640625;-0.0341796875;9.1875;-5.5;0.125;
1441975891252000;-0.49444580078125;0.4949951171875;0.5625;0.44049072265625;17.29304117196264;13.010132789643905;17.85897997923326;-0.90478515625;0.2509765625;-0.02978515625;11.125;-5.6875;6.125;
1441975891275002;-0.49090576171875;0.49853515625;0.56329345703125;0.439453125;17.242312933385623;13.044123501389786;17.877970555766222;-0.90478515625;0.2353515625;-0.02099609375;12.75;-5.125;12.375;
1441975891306004;-0.48699951171875;0.50274658203125;0.5640869140625;0.43798828125;17.183508840320496;13.093065424795881;17.910173276381087;-0.921875;0.216796875;-0.01708984375;14.5;-4.1875;18.5625;
1441975891314004;-0.48248291015625;0.50775146484375;0.56488037109375;0.4361572265625;17.114609836848857;13.150647070145551;17.948054297849943;-0.93701171875;0.19580078125;-0.01416015625;16.6875;-2.75;25.25;
1441975891335005;-0.47760009765625;0.51361083984375;0.56561279296875;0.43377685546875;17.03602126461644;13.222715742013303;17.99831819834007;-0.955078125;0.1904296875;-0.01171875;19.6875;-0.75;31.625;
1441975891350006;-0.4725341796875;0.51995849609375;0.56646728515625;0.43060302734375;16.94800277061349;13.30120503467908;0.05572835396673562;-0.95556640625;0.19677734375;-0.00146484375;22.125;2.3125;37.6875;
1441975891372007;-0.46771240234375;0.5264892578125;0.5675048828125;0.426513671875;16.853455855939558;13.384232173204772;0.12101950080692413;-0.9638671875;0.208984375;-0.00146484375;21.8125;5.625;42.625;
1441975891395009;-0.46319580078125;0.532958984375;0.56890869140625;0.42156982421875;16.753196958518483;13.463074828533255;0.18669446621241467;-0.9716796875;0.2080078125;9.765625E-4;18.625;9.125;47.0;
1441975891419010;-0.45904541015625;0.5394287109375;0.5704345703125;0.415771484375;16.648295917969225;13.542220685851118;0.256559134721005;-0.9697265625;0.2099609375;0.005859375;14.75;12.4375;50.75;
1441975891432011;-0.45538330078125;0.545654296875;0.572265625;0.4090576171875;16.539281727787856;13.61700495391286;0.3277182941131997;-0.958984375;0.208984375;-0.001953125;11.0;15.75;53.75;
1441975891455012;-0.45233154296875;0.551513671875;0.57440185546875;0.40155029296875;16.428227811031803;13.68616779521628;0.39927046781478553;-0.95654296875;0.22265625;-0.0029296875;5.9375;19.125;55.8125;
1441975891469013;-0.44989013671875;0.55682373046875;0.57684326171875;0.39337158203125;16.316917569986604;13.747320563153242;0.4690341834299988;-0.9501953125;0.2294921875;-0.0126953125;0.125;22.0625;56.875;
1441975891492014;-0.4481201171875;0.56146240234375;0.57965087890625;0.38458251953125;16.206579802680757;13.799696139765414;0.5367945406207073;-0.94384765625;0.2421875;-0.01904296875;-5.75;24.3125;57.0;
1441975891515015;-0.4468994140625;0.56536865234375;0.5826416015625;0.37554931640625;16.10029894470166;13.842788755894706;0.6003077886285327;-0.93310546875;0.24658203125;-0.02197265625;-12.125;25.8125;56.3125;
1441975891530016;-0.44610595703125;0.56878662109375;0.58563232421875;0.36663818359375;15.999510975432427;13.879144495986544;0.6594442161382049;-0.9208984375;0.24462890625;-0.02783203125;-17.3125;26.5625;55.125;
1441975891552018;-0.44561767578125;0.57183837890625;0.5882568359375;0.35821533203125;15.906962339712404;13.912116941663536;0.7147227966819353;-0.91552734375;0.2431640625;-0.0390625;-19.5;26.375;53.3125;
1441975891575019;-0.44537353515625;0.57464599609375;0.59039306640625;0.35040283203125;15.822978509005171;13.943860043897802;0.7670384544250981;-0.92333984375;0.248046875;-0.05224609375;-19.25;25.4375;49.9375;
1441975891590020;-0.44549560546875;0.576904296875;0.5921630859375;0.34344482421875;15.751466433047684;13.971643216961949;0.8145079566153476;-0.93017578125;0.26708984375;-0.07568359375;-17.9375;23.875;45.0625;
1441975891612021;-0.446044921875;0.57855224609375;0.5936279296875;0.3375244140625;15.694428836272797;13.995225105250128;0.8568325224251682;-0.9365234375;0.28076171875;-0.08642578125;-17.125;21.8125;38.875;
1441975891635022;-0.4468994140625;0.579345703125;0.59490966796875;0.3326416015625;15.652358422462646;14.011842297064021;0.8919905117242177;-0.9375;0.29345703125;-0.095703125;-16.6875;19.0;31.75;
1441975891650023;-0.4481201171875;0.579345703125;0.59619140625;0.3287353515625;15.624357525755004;14.02160917108716;0.9207502247662613;-0.93017578125;0.30224609375;-0.09228515625;-16.875;16.0625;24.5;
1441975891672024;-0.44976806640625;0.5784912109375;0.59735107421875;0.32574462890625;15.611050888283426;14.026537419462207;0.9453246771769668;-0.91650390625;0.30126953125;-0.0869140625;-17.4375;13.0;17.875;
1441975891695026;-0.4517822265625;0.5770263671875;0.59832763671875;0.32379150390625;15.611900437242308;14.028317761621723;0.9659127948462467;-0.91455078125;0.28369140625;-0.07958984375;-18.1875;10.5;11.875;
1441975891710027;-0.4541015625;0.5751953125;0.598876953125;0.3228759765625;15.625856661586065;14.030707211483703;0.9846654069096608;-0.91357421875;0.26513671875;-0.07177734375;-17.5625;8.25;6.625;
1441975891732028;-0.45654296875;0.57305908203125;0.59918212890625;0.32269287109375;15.648691887013324;14.03212564894071;1.0007623225819309;-0.91943359375;0.25244140625;-0.06982421875;-15.625;6.4375;1.25;
1441975891755029;-0.4593505859375;0.57049560546875;0.59918212890625;0.3232421875;15.682551851998308;14.034256118869662;1.0167570227140217;-0.9248046875;0.2578125;-0.064453125;-13.75;4.8125;-4.0;
1441975891769030;-0.46221923828125;0.5675048828125;0.59912109375;0.324462890625;15.724734881778957;14.032617184504687;1.0281928929418318;-0.93310546875;0.25439453125;-0.0712890625;-13.1875;3.125;-8.75;
1441975891792031;-0.4652099609375;0.564453125;0.59881591796875;0.32611083984375;15.771955155334627;14.032756238547066;1.0399044012738479;-0.93017578125;0.244140625;-0.05517578125;-12.4375;1.6875;-12.6875;
1441975891815033;-0.46832275390625;0.56109619140625;0.59844970703125;0.32806396484375;15.824195031661056;14.031602708140417;1.0504652513618953;-0.935546875;0.255859375;-0.06298828125;-11.1875;0.625;-16.0625;
1441975891830034;-0.4716796875;0.55731201171875;0.59820556640625;0.33026123046875;15.881829095768984;14.02749484594148;1.0595961009933559;-0.93994140625;0.263671875;-0.0595703125;-11.1875;-0.3125;-19.5;
1441975891852035;-0.47515869140625;0.55322265625;0.597900390625;0.3326416015625;15.943533334547475;14.022388083851427;1.0682493495301695;-0.94140625;0.26220703125;-0.05615234375;-12.75;-1.3125;-22.75;
1441975891875036;-0.47869873046875;0.5489501953125;0.5975341796875;0.3353271484375;16.009236200222595;14.016068661053042;1.0752750934817388;-0.93408203125;0.2578125;-0.0576171875;-13.5625;-2.3125;-25.25;
1441975891890037;-0.48211669921875;0.544677734375;0.5970458984375;0.33819580078125;16.076124859076383;14.009316843850515;1.080623216487703;-0.93408203125;0.24951171875;-0.05517578125;-13.0625;-3.0625;-27.1875;
1441975891912038;-0.48541259765625;0.54052734375;0.59637451171875;0.34124755859375;16.143628527953656;14.003704944582122;1.085324721693453;-0.935546875;0.25048828125;-0.048828125;-11.9375;-3.6875;-28.625;
1441975891934039;-0.4886474609375;0.536376953125;0.5955810546875;0.34454345703125;16.21309820230818;13.997840046165765;1.0885027284151074;-0.9443359375;0.255859375;-0.05517578125;-10.25;-4.25;-29.8125;
1441975891950040;-0.49169921875;0.5323486328125;0.5947265625;0.3480224609375;16.282522324600194;13.99082720494051;1.0889139573193334;-0.9560546875;0.2509765625;-0.05224609375;-9.1875;-5.0625;-30.875;
1441975891972042;-0.4945068359375;0.528564453125;0.59356689453125;0.35174560546875;16.35203848454531;13.985782720317266;1.0883109371971125;-0.96533203125;0.2490234375;-0.048828125;-7.5625;-5.75;-31.4375;
1441975891994043;-0.49700927734375;0.525146484375;0.59222412109375;0.35552978515625;16.41881333448926;13.98243603212215;1.0867832874927834;-0.9677734375;0.24560546875;-0.046875;-4.5625;-6.125;-31.5625;
1441975892012044;-0.49920654296875;0.52197265625;0.5908203125;0.359375;16.483244211365044;13.977944711216441;1.0821970763058673;-0.97314453125;0.2451171875;-0.04541015625;-1.8125;-5.9375;-31.1875;
1441975892032045;-0.50128173828125;0.51910400390625;0.58941650390625;0.36309814453125;16.54422028838691;13.975165236160269;1.0784278290375953;-0.96484375;0.24365234375;-0.02392578125;0.0;-5.375;-30.6875;
1441975892063047;-0.503173828125;0.51654052734375;0.58795166015625;0.36639404296875;16.599311870798005;13.976454777175563;1.0784895976860625;-0.94873046875;0.2412109375;-0.0185546875;1.3125;-4.4375;-29.6875;
1441975892070047;-0.505126953125;0.5142822265625;0.58660888671875;0.36907958984375;16.64769762743064;13.983906697589624;1.086152896402948;-0.9404296875;0.248046875;-0.01904296875;1.5;-3.0;-28.375;
1441975892094049;-0.507080078125;0.511962890625;0.5855712890625;0.3712158203125;16.69130595767542;13.990045245574377;1.0952204624659367;-0.931640625;0.25732421875;-0.02490234375;0.25;-1.625;-26.8125;
1441975892123050;-0.50921630859375;0.50970458984375;0.58477783203125;0.3726806640625;16.729460082006224;14.000712314265057;1.1118440745589124;-0.93701171875;0.26708984375;-0.021484375;-2.3125;-0.4375;-25.375;
1441975892130051;-0.511474609375;0.50738525390625;0.5841064453125;0.37371826171875;16.764891454287607;14.014434780468612;1.1336924406643134;-0.93994140625;0.27001953125;-0.03662109375;-5.25;0.25;-23.9375;
1441975892152052;-0.51373291015625;0.505126953125;0.58367919921875;0.37445068359375;16.796778835618866;14.027684874034184;1.1564615934418234;-0.95166015625;0.26806640625;-0.04345703125;-7.5625;1.0;-22.625;
1441975892183054;-0.5157470703125;0.5030517578125;0.5833740234375;0.375;16.824550013614626;14.039034426090344;1.1770134937455046;-0.9521484375;0.265625;-0.04296875;-8.9375;1.4375;-20.9375;
1441975892192054;-0.5174560546875;0.501220703125;0.5830078125;0.37548828125;16.849053648417627;14.050382951673067;1.1960471204961507;-0.95361328125;0.255859375;-0.03857421875;-8.8125;1.5;-18.75;
1441975892212055;-0.5186767578125;0.49993896484375;0.58270263671875;0.37603759765625;16.8680353102049;14.058460212517328;1.2087793759151853;-0.953125;0.2353515625;-0.0361328125;-7.0625;1.5;-15.9375;
1441975892234057;-0.51959228515625;0.4993896484375;0.582275390625;0.376220703125;16.878354673896844;14.07501630896834;1.2277396181102689;-0.9404296875;0.22998046875;-0.0224609375;-4.125;1.6875;-12.875;
1441975892258058;-0.52032470703125;0.4989013671875;0.5821533203125;0.3759765625;16.883240280309302;14.086626134822833;1.243229627146959;-0.94775390625;0.24072265625;-0.03955078125;-2.1875;2.3125;-9.8125;
1441975892272059;-0.52105712890625;0.49847412109375;0.58233642578125;0.37530517578125;16.883488932595128;14.096219773770425;1.2586433038246867;-0.94677734375;0.24658203125;-0.03369140625;-3.25;2.75;-7.4375;
1441975892295060;-0.521728515625;0.49810791015625;0.58270263671875;0.374267578125;16.87968303054043;14.104545642537596;1.274071781121357;-0.9462890625;0.24462890625;-0.03515625;-5.25;3.125;-5.0625;
1441975892310061;-0.52215576171875;0.49786376953125;0.58331298828125;0.373046875;16.87189000899742;14.106401532831198;1.2832260320147304;-0.95166015625;0.23095703125;-0.0341796875;-6.6875;3.4375;-2.125;
1441975892332062;-0.5224609375;0.498046875;0.5838623046875;0.37158203125;16.858986892753787;14.113583629509028;1.2966605973261023;-0.94970703125;0.2236328125;-0.02587890625;-6.6875;3.75;0.75;
1441975892355064;-0.5225830078125;0.49847412109375;0.58447265625;0.36981201171875;16.841118448414242;14.120955236231477;1.310174539328054;-0.94970703125;0.22021484375;-0.02978515625;-5.9375;4.5625;3.5;
1441975892372065;-0.5224609375;0.49908447265625;0.585205078125;0.36798095703125;16.82017043918613;14.123913830111663;1.3185796835878445;-0.9560546875;0.2177734375;-0.037109375;-5.5625;4.875;6.0625;
1441975892392066;-0.522216796875;0.49993896484375;0.58599853515625;0.36590576171875;16.794990980067706;14.12761171198516;1.3275731338634449;-0.95703125;0.21630859375;-0.0283203125;-5.1875;5.0;8.375;
1441975892415067;-0.52178955078125;0.50103759765625;0.5867919921875;0.36370849609375;16.766449126335832;14.13130817171918;1.3357164174608753;-0.95703125;0.21630859375;-0.03369140625;-4.75;5.0;10.75;
1441975892430068;-0.521240234375;0.50225830078125;0.587646484375;0.3614501953125;16.735930489008997;14.133298482887561;1.3418068337445286;-0.95068359375;0.20849609375;-0.0419921875;-4.3125;5.0625;12.875;
1441975892452069;-0.5205078125;0.503662109375;0.588623046875;0.3590087890625;16.701652954557165;14.133016354943411;1.345474333578012;-0.9521484375;0.21044921875;-0.04052734375;-4.0;5.0625;14.75;
1441975892475070;-0.5196533203125;0.50506591796875;0.589599609375;0.3565673828125;16.666868261151475;14.130870959971137;1.346975621853519;-0.9580078125;0.2177734375;-0.04443359375;-3.625;4.875;16.25;
1441975892490071;-0.518798828125;0.50640869140625;0.5906982421875;0.354248046875;16.633124366826415;14.125477928272192;1.3453406018886398;-0.96630859375;0.21728515625;-0.04541015625;-3.6875;4.375;17.125;
1441975892513073;-0.51776123046875;0.50775146484375;0.59173583984375;0.3519287109375;16.598771993126277;14.118725894582365;1.3417384197687774;-0.95556640625;0.2119140625;-0.0439453125;-3.9375;3.6875;17.625;
1441975892534074;-0.51666259765625;0.50927734375;0.59271240234375;0.349853515625;16.56502172675296;14.112634835555735;1.3371151521849118;-0.93896484375;0.2080078125;-0.04296875;-3.25;3.25;18.375;
1441975892565076;-0.51544189453125;0.510986328125;0.5933837890625;0.34796142578125;16.531788689579866;14.110532406767282;1.3342301616250278;-0.9287109375;0.1943359375;-0.04248046875;-1.5625;3.0;19.0625;
1441975892575076;-0.51409912109375;0.51300048828125;0.59375;0.34625244140625;16.49826297515275;14.113241019236769;1.3335088247882816;-0.92529296875;0.19580078125;-0.0439453125;0.875;3.3125;19.25;
1441975892595077;-0.512939453125;0.51507568359375;0.593994140625;0.34454345703125;16.465439510784087;14.120507602980991;1.3372985640619643;-0.9267578125;0.20947265625;-0.05126953125;3.0625;3.5625;18.6875;
1441975892611078;-0.51202392578125;0.51678466796875;0.59423828125;0.34295654296875;16.43704176184836;14.127021691904154;1.3417343609801715;-0.9296875;0.22509765625;-0.06396484375;3.375;3.875;17.1875;
1441975892632079;-0.5113525390625;0.5179443359375;0.59454345703125;0.34161376953125;16.415086223883115;14.129935155409225;1.3443199927441343;-0.95166015625;0.23828125;-0.0654296875;2.0;3.375;15.0625;
1441975892656081;-0.5108642578125;0.51873779296875;0.5948486328125;0.340576171875;16.398749210514012;14.130696951082502;1.3454107189265314;-0.9580078125;0.23291015625;-0.072265625;0.0;2.25;12.75;
1441975892671082;-0.510498046875;0.51947021484375;0.59503173828125;0.33978271484375;16.38558906323645;14.133046278829989;1.3474974724038784;-0.958984375;0.2255859375;-0.0712890625;-0.75;1.4375;10.9375;
1441975892692083;-0.51019287109375;0.5198974609375;0.59503173828125;0.3394775390625;16.3790406776702;14.134138884320564;1.3474291982440705;-0.9599609375;0.224609375;-0.07177734375;0.0625;1.0;9.25;
1441975892714084;-0.51007080078125;0.5201416015625;0.59490966796875;0.33966064453125;16.378677106709663;14.135508753602412;1.3468055220922543;-0.9599609375;0.21044921875;-0.06884765625;0.625;0.25;7.25;
1441975892746086;-0.50982666015625;0.5203857421875;0.594482421875;0.34039306640625;16.382927129006312;14.13732421365583;1.3437799125485557;-0.95068359375;0.1865234375;-0.0634765625;1.5;-0.375;5.75;
1441975892752086;-0.50927734375;0.52093505859375;0.5936279296875;0.3416748046875;16.389309707184708;14.141530463391547;1.3385450732808952;-0.9443359375;0.166015625;-0.05615234375;4.1875;-0.875;5.0;
1441975892775088;-0.50836181640625;0.5220947265625;0.59234619140625;0.3436279296875;16.396538875702927;14.14922176233562;1.3306658731168775;-0.92626953125;0.150390625;-0.0478515625;9.0;-1.4375;4.625;
1441975892791088;-0.5067138671875;0.52410888671875;0.5904541015625;0.34619140625;16.40142824499427;14.160869790616008;1.3186392237700575;-0.9013671875;0.1240234375;-0.0400390625;14.75;-1.75;5.625;
1441975892812090;-0.50408935546875;0.52734375;0.588134765625;0.34906005859375;16.397660703360042;14.175190872001908;1.3008249809403014;-0.869140625;0.10986328125;-0.02880859375;23.1875;-2.0625;7.375;
1441975892834091;-0.50115966796875;0.531005859375;0.585693359375;0.351806640625;16.38917180426055;14.191553635057712;1.2829794317932155;-0.82666015625;0.1376953125;-0.02783203125;31.8125;-2.6875;9.125;
1441975892857092;-0.498046875;0.53472900390625;0.58343505859375;0.35430908203125;16.377138085154105;14.20475451617281;1.262544554427291;-0.80712890625;0.15673828125;-0.01708984375;33.75;-0.875;10.0;
1441975892872093;-0.4947509765625;0.53875732421875;0.58123779296875;0.3564453125;16.359299620892102;14.219033863591683;1.243051228416979;-0.7919921875;0.16650390625;0.01318359375;33.9375;0.5;10.875;
1441975892894094;-0.49176025390625;0.54248046875;0.579345703125;0.35809326171875;16.34013970192273;14.232431844759812;1.2267576584268933;-0.783203125;0.205078125;0.0126953125;34.375;1.3125;11.3125;
1441975892917096;-0.48956298828125;0.54534912109375;0.57769775390625;0.35931396484375;16.325962138184842;14.24684271684016;1.2182164770316668;-0.78515625;0.23876953125;0.015625;30.25;2.875;9.5625;
1441975892932097;-0.487548828125;0.5482177734375;0.5755615234375;0.3612060546875;16.31921417516237;14.267098796291771;1.212608731718581;-0.78662109375;0.2216796875;0.00537109375;23.875;3.9375;7.75;
1441975892964098;-0.485107421875;0.55206298828125;0.57208251953125;0.36407470703125;16.315511951692237;14.304164174006562;1.213015514035214;-0.78759765625;0.19189453125;-0.0029296875;26.5;3.375;6.25;
1441975892977099;-0.48223876953125;0.55682373046875;0.567626953125;0.3675537109375;16.311339785096592;14.354037432933763;1.2177357572990628;-0.80322265625;0.18896484375;-0.01416015625;37.5;4.1875;4.875;
1441975892992100;-0.47943115234375;0.5611572265625;0.56329345703125;0.37139892578125;16.312856573960243;14.398251643408733;1.2174799195112909;-0.8173828125;0.2353515625;-0.0537109375;45.8125;3.0;1.6875;
1441975893015101;-0.476806640625;0.56500244140625;0.55877685546875;0.37567138671875;16.32222723099519;14.44202279018519;1.2169742577973175;-0.80517578125;0.244140625;-0.046875;45.0;1.6875;-1.5;
1441975893037103;-0.47369384765625;0.56927490234375;0.55364990234375;0.3807373046875;16.334711276279656;14.488964549607857;1.2129259545308804;-0.787109375;0.21435546875;-0.0439453125;44.6875;0.5;-3.625;
1441975893052103;-0.46966552734375;0.57403564453125;0.54803466796875;0.3865966796875;16.348006342472125;14.532881847710332;1.1981140137536608;-0.77294921875;0.19482421875;-0.0615234375;51.0;-2.125;-4.0625;
1441975893075105;-0.46551513671875;0.57867431640625;0.54266357421875;0.39227294921875;16.359712483254892;14.571921108069226;1.179693585296222;-0.7822265625;0.21728515625;-0.06982421875;58.4375;-5.375;-5.125;
1441975893097106;-0.462158203125;0.58221435546875;0.53802490234375;0.39739990234375;16.37574670307983;14.604325356827076;1.163849921432405;-0.7880859375;0.2685546875;-0.06982421875;57.125;-6.25;-7.0;
1441975893112107;-0.4595947265625;0.58477783203125;0.53350830078125;0.4027099609375;16.402628149274328;14.637101146117391;1.1533452064933398;-0.814453125;0.26171875;-0.07568359375;47.9375;-6.0625;-8.625;
1441975893135108;-0.45672607421875;0.58721923828125;0.52850341796875;0.40887451171875;16.437352257297917;14.669557770212624;1.1381408934303343;-0.830078125;0.19970703125;-0.06396484375;43.375;-6.0;-10.1875;
1441975893157109;-0.45294189453125;0.59100341796875;0.52227783203125;0.4156494140625;16.467512975656682;14.716726880602993;1.125861638879422;-0.83203125;0.12109375;-0.04736328125;47.25;-7.3125;-8.125;
1441975893180111;-0.448486328125;0.59564208984375;0.51544189453125;0.42230224609375;16.489908933215368;14.772064178993027;1.1159426712073282;-0.810546875;0.1025390625;-0.03173828125;59.25;-5.4375;-5.75;
1441975893195112;-0.4437255859375;0.60089111328125;0.50830078125;0.42840576171875;16.503288655656164;14.835421950958425;1.1120847707196497;-0.76904296875;0.10546875;-0.01318359375;65.625;-2.125;-3.5;
1441975893217113;-0.43914794921875;0.60687255859375;0.5009765625;0.43341064453125;16.503574022370742;14.913859915396918;1.124334433124036;-0.73779296875;0.11767578125;0.00244140625;67.9375;2.3125;-1.6875;
1441975893232114;-0.4351806640625;0.6123046875;0.4945068359375;0.43719482421875;16.49757299439775;14.9874078052008;1.1409849831674508;-0.73876953125;0.154296875;-0.0322265625;67.3125;7.0;-0.125;
1441975893254115;-0.43182373046875;0.61676025390625;0.4892578125;0.44012451171875;16.49058750630992;15.045771545044172;1.1530065284050743;-0.76025390625;0.1787109375;-0.052734375;58.125;8.25;0.5;
1441975893277116;-0.42913818359375;0.62042236328125;0.484619140625;0.4427490234375;16.48736811670475;15.099021896035167;1.166808506606803;-0.755859375;0.16357421875;-0.05859375;47.5;7.5625;1.8125;
1441975893292117;-0.42645263671875;0.62420654296875;0.479736328125;0.4453125;16.483048999402598;15.15698270029676;1.1843980516145745;-0.74658203125;0.13818359375;-0.06982421875;40.1875;6.3125;1.9375;
1441975893314118;-0.42340087890625;0.62872314453125;0.47406005859375;0.44793701171875;16.47414284418162;15.226651825475528;1.2079756043608945;-0.73095703125;0.1162109375;-0.08056640625;40.875;6.875;2.4375;
1441975893337120;-0.4202880859375;0.63348388671875;0.4683837890625;0.45013427734375;16.45940584645902;15.297321950484648;1.23282910304098;-0.75732421875;0.1494140625;-0.11181640625;46.875;8.0;2.0625;
1441975893352121;-0.417724609375;0.63726806640625;0.463623046875;0.45208740234375;16.449326749243724;15.355230338893797;1.2527040375166856;-0.8154296875;0.21484375;-0.154296875;46.5;7.8125;-0.1875;
1441975893375122;-0.41583251953125;0.63995361328125;0.4598388671875;0.45391845703125;16.44619083110739;15.400663399553718;1.268476155700116;-0.875;0.22607421875;-0.16845703125;38.5625;6.0625;-1.4375;
1441975893397123;-0.41400146484375;0.641845703125;0.45599365234375;0.456787109375;16.457686373715607;15.442001318826009;1.279532468484636;-0.93310546875;0.21142578125;-0.18310546875;30.0625;2.5625;-2.0;
1441975893412124;-0.4107666015625;0.64434814453125;0.45111083984375;0.4609375;16.47372087809959;15.48240390007322;1.2770361143012288;-0.998046875;0.1376953125;-0.1669921875;30.0;-0.875;-1.125;
1441975893434125;-0.40673828125;0.647216796875;0.4464111328125;0.46514892578125;16.485689724999617;15.51101257646342;1.2597193743889439;-1.041015625;0.13525390625;-0.1728515625;41.75;-5.0625;0.0625;
1441975893457127;-0.4027099609375;0.64990234375;0.44232177734375;0.46875;16.49307058232996;15.529903103185976;1.2366487506141766;-1.04150390625;0.16748046875;-0.17138671875;45.125;-6.75;1.5;
1441975893472127;-0.39947509765625;0.65179443359375;0.4395751953125;0.47149658203125;16.49905266400793;15.535138380215761;1.2109540427956187;-1.0615234375;0.20068359375;-0.18896484375;40.6875;-7.0625;2.0625;
1441975893496129;-0.39739990234375;0.65240478515625;0.4381103515625;0.4737548828125;16.51108957161751;15.529530758336456;1.1867434056260318;-1.06982421875;0.212890625;-0.1884765625;30.0;-7.1875;2.3125;
1441975893517130;-0.3955078125;0.65234375;0.43707275390625;0.476318359375;16.530363216234555;15.514949620883115;1.1564591882076745;-1.07763671875;0.1650390625;-0.185546875;16.9375;-8.6875;3.25;
1441975893533131;-0.39276123046875;0.65289306640625;0.43505859375;0.479736328125;16.551798923271054;15.505530301375464;1.1217745893813755;-1.0732421875;0.1103515625;-0.17041015625;13.875;-11.5;4.6875;
1441975893554132;-0.388916015625;0.65435791015625;0.4326171875;0.4830322265625;16.56350573551165;15.492493416456275;1.076539347938784;-1.03662109375;0.08935546875;-0.1796875;22.375;-14.125;5.375;
1441975893577133;-0.38482666015625;0.65631103515625;0.430419921875;0.485595703125;16.56441291448775;15.476128030514648;1.0285629993625196;-0.974609375;0.1259765625;-0.19677734375;29.6875;-14.8125;7.1875;
1441975893593134;-0.38134765625;0.657470703125;0.42913818359375;0.4879150390625;16.56880713039622;15.448776316213467;0.9771350989014888;-0.95458984375;0.20166015625;-0.2470703125;29.0;-15.875;6.25;
1441975893614136;-0.3785400390625;0.65777587890625;0.42803955078125;0.49066162109375;16.58409546928833;15.4209595726305;0.9291030461959903;-0.970703125;0.208984375;-0.27001953125;21.125;-19.0;5.0625;
1441975893637137;-0.37518310546875;0.65814208984375;0.42657470703125;0.49395751953125;16.602438077012152;15.389242466804895;0.8726873297632598;-1.01513671875;0.16455078125;-0.28271484375;16.875;-22.5625;3.75;
1441975893653138;-0.3717041015625;0.658203125;0.4251708984375;0.4976806640625;16.625663627936305;15.349772548660667;0.8080397964831121;-1.04296875;0.1904296875;-0.3154296875;20.4375;-27.125;2.125;
1441975893674139;-0.36859130859375;0.65765380859375;0.4239501953125;0.5018310546875;16.65696344039869;15.304387403758449;0.7397612222571089;-1.052734375;0.20068359375;-0.3232421875;21.0;-30.875;0.3125;
1441975893697140;-0.365234375;0.65716552734375;0.42242431640625;0.5062255859375;16.689233707929812;15.257462589220438;0.6674075161982456;-1.03759765625;0.15966796875;-0.31689453125;18.1875;-34.0;-0.3125;
1441975893713141;-0.36126708984375;0.65728759765625;0.42022705078125;0.5107421875;16.717378815585054;15.214908630904837;0.5934394807459347;-1.02587890625;0.140625;-0.2939453125;21.0;-33.75;0.25;
1441975893734142;-0.356201171875;0.657958984375;0.4176025390625;0.51556396484375;16.740958123728443;15.163690521292459;0.5037173948182938;-1.001953125;0.12353515625;-0.26806640625;27.0625;-31.3125;2.3125;
1441975893765144;-0.35009765625;0.6591796875;0.4151611328125;0.52001953125;16.752703248690352;15.097984850231088;0.3962000444621357;-0.982421875;0.1435546875;-0.2392578125;34.5;-31.1875;3.75;
1441975893773145;-0.34423828125;0.66021728515625;0.41351318359375;0.52398681640625;16.75916296010826;15.021581315308868;0.2830279411069834;-0.994140625;0.19677734375;-0.2333984375;37.625;-30.875;6.9375;
1441975893795146;-0.33868408203125;0.6612548828125;0.41265869140625;0.52691650390625;16.754838656296922;14.942646557579021;0.17337691115570894;-0.99951171875;0.19091796875;-0.21875;32.75;-30.125;9.8125;
1441975893817147;-0.33367919921875;0.66217041015625;0.412109375;0.52935791015625;16.747628672055182;14.86969570263656;0.07397865550922073;-1.021484375;0.21142578125;-0.21337890625;27.0625;-26.6875;12.4375;
1441975893833148;-0.32855224609375;0.663330078125;0.41119384765625;0.5318603515625;16.7391368127221;14.804588452212073;17.980073083537988;-1.01025390625;0.1884765625;-0.205078125;22.375;-24.25;13.75;
1441975893854149;-0.3226318359375;0.66522216796875;0.4095458984375;0.534423828125;16.724848122290776;14.74997528266385;17.88966451323715;-1.01708984375;0.189453125;-0.19189453125;25.1875;-22.5625;14.25;
1441975893878151;-0.31573486328125;0.667724609375;0.40667724609375;0.53759765625;16.710868001734642;14.705742402531223;17.799386596341755;-1.02099609375;0.177734375;-0.20068359375;32.0;-22.125;16.9375;
1441975893893152;-0.30731201171875;0.6712646484375;0.40325927734375;0.5406494140625;16.683863146863324;14.665787403115104;17.704188738350393;-1.0390625;0.14892578125;-0.19189453125;41.8125;-21.9375;19.125;
1441975893914153;-0.2984619140625;0.6749267578125;0.40045166015625;0.5430908203125;16.646203197873305;14.621316390701317;17.606090172960606;-1.01220703125;0.20556640625;-0.19677734375;51.375;-21.0625;21.625;
1441975893937154;-0.29034423828125;0.67755126953125;0.3985595703125;0.5455322265625;16.613319037426287;14.56341220441093;17.50245805902827;-1.009765625;0.2861328125;-0.21240234375;49.5625;-22.0625;21.6875;
1441975893953155;-0.2823486328125;0.67987060546875;0.3970947265625;0.54803466796875;16.580149118349816;14.50036749541345;17.396097976872163;-1.04052734375;0.28662109375;-0.203125;41.25;-24.125;21.25;
1441975893974156;-0.27423095703125;0.6820068359375;0.39495849609375;0.551025390625;16.552742193686974;14.44216361041106;17.29111407129095;-1.06396484375;0.29052734375;-0.19873046875;38.6875;-25.4375;21.75;
1441975893997157;-0.26519775390625;0.68438720703125;0.3916015625;0.5548095703125;16.529098585709402;14.389293087899528;17.181742388458638;-1.068359375;0.2509765625;-0.19482421875;41.8125;-27.375;22.25;
1441975894021159;-0.25494384765625;0.6875;0.386962890625;0.55902099609375;16.50298721023118;14.34874165059462;17.073401023562592;-1.0693359375;0.22998046875;-0.19091796875;50.75;-29.5625;22.5;
1441975894035160;-0.244384765625;0.69012451171875;0.3804931640625;0.56494140625;16.497245479535103;14.306885081014068;16.953685487152118;-1.10888671875;0.275390625;-0.203125;62.3125;-30.6875;20.9375;
1441975894057161;-0.23211669921875;0.693603515625;0.37200927734375;0.57147216796875;16.490861082929936;14.279787270840854;16.832427831109786;-1.21044921875;0.2314453125;-0.16845703125;71.6875;-34.5;17.0;
1441975894073162;-0.21990966796875;0.6966552734375;0.36376953125;0.577880859375;16.48392117957716;14.246917392368749;16.707478538212847;-1.25634765625;0.29150390625;-0.21630859375;87.5;-37.75;13.875;
1441975894103164;-0.2088623046875;0.6986083984375;0.3564453125;0.5841064453125;16.48194502446514;14.201118216640191;16.57948377207988;-1.2763671875;0.34326171875;-0.19970703125;85.75;-38.375;11.1875;
1441975894117164;-0.2000732421875;0.69964599609375;0.3482666015625;0.59088134765625;16.50625424323135;14.162794780415103;16.46483901490035;-1.2861328125;0.3115234375;-0.1650390625;76.4375;-37.5625;11.0;
1441975894133165;-0.1912841796875;0.700439453125;0.33782958984375;0.5987548828125;16.55073247353593;14.12983318544012;16.345758069914023;-1.3447265625;0.22509765625;-0.13037109375;70.5625;-35.3125;3.5625;
1441975894154166;-0.178466796875;0.70367431640625;0.32470703125;0.606201171875;16.57219730329349;14.133541772796995;16.234913103675616;-1.4599609375;0.1474609375;-0.060546875;81.75;-33.375;0.25;
1441975894177168;-0.1619873046875;0.70977783203125;0.3077392578125;0.612548828125;16.576636309466878;14.207512323143218;16.16315517664051;-1.46533203125;0.0615234375;-0.04248046875;111.0625;-28.5;0.8125;
1441975894193169;-0.14447021484375;0.7178955078125;0.28973388671875;0.6162109375;16.55936969786041;14.348189886759217;16.151012133096643;-1.41015625;0.21728515625;-0.11474609375;143.25;-18.5625;3.9375;
1441975894215170;-0.12725830078125;0.73004150390625;0.26971435546875;0.61480712890625;16.51105883490045;14.62621232691714;16.270767889431774;-1.35888671875;0.390625;-0.1591796875;152.125;-1.5625;8.125;
1441975894238171;-0.1217041015625;0.72857666015625;0.27880859375;0.61358642578125;16.41731003695235;14.479307458800056;16.140861815265527;-1.41064453125;0.044921875;0.078125;162.625;40.5;17.5625;
1441975894253172;-0.12286376953125;0.72772216796875;0.273681640625;0.61669921875;16.477983938074708;14.496224585795021;16.139599588962565;-1.30224609375;0.64404296875;0.4228515625;-10.0;22.0625;35.625;
1441975894274173;-0.09173583984375;0.7462158203125;0.251953125;0.6092529296875;16.285624135925733;14.814890183893755;16.23768118725034;-1.81494140625;-1.16748046875;0.60791015625;18.1875;-10.6875;-28.4375;
1441975894297175;-0.06280517578125;0.76849365234375;0.23431396484375;0.59197998046875;15.995434701050153;15.17521473539741;16.407176181421093;-1.48876953125;-0.4931640625;-0.2890625;222.3125;60.9375;92.6875;
1441975894315176;-0.06103515625;0.7818603515625;0.2451171875;0.56988525390625;15.709789433536482;15.31335393743916;16.589497178792303;-1.30126953125;1.56982421875;-0.7578125;200.6875;111.6875;79.5;
1441975894334177;-0.06475830078125;0.796142578125;0.25091552734375;0.5467529296875;15.457444618650179;15.501606284857983;16.824438976361392;-0.88232421875;0.8125;-0.5302734375;-31.125;131.6875;70.5625;
1441975894357178;-0.06561279296875;0.81011962890625;0.2542724609375;0.52410888671875;15.19574555009868;15.655391576803371;17.003626556647376;-1.009765625;0.26220703125;-0.66259765625;-28.75;147.8125;41.4375;
1441975894373179;-0.06829833984375;0.82257080078125;0.25628662109375;0.50286865234375;14.959051743648095;15.78918697611328;17.165214688658207;-0.80419921875;0.28173828125;-0.671875;-8.875;141.25;44.6875;
1441975894411181;-0.0750732421875;0.8314208984375;0.26043701171875;0.4849853515625;14.773763459144421;15.877604138211169;17.307450912380215;-0.61962890625;0.50732421875;-0.67236328125;-8.25;132.9375;25.6875;
1441975894417181;-0.084228515625;0.83837890625;0.26446533203125;0.468994140625;14.62065231501445;15.952829236899337;17.446220680616808;-0.54736328125;0.46728515625;-0.60888671875;-33.625;113.0625;6.375;
1441975894433182;-0.094970703125;0.8433837890625;0.26690673828125;0.45648193359375;14.515818869285111;16.0241518045915;17.579850893170796;-0.548828125;0.37939453125;-0.53271484375;-43.75;92.5;-13.8125;
1441975894456184;-0.10748291015625;0.8458251953125;0.26885986328125;0.44793701171875;14.464922193770176;16.085206581660813;17.70712626627678;-0.5419921875;0.3828125;-0.51318359375;-40.75;75.625;-31.5625;
1441975894485185;-0.12188720703125;0.84613037109375;0.27032470703125;0.44281005859375;14.461601364908507;16.143496991217166;17.83594599992756;-0.56640625;0.400390625;-0.48876953125;-42.5625;56.0;-49.5;
1441975894493186;-0.13702392578125;0.84521484375;0.27044677734375;0.4400634765625;14.488942923135587;16.209116133822732;17.968129446962703;-0.5703125;0.36083984375;-0.48876953125;-47.4375;37.3125;-64.875;
1441975894517187;-0.15191650390625;0.8438720703125;0.270263671875;0.4378662109375;14.519982446602384;16.275907914975864;0.09899776160716353;-0.5849609375;0.36328125;-0.51025390625;-42.6875;24.0625;-76.125;
1441975894537188;-0.16778564453125;0.84136962890625;0.27288818359375;0.4351806640625;14.548190475758101;16.322385804221348;0.22688796525514715;-0.63720703125;0.4111328125;-0.54052734375;-39.25;20.3125;-79.875;
1441975894553189;-0.18511962890625;0.838134765625;0.277099609375;0.43170166015625;14.57238355545881;16.362336225115833;0.36248195528742944;-0.68408203125;0.40966796875;-0.55322265625;-57.5625;19.625;-76.625;
1441975894576191;-0.2027587890625;0.83404541015625;0.28204345703125;0.428466796875;14.601650372556945;16.396615599871115;0.497284887079895;-0.71533203125;0.35498046875;-0.564453125;-72.1875;22.5625;-75.875;
1441975894597192;-0.21978759765625;0.8299560546875;0.2872314453125;0.42462158203125;14.621653724569413;16.427384927224576;0.6279218951207373;-0.77392578125;0.31201171875;-0.52783203125;-78.125;23.0625;-73.875;
1441975894613193;-0.235595703125;0.8260498046875;0.2923583984375;0.42022705078125;14.631235721408126;16.45394626028607;0.7498195466665732;-0.77392578125;0.3154296875;-0.5244140625;-78.0625;25.0625;-69.5625;
1441975894643194;-0.250732421875;0.82135009765625;0.2977294921875;0.4168701171875;14.652968597239674;16.47408981454345;0.863154686521777;-0.751953125;0.29638671875;-0.52685546875;-75.4375;25.25;-62.9375;
1441975894665196;-0.263427734375;0.8175048828125;0.30224609375;0.413330078125;14.662831940502622;16.49155587698208;0.9598381678095517;-0.77001953125;0.22998046875;-0.4873046875;-76.1875;20.0625;-57.625;
1441975894673196;-0.27593994140625;0.8131103515625;0.30755615234375;0.409912109375;14.676366226149199;16.50054505203159;1.051095762054758;-0.703125;0.2666015625;-0.50390625;-64.25;16.25;-50.5;
1441975894697197;-0.28814697265625;0.80792236328125;0.31414794921875;0.4068603515625;14.697909971731459;16.495912968533556;1.1331557777298833;-0.70361328125;0.28759765625;-0.4892578125;-67.1875;14.0625;-49.8125;
1441975894717199;-0.3004150390625;0.802001953125;0.321044921875;0.4041748046875;14.727653590640518;16.488628375874487;1.2145222453753282;-0.67578125;0.26171875;-0.45703125;-73.4375;8.375;-46.8125;
1441975894733200;-0.3123779296875;0.7958984375;0.32843017578125;0.40130615234375;14.75682674052318;16.475619012637203;1.291426837976088;-0.6513671875;0.22607421875;-0.419921875;-76.375;5.9375;-46.75;
1441975894762201;-0.32415771484375;0.789306640625;0.3363037109375;0.39837646484375;14.78878067077416;16.45711619450033;1.3649260621600372;-0.62548828125;0.23046875;-0.39794921875;-77.875;5.0;-44.5625;
1441975894785203;-0.33551025390625;0.782470703125;0.34393310546875;0.39599609375;14.827219823376996;16.439297592889517;1.4358513953228773;-0.62255859375;0.2197265625;-0.40576171875;-81.625;2.0;-43.0625;
1441975894793203;-0.34588623046875;0.7760009765625;0.35064697265625;0.3939208984375;14.864763324532877;16.425897168284983;1.5027156185458064;-0.64599609375;0.19970703125;-0.41455078125;-79.6875;-1.375;-41.5625;
1441975894822205;-0.35577392578125;0.76934814453125;0.3572998046875;0.3922119140625;14.906610503771725;16.411135352502548;1.565683118578604;-0.67431640625;0.21240234375;-0.4541015625;-72.25;-4.3125;-39.625;
1441975894837206;-0.364990234375;0.76239013671875;0.36419677734375;0.39093017578125;14.954258436321394;16.390962842622287;1.6212758034644026;-0.69873046875;0.2177734375;-0.48486328125;-71.375;-8.3125;-38.5625;
1441975894853206;-0.37396240234375;0.75494384765625;0.371337890625;0.3902587890625;15.01113528992654;16.367808370126127;1.6734247007843899;-0.69677734375;0.23779296875;-0.48974609375;-70.3125;-13.9375;-37.625;
1441975894876208;-0.38232421875;0.74755859375;0.37811279296875;0.3897705078125;15.068696487709767;16.345352044630097;1.722086137218653;-0.71044921875;0.2275390625;-0.4775390625;-70.4375;-18.125;-37.8125;
1441975894897209;-0.3897705078125;0.74053955078125;0.3846435546875;0.389404296875;15.124278556304915;16.320574368368945;1.7630777001803468;-0.73828125;0.203125;-0.46435546875;-67.75;-18.3125;-34.4375;
1441975894913210;-0.3961181640625;0.733642578125;0.3914794921875;0.3892822265625;15.181013925053294;16.28633381363605;1.790841228827438;-0.7587890625;0.19384765625;-0.455078125;-63.875;-18.9375;-29.625;
1441975894936211;-0.40142822265625;0.7269287109375;0.39794921875;0.389892578125;15.242291936317006;16.249889267256684;1.8092513239475483;-0.775390625;0.193359375;-0.4443359375;-61.5625;-22.375;-24.25;
1441975894957212;-0.4052734375;0.7213134765625;0.40374755859375;0.390380859375;15.293308266877432;16.210970782708472;1.8154472242466597;-0.7958984375;0.150390625;-0.423828125;-56.8125;-25.4375;-18.875;
1441975894973213;-0.40802001953125;0.71661376953125;0.4091796875;0.3905029296875;15.333473103085188;16.16819919930979;1.8114261942507455;-0.798828125;0.16796875;-0.4111328125;-47.875;-24.1875;-12.875;
1441975894996215;-0.4102783203125;0.71246337890625;0.41448974609375;0.39007568359375;15.364198396422346;16.12263958350377;1.802517858205904;-0.81689453125;0.19189453125;-0.40087890625;-41.8125;-21.6875;-7.125;
1441975895017216;-0.4119873046875;0.70855712890625;0.419921875;0.3896484375;15.392623164167041;16.071510614265364;1.7859646974960524;-0.8310546875;0.19482421875;-0.39794921875;-40.3125;-19.0625;-2.5;
1441975895041217;-0.41259765625;0.705078125;0.4249267578125;0.389892578125;15.422402415308088;16.017407382153177;1.7585831341875078;-0.84033203125;0.1796875;-0.38037109375;-39.5;-19.5625;2.0;
1441975895056218;-0.41168212890625;0.7025146484375;0.4290771484375;0.390869140625;15.449720064462193;15.962335536380909;1.718189908156207;-0.85009765625;0.154296875;-0.36669921875;-32.9375;-22.25;6.3125;
1441975895077219;-0.40924072265625;0.70111083984375;0.43280029296875;0.39190673828125;15.466644724669301;15.901640178997244;1.6626409021557464;-0.82763671875;0.1494140625;-0.3564453125;-22.375;-25.5625;11.5;
1441975895093220;-0.406494140625;0.69989013671875;0.43707275390625;0.39215087890625;15.473612219947675;15.832023492947515;1.600517799541719;-0.814453125;0.20654296875;-0.35302734375;-12.8125;-26.1875;15.75;
1441975895116221;-0.404052734375;0.69805908203125;0.44195556640625;0.39251708984375;15.485046633339948;15.756309998359725;1.53654192594231;-0.80712890625;0.26513671875;-0.35498046875;-15.0;-25.5625;16.8125;
1441975895137223;-0.40106201171875;0.6961669921875;0.4466552734375;0.3936767578125;15.501510689528269;15.67757762214595;1.4652759128220765;-0.82373046875;0.25146484375;-0.33349609375;-19.6875;-27.0;16.6875;
1441975895155224;-0.39776611328125;0.6942138671875;0.45098876953125;0.39544677734375;15.521649367732564;15.599180564467868;1.3907426325967531;-0.83544921875;0.24853515625;-0.31884765625;-16.0625;-30.5625;17.5;
1441975895176225;-0.39349365234375;0.69342041015625;0.45458984375;0.39703369140625;15.52876672502882;15.523947736237002;1.3112906832228697;-0.8271484375;0.21435546875;-0.28173828125;-12.4375;-31.5625;18.1875;
1441975895197226;-0.38922119140625;0.692138671875;0.45855712890625;0.39886474609375;15.539164218280249;15.442444725006398;1.2273902475877945;-0.80810546875;0.275390625;-0.2841796875;-4.3125;-30.0625;19.6875;
1441975895219227;-0.38458251953125;0.69085693359375;0.4617919921875;0.40179443359375;15.55704679117749;15.364182903546979;1.1403413851219724;-0.82373046875;0.29541015625;-0.2646484375;-5.9375;-32.125;18.1875;
1441975895236228;-0.3790283203125;0.6904296875;0.4637451171875;0.40557861328125;15.573784719472615;15.293936145902427;1.049777500155332;-0.86572265625;0.26025390625;-0.2431640625;-0.125;-34.1875;18.5;
1441975895257230;-0.3721923828125;0.6907958984375;0.46478271484375;0.41015625;15.587647333926586;15.224890120086249;0.9492029616916317;-0.8974609375;0.26513671875;-0.244140625;11.0625;-35.625;19.5;
1441975895279231;-0.36517333984375;0.6912841796875;0.46551513671875;0.4146728515625;15.59805866294112;15.157561003850546;0.8485960085721227;-0.90673828125;0.29638671875;-0.21484375;22.375;-36.75;20.375;
1441975895296232;-0.35833740234375;0.6917724609375;0.46636962890625;0.4189453125;15.60488429728031;15.09019539841147;0.7495809931811364;-0.892578125;0.31591796875;-0.18212890625;24.9375;-34.8125;19.75;
1441975895317233;-0.35137939453125;0.69293212890625;0.46649169921875;0.4227294921875;15.60266113198704;15.034023082784607;0.6584691076169816;-0.87451171875;0.287109375;-0.1220703125;24.375;-30.375;21.3125;
1441975895339234;-0.3443603515625;0.69488525390625;0.466064453125;0.42572021484375;15.58853664237563;14.989757189416306;0.5772124175397628;-0.8505859375;0.2763671875;-0.08251953125;29.0625;-24.125;23.5625;
1441975895356235;-0.3372802734375;0.69775390625;0.4652099609375;0.4276123046875;15.559502376835152;14.958350262961243;0.5075886394673039;-0.841796875;0.27880859375;-0.05078125;32.6875;-16.125;25.6875;
1441975895377236;-0.33056640625;0.70111083984375;0.46466064453125;0.427978515625;15.514967876982226;14.93469634389697;0.4504319506003201;-0.849609375;0.306640625;-0.0263671875;35.4375;-7.4375;28.75;
1441975895399238;-0.32501220703125;0.7042236328125;0.4644775390625;0.4273681640625;15.46749147378426;14.918034143742117;0.40830787526190776;-0.87353515625;0.3603515625;-0.02392578125;32.625;0.6875;30.5625;
1441975895416239;-0.31982421875;0.70770263671875;0.46405029296875;0.426025390625;15.413886316522738;14.911293999985642;0.3773433200769112;-0.884765625;0.33447265625;-0.015625;26.0;7.375;31.4375;
1441975895438240;-0.31463623046875;0.7115478515625;0.46380615234375;0.4237060546875;15.349418231010613;14.908340095744697;0.35217916243221775;-0.89111328125;0.33447265625;-0.02587890625;25.0;12.25;33.0;
1441975895462241;-0.3095703125;0.7156982421875;0.46380615234375;0.42047119140625;15.275398148525836;14.90866962212951;0.332933010000938;-0.865234375;0.357421875;-0.0478515625;23.4375;15.25;35.0625;
1441975895483242;-0.3045654296875;0.719970703125;0.464111328125;0.41644287109375;15.193435500887;14.909860446787635;0.317325384295534;-0.841796875;0.37109375;-0.06201171875;21.625;18.5625;37.4375;
1441975895500243;-0.29998779296875;0.72412109375;0.4649658203125;0.41162109375;15.105943544419734;14.910387275143437;0.30652237434698004;-0.83056640625;0.392578125;-0.0859375;18.5625;20.75;39.3125;
1441975895528245;-0.29595947265625;0.72760009765625;0.466552734375;0.40655517578125;15.020649860801926;14.90507967052776;0.2964419685833221;-0.84765625;0.4228515625;-0.1044921875;13.5;23.25;40.1875;
1441975895536245;-0.2918701171875;0.73101806640625;0.468017578125;0.401611328125;14.936719044640098;14.900342115505778;0.2861312901846252;-0.84521484375;0.421875;-0.0986328125;7.25;23.625;40.375;
1441975895558247;-0.28741455078125;0.73468017578125;0.46929931640625;0.39666748046875;14.850193818527604;14.896914155191789;0.27461460429261497;-0.8427734375;0.4169921875;-0.09423828125;8.4375;23.6875;40.6875;
1441975895579248;-0.28277587890625;0.73883056640625;0.47021484375;0.39117431640625;14.75643431472276;14.89953679719086;0.267329292985782;-0.81787109375;0.4296875;-0.08740234375;10.75;23.8125;41.875;
1441975895597249;-0.27813720703125;0.74334716796875;0.47100830078125;0.38482666015625;14.653694296367291;14.906792469201378;0.26534275364706483;-0.787109375;0.435546875;-0.10546875;12.9375;26.1875;43.5;
1441975895618250;-0.27374267578125;0.7474365234375;0.472900390625;0.377685546875;14.544668937109698;14.906161718805565;0.2630295532284678;-0.78759765625;0.48046875;-0.13916015625;12.8125;29.375;44.5;
1441975895639251;-0.26947021484375;0.7509765625;0.4757080078125;0.3702392578125;14.434058594843677;14.897391131335063;0.25825682829490976;-0.7822265625;0.51318359375;-0.1630859375;5.0625;30.0625;46.375;
1441975895656252;-0.26513671875;0.7542724609375;0.4786376953125;0.36273193359375;14.32345123668666;14.886939176476224;0.2527658419853303;-0.76513671875;0.50830078125;-0.17822265625;-1.5;27.9375;48.5;
1441975895678254;-0.26080322265625;0.75738525390625;0.48138427734375;0.355712890625;14.218411789407954;14.876594984271788;0.2460367239968653;-0.74755859375;0.52783203125;-0.19873046875;-2.9375;26.3125;48.6875;
1441975895708255;-0.25665283203125;0.76019287109375;0.48394775390625;0.34930419921875;14.12151579688463;14.86630229805072;0.2386536428649356;-0.77490234375;0.55810546875;-0.23291015625;-2.875;23.25;47.0;
1441975895716256;-0.25286865234375;0.76239013671875;0.48687744140625;0.3431396484375;14.03057200031266;14.852186291422116;0.23096362777980242;-0.79931640625;0.580078125;-0.2685546875;-3.625;19.8125;44.4375;
1441975895738257;-0.24969482421875;0.7635498046875;0.4903564453125;0.3377685546875;13.953183316018505;14.831199106307452;0.22118492965278566;-0.79150390625;0.59228515625;-0.2978515625;-7.875;16.3125;42.125;
1441975895759258;-0.24664306640625;0.76434326171875;0.49365234375;0.3333740234375;13.887037389085792;14.809267663204315;0.20882191260426755;-0.7880859375;0.56396484375;-0.2939453125;-14.0;12.4375;39.5625;
1441975895776259;-0.2432861328125;0.76513671875;0.49639892578125;0.32989501953125;13.828502924009733;14.78906746586522;0.1929381830205268;-0.77734375;0.537109375;-0.283203125;-13.5625;8.1875;36.75;
1441975895799261;-0.23968505859375;0.76629638671875;0.49822998046875;0.32720947265625;13.776092849509066;14.774865106050159;0.17607502974012323;-0.7509765625;0.5234375;-0.24755859375;-7.875;5.5625;34.9375;
1441975895819262;-0.23577880859375;0.76812744140625;0.4990234375;0.32440185546875;13.720388145241571;14.769872674663699;0.16223135394699342;-0.7294921875;0.5009765625;-0.2197265625;-0.9375;4.625;33.4375;
1441975895836263;-0.23187255859375;0.77020263671875;0.49969482421875;0.32135009765625;13.661759500211144;14.767295987179486;0.1503269801760937;-0.69873046875;0.50341796875;-0.2177734375;6.1875;6.6875;33.3125;
1441975895858264;-0.2281494140625;0.7720947265625;0.50067138671875;0.31787109375;13.600360972948488;14.763407906525456;0.14032966184511042;-0.68505859375;0.52783203125;-0.1982421875;8.25;8.875;33.0;
1441975895879265;-0.22491455078125;0.77386474609375;0.502197265625;0.31353759765625;13.5332796365935;14.758375653635259;0.13531605078342235;-0.66943359375;0.52734375;-0.1884765625;5.9375;11.6875;33.6875;
1441975895896266;-0.221923828125;0.775634765625;0.5035400390625;0.30908203125;13.466852699706276;14.755478628606467;0.1329584432932437;-0.67822265625;0.53369140625;-0.18896484375;1.1875;15.6875;35.25;
1441975895918267;-0.21875;0.7777099609375;0.50445556640625;0.3045654296875;13.398596157208056;14.75613265520367;0.13132395776998876;-0.67626953125;0.5146484375;-0.1923828125;1.0;17.5;35.8125;
1441975895939269;-0.216064453125;0.77960205078125;0.50555419921875;0.29974365234375;13.330630775621486;14.756633716135836;0.13318547692935429;-0.67626953125;0.55224609375;-0.2041015625;4.1875;17.75;35.5;
1441975895955269;-0.21435546875;0.7811279296875;0.50665283203125;0.295166015625;13.271721822739789;14.757787684865527;0.13959702212628008;-0.66259765625;0.59228515625;-0.2373046875;1.25;18.75;32.125;
1441975895978271;-0.21319580078125;0.78253173828125;0.50732421875;0.29119873046875;13.222739788897812;14.761525505263913;0.14785910403904473;-0.6640625;0.59619140625;-0.2548828125;-2.25;19.0;27.3125;
1441975896000272;-0.21185302734375;0.78411865234375;0.507568359375;0.287353515625;13.173993406191942;14.767836179531505;0.1557062287338972;-0.64404296875;0.560546875;-0.25146484375;-1.125;18.375;23.5;
1441975896022273;-0.21063232421875;0.78515625;0.50872802734375;0.28338623046875;13.125018013473076;14.766843029976899;0.16175178917414207;-0.6064453125;0.59375;-0.26318359375;1.9375;17.0625;20.5;
1441975896037274;-0.209716796875;0.78558349609375;0.510498046875;0.2796630859375;13.081018626055906;14.760243150351315;0.16651173636319924;-0.58447265625;0.6357421875;-0.26611328125;-3.625;15.3125;18.625;
1441975896060275;-0.20849609375;0.78619384765625;0.5118408203125;0.2762451171875;13.038242712114416;14.755808329823473;0.16954757474281662;-0.591796875;0.61083984375;-0.26318359375;-8.4375;13.875;18.625;
1441975896075276;-0.20697021484375;0.7874755859375;0.512451171875;0.27276611328125;12.992183444742592;14.757607509850718;0.17347210701345744;-0.60986328125;0.60791015625;-0.27490234375;-6.0;12.5;20.3125;
1441975896098278;-0.20526123046875;0.7890625;0.51251220703125;0.2691650390625;12.943898820865797;14.76346914525637;0.17829091260726637;-0.623046875;0.6328125;-0.30859375;-1.375;13.0625;21.3125;
1441975896120279;-0.20306396484375;0.79119873046875;0.5118408203125;0.26593017578125;12.89560380585519;14.774086206880963;0.18101800713418909;-0.63037109375;0.6396484375;-0.31884765625;1.875;13.8125;22.625;
1441975896135280;-0.20013427734375;0.79388427734375;0.510498046875;0.2626953125;12.842454790867912;14.788957069782489;0.1813484813648264;-0.61767578125;0.6357421875;-0.3310546875;7.625;12.375;23.125;
1441975896157281;-0.1968994140625;0.796142578125;0.50946044921875;0.26019287109375;12.795269324919046;14.798971935429666;0.17599293253641835;-0.61865234375;0.70361328125;-0.37158203125;12.875;9.9375;23.875;
1441975896180282;-0.19384765625;0.79827880859375;0.5084228515625;0.25811767578125;12.753505514076474;14.808475069704363;0.16998878398805964;-0.63818359375;0.72119140625;-0.3994140625;11.0;5.0;23.5625;
1441975896195283;-0.19049072265625;0.80047607421875;0.50726318359375;0.25604248046875;12.710060860423711;14.818281747123889;0.16246870609583552;-0.6240234375;0.69970703125;-0.4091796875;10.125;2.375;22.0;
1441975896217284;-0.18707275390625;0.80255126953125;0.50640869140625;0.25372314453125;12.66393385652416;14.826033984670625;0.1546652366612219;-0.57470703125;0.69384765625;-0.37841796875;12.25;2.375;21.4375;
1441975896240286;-0.183837890625;0.8045654296875;0.505615234375;0.25128173828125;12.61783076293971;14.833735885081504;0.14813219644101228;-0.5322265625;0.68994140625;-0.337890625;13.0;4.0625;21.375;
1441975896255287;-0.18060302734375;0.80657958984375;0.50469970703125;0.24884033203125;12.571953740714509;14.842159292227583;0.1417966185778806;-0.5107421875;0.67626953125;-0.32568359375;12.1875;5.0625;20.875;
1441975896277288;-0.1776123046875;0.80853271484375;0.504150390625;0.24603271484375;12.523661227719309;14.849108837025703;0.13732257174919113;-0.498046875;0.67919921875;-0.32958984375;12.75;5.0625;20.0;
1441975896300289;-0.17529296875;0.81011962890625;0.50390625;0.2427978515625;12.47581501872762;14.854720934760985;0.13718171376544194;-0.46044921875;0.7060546875;-0.3505859375;10.125;5.375;18.25;
1441975896315290;-0.17352294921875;0.81134033203125;0.50421142578125;0.239501953125;12.430752368603986;14.856994090368902;0.13896890343239424;-0.44677734375;0.7021484375;-0.38134765625;4.625;7.25;16.125;
1441975896338291;-0.17230224609375;0.812255859375;0.50445556640625;0.23663330078125;12.393809115456156;14.8591479661453;0.1422147751682107;-0.4404296875;0.69921875;-0.38916015625;-0.5;7.75;14.25;
1441975896360293;-0.17132568359375;0.81298828125;0.5047607421875;0.234130859375;12.362135143052967;14.860411497915756;0.14529626636294452;-0.44677734375;0.6767578125;-0.40087890625;-2.625;7.0;11.75;
1441975896375293;-0.170654296875;0.81365966796875;0.50494384765625;0.23199462890625;12.335987208328872;14.862349383120593;0.1490031175656925;-0.44091796875;0.68408203125;-0.40869140625;-3.375;5.5;9.375;
1441975896398295;-0.170166015625;0.81427001953125;0.5047607421875;0.23040771484375;12.316755140067562;14.865962154967622;0.15245945487097817;-0.4482421875;0.68017578125;-0.41552734375;-3.625;4.5;7.375;
1441975896420296;-0.16961669921875;0.8150634765625;0.5042724609375;0.2291259765625;12.299949479783486;14.871516194510862;0.155217032652452;-0.46435546875;0.6552734375;-0.40771484375;-1.8125;3.8125;6.0;
1441975896436297;-0.1690673828125;0.8160400390625;0.5032958984375;0.22821044921875;12.28675090777044;14.880097098732044;0.15773076974131037;-0.447265625;0.64013671875;-0.39208984375;1.0625;3.0;5.25;
1441975896457298;-0.16839599609375;0.81719970703125;0.50201416015625;0.22747802734375;12.274481487797267;14.890618491574797;0.1596045831850108;-0.4404296875;0.61279296875;-0.376953125;4.1875;2.5625;4.6875;
1441975896480299;-0.16796875;0.818115234375;0.50079345703125;0.22705078125;12.26708217849925;14.900138450063745;0.16150253448601384;-0.43359375;0.60888671875;-0.35791015625;7.3125;2.5;4.0625;
1441975896496300;-0.16790771484375;0.8187255859375;0.49969482421875;0.22735595703125;12.26937688930171;14.907984914109079;0.16256072772862112;-0.4462890625;0.6064453125;-0.34375;7.6875;2.375;2.875;
1441975896517302;-0.1683349609375;0.8192138671875;0.49822998046875;0.228515625;12.283348212029104;14.917644022802754;0.16409368915154426;-0.45263671875;0.5712890625;-0.3193359375;6.5;0.875;0.4375;
1441975896540303;-0.16912841796875;0.81951904296875;0.49639892578125;0.2308349609375;12.311391487019648;14.928475500731732;0.16439990710402058;-0.4619140625;0.5390625;-0.3125;7.625;-1.1875;-3.25;
1441975896556304;-0.17010498046875;0.8197021484375;0.4940185546875;0.23468017578125;12.356060670629265;14.941104857321953;0.16166337629830035;-0.4638671875;0.4970703125;-0.294921875;9.4375;-4.875;-7.75;
1441975896577305;-0.17144775390625;0.819580078125;0.4910888671875;0.24005126953125;12.418948303121619;14.955257570760196;0.1568340573979289;-0.462890625;0.4609375;-0.27978515625;12.6875;-10.375;-12.875;
1441975896600306;-0.17333984375;0.819091796875;0.48785400390625;0.24688720703125;12.500343961805184;14.969720449463862;0.15072535431444917;-0.4677734375;0.43408203125;-0.25927734375;15.9375;-15.9375;-19.0;
1441975896616307;-0.17626953125;0.81781005859375;0.48443603515625;0.2554931640625;12.606956079118618;14.983012833078316;0.14458103649813805;-0.46826171875;0.396484375;-0.24560546875;16.625;-21.0625;-25.6875;
1441975896637308;-0.18023681640625;0.8160400390625;0.48052978515625;0.26580810546875;12.73770048099959;14.998030503613165;0.13958780817998215;-0.49072265625;0.34814453125;-0.2197265625;15.9375;-25.9375;-34.1875;
1441975896660310;-0.18511962890625;0.8134765625;0.47625732421875;0.27752685546875;12.889852515981033;15.013186336613307;0.13565171344865978;-0.53466796875;0.30029296875;-0.19140625;17.125;-29.5625;-41.75;
1441975896676311;-0.1910400390625;0.81011962890625;0.47161865234375;0.29095458984375;13.066971771176139;15.028529410786888;0.13260541499545925;-0.56884765625;0.28515625;-0.17724609375;16.9375;-33.125;-49.875;
1441975896697312;-0.1976318359375;0.80609130859375;0.4664306640625;0.3057861328125;13.264166215468645;15.04523431381126;0.129986430200086;-0.6123046875;0.228515625;-0.1591796875;16.0;-37.375;-57.8125;
1441975896720313;-0.20501708984375;0.8011474609375;0.4610595703125;0.32171630859375;13.479499585456749;15.060957788858788;0.12857646121161342;-0.646484375;0.19873046875;-0.14697265625;17.3125;-42.125;-64.8125;
1441975896737314;-0.21319580078125;0.7952880859375;0.45513916015625;0.33880615234375;13.714310226034634;15.078214593432863;0.12934868439007227;-0.66943359375;0.1767578125;-0.14111328125;15.0625;-46.125;-71.9375;
1441975896757315;-0.22174072265625;0.78875732421875;0.44842529296875;0.3570556640625;13.966025668746724;15.098681044434601;0.1309430446585556;-0.7275390625;0.15478515625;-0.150390625;14.5;-50.5625;-78.9375;
1441975896780317;-0.2303466796875;0.7816162109375;0.4405517578125;0.376708984375;14.235963450776302;15.1242452183917;0.13217446306057598;-0.79248046875;0.15478515625;-0.15966796875;16.6875;-55.0;-85.5;
1441975896796318;-0.23736572265625;0.77435302734375;0.43280029296875;0.39581298828125;14.493527088759217;15.14465806936427;0.1246787892840047;-0.88134765625;0.173828125;-0.18896484375;21.6875;-61.375;-92.4375;
1441975896817319;-0.2442626953125;0.76568603515625;0.4246826171875;0.41668701171875;14.77401862238684;15.15815008517441;0.10811641977151931;-0.9931640625;0.18896484375;-0.224609375;25.5;-71.0625;-100.4375;
1441975896840320;-0.25067138671875;0.755859375;0.4158935546875;0.4390869140625;15.073255333793588;15.165035254463012;0.08040047369308749;-1.0830078125;0.17333984375;-0.22412109375;26.5;-82.25;-106.875;
1441975896856321;-0.25677490234375;0.7452392578125;0.40625;0.462158203125;15.383353009647957;15.16959387688666;0.04686934933444813;-1.1181640625;0.15966796875;-0.2060546875;29.75;-91.6875;-111.9375;
1441975896877322;-0.26275634765625;0.7340087890625;0.39569091796875;0.48529052734375;15.699323570300765;15.175323712368309;0.012321604785949746;-1.095703125;0.154296875;-0.18798828125;33.5625;-96.5625;-116.375;
1441975896900324;-0.26812744140625;0.72210693359375;0.38385009765625;0.5091552734375;16.026333112646256;15.178863130535321;17.96907304966933;-1.08740234375;0.158203125;-0.16650390625;37.1875;-97.875;-120.3125;
1441975896916324;-0.2720947265625;0.70953369140625;0.370849609375;0.53375244140625;16.360612347455596;15.166375119229748;17.900872950478195;-1.1435546875;0.125;-0.15185546875;43.0625;-102.25;-123.875;
1441975896937326;-0.2757568359375;0.695556640625;0.3577880859375;0.55865478515625;16.704014503674426;15.113508401012803;17.793498000975802;-1.259765625;0.15380859375;-0.169921875;52.125;-109.4375;-125.625;
1441975896960327;-0.2806396484375;0.67999267578125;0.3458251953125;0.5823974609375;17.047900666643265;14.993365246613587;17.632669475023924;-1.33984375;0.177734375;-0.15087890625;50.9375;-115.8125;-128.125;
1441975896982328;-0.287109375;0.66290283203125;0.3345947265625;0.60504150390625;17.393173669356685;14.725264197358252;17.33724842010696;-1.3544921875;0.2060546875;-0.119140625;37.5;-115.4375;-131.0;
1441975896997329;-0.2935791015625;0.64453125;0.322509765625;0.6279296875;17.729688562201986;13.700699358426238;16.284191988072195;-1.37890625;0.14501953125;-0.08056640625;24.75;-114.9375;-135.5;
1441975897020330;-0.2991943359375;0.62518310546875;0.309326171875;0.65106201171875;17.7747873373134;8.794437779421248;11.343643401432855;-1.40576171875;0.0400390625;-0.06689453125;25.8125;-119.3125;-140.1875;
1441975897044332;-0.30462646484375;0.60455322265625;0.2962646484375;0.6737060546875;17.4353367111536;7.396392530706816;9.914146073670294;-1.43212890625;0.03125;-0.06640625;31.5625;-125.0625;-144.25;
1441975897057332;-0.310302734375;0.58270263671875;0.28363037109375;0.6954345703125;17.060233923171282;7.088247654560036;9.580613360341085;-1.43408203125;0.04638671875;-0.056640625;28.5625;-129.1875;-145.75;
1441975897080334;-0.31561279296875;0.56024169921875;0.2703857421875;0.71649169921875;16.67900304705667;6.9601222090916535;9.425552601556966;-1.423828125;0.0361328125;-0.05908203125;22.6875;-132.0;-146.9375;
1441975897103335;-0.31964111328125;0.53741455078125;0.25640869140625;0.73699951171875;16.29722532591934;6.904863197754164;9.337214722113131;-1.38623046875;0.01025390625;-0.0595703125;24.25;-132.8125;-148.3125;
1441975897125336;-0.32232666015625;0.5145263671875;0.24200439453125;0.75677490234375;15.920519547840762;6.885979713270489;9.279624779452046;-1.35693359375;0.009765625;-0.06640625;29.9375;-134.5625;-148.25;
1441975897140337;-0.3245849609375;0.49114990234375;0.22796630859375;0.7755126953125;15.54777456591805;6.883278351560191;9.240086903346919;-1.3388671875;0.02392578125;-0.068359375;35.75;-134.375;-146.375;
1441975897162338;-0.326171875;0.46832275390625;0.21453857421875;0.7926025390625;15.193030946634309;6.889666933755954;9.210730873275494;-1.27001953125;0.02734375;-0.0458984375;33.875;-135.0;-143.3125;
1441975897185340;-0.32720947265625;0.44647216796875;0.2017822265625;0.8079833984375;14.860225390668326;6.9000486374084575;9.18651655925146;-1.18310546875;0.0078125;-0.02392578125;32.75;-130.1875;-135.4375;
1441975897200341;-0.32855224609375;0.42572021484375;0.1900634765625;0.82135009765625;14.551602462750829;6.9063382157525925;9.164420928415762;-1.083984375;0.0234375;-0.033203125;31.375;-123.375;-127.5;
1441975897247343;-0.329833984375;0.406494140625;0.17938232421875;0.83294677734375;14.270286051192246;6.911613202315311;9.145112547133886;-1.01416015625;0.0322265625;-0.02783203125;24.875;-114.3125;-119.375;
1441975897249343;-0.33013916015625;0.39361572265625;0.1715087890625;0.840576171875;14.080886224349703;6.917002526285363;9.128973323681969;-0.96484375;0.01318359375;-0.001953125;20.4375;-105.0625;-109.25;
1441975897260344;-0.3304443359375;0.38311767578125;0.16485595703125;0.84661865234375;13.926416270898182;6.920118400507792;9.113925667146507;-0.89599609375;0.0205078125;-0.01220703125;17.625;-94.0;-98.0;
1441975897291346;-0.33160400390625;0.3751220703125;0.15972900390625;0.85076904296875;13.809203604302288;6.9145967986807175;9.098671376700906;-0.830078125;0.05712890625;-0.037109375;13.9375;-81.5625;-86.5625;
1441975897297346;-0.3330078125;0.3702392578125;0.15625;0.85296630859375;13.736763281789267;6.9044303760577845;9.084472740284372;-0.77783203125;0.07373046875;-0.06298828125;5.0;-67.4375;-74.8125;
1441975897328348;-0.33251953125;0.370361328125;0.1539306640625;0.853515625;13.7277379547413;6.901897540854238;9.06951430289938;-0.74365234375;0.08203125;-0.11376953125;1.0625;-52.5;-58.8125;
1441975897344349;-0.33160400390625;0.37506103515625;0.15423583984375;0.85174560546875;13.784092692043785;6.899293275794179;9.059748413037365;-0.73486328125;0.14697265625;-0.2041015625;9.6875;-32.5625;-41.375;
1441975897359350;-0.3328857421875;0.3839111328125;0.15753173828125;0.84674072265625;13.902855955431425;6.876111193270123;9.048850287181864;-0.6689453125;0.3115234375;-0.2802734375;2.5;-12.1875;-22.6875;
1441975897380351;-0.336181640625;0.39752197265625;0.16363525390625;0.837890625;14.09208742480581;6.82883066138112;9.031532531926956;-0.6103515625;0.3701171875;-0.345703125;-17.125;10.1875;-3.1875;
1441975897402352;-0.33734130859375;0.4168701171875;0.17254638671875;0.826171875;14.363900458244261;6.788297884743574;9.018609663899941;-0.6708984375;0.3291015625;-0.44482421875;-31.125;31.6875;18.875;
1441975897419353;-0.33538818359375;0.44305419921875;0.1849365234375;0.810546875;14.73847219140604;6.759710337112415;9.013868271963792;-0.80419921875;0.41162109375;-0.54248046875;-26.9375;49.25;42.5;
1441975897440354;-0.33575439453125;0.4608154296875;0.19390869140625;0.79827880859375;14.999583855785989;6.719326876352425;9.000829521643684;-0.8876953125;0.7275390625;-0.72021484375;-25.375;69.9375;64.0625;
1441975897472356;-0.3328857421875;0.48663330078125;0.20574951171875;0.781005859375;15.37890222932125;6.680989717304005;8.983112464663257;-0.9931640625;0.84765625;-0.88671875;-29.1875;96.75;87.875;
1441975897479357;-0.326171875;0.521484375;0.22039794921875;0.75701904296875;15.89607066786675;6.633451483588379;8.948158691549269;-1.22314453125;0.80419921875;-0.90283203125;-22.5625;137.8125;130.625;
1441975897500358;-0.31707763671875;0.564453125;0.23980712890625;0.723388671875;16.564241989076763;6.5343826611843;8.872830572320023;-1.3466796875;0.8671875;-0.81689453125;-15.4375;187.25;179.0625;
1441975897516359;-0.30670166015625;0.61224365234375;0.26544189453125;0.67864990234375;17.366172784170516;6.21213487044844;8.602499439152485;-1.60107421875;0.92431640625;-0.779296875;-27.3125;239.375;234.5;
1441975897539360;-0.29302978515625;0.6617431640625;0.29736328125;0.6226806640625;17.681488091308506;16.449173784702612;0.9177896471024107;-1.90234375;1.009765625;-0.76611328125;-55.5;282.625;289.0;
1441975897560361;-0.27325439453125;0.7100830078125;0.330810546875;0.55816650390625;16.680661701566336;15.689078958397232;0.23591650133939895;-2.38037109375;0.876953125;-0.77392578125;-82.4375;313.125;345.1875;
1441975897582363;-0.24908447265625;0.754150390625;0.36260986328125;0.48748779296875;15.63475706623427;15.535601984722113;0.15832300616863001;-2.87744140625;0.7900390625;-0.93505859375;-82.3125;328.4375;387.0;
1441975897599363;-0.23065185546875;0.783203125;0.4013671875;0.4150390625;14.66476087650272;15.365675386078667;0.14663914948153053;-3.1494140625;1.35986328125;-1.22265625;-79.625;334.1875;404.625;
1441975897620365;-0.218505859375;0.79327392578125;0.4500732421875;0.346923828125;13.834285976256636;15.10967442273458;0.14828751226597744;-3.3017578125;1.78466796875;-1.21044921875;-159.6875;301.9375;381.25;
1441975897636366;-0.20318603515625;0.80035400390625;0.48504638671875;0.2877197265625;13.112681819370453;14.94412390522346;0.17555620159531798;-3.47607421875;0.923828125;-0.7666015625;-257.625;238.0;341.5625;
1441975897659367;-0.18731689453125;0.80133056640625;0.516357421875;0.23687744140625;12.496706347608606;14.781598398690004;0.19445310610452096;-3.33251953125;0.3984375;-0.76123046875;-184.5625;200.25;301.5625;
1441975897680368;-0.17608642578125;0.7921142578125;0.55242919921875;0.19061279296875;11.977157002689534;14.570831623023361;0.22586113478797618;-3.41162109375;0.5390625;-0.5244140625;-174.4375;154.5625;267.4375;
1441975897702369;-0.169189453125;0.76995849609375;0.59747314453125;0.14642333984375;11.532203422081839;14.27998703368653;0.2716368503977322;-3.216796875;0.43701171875;-0.33349609375;-227.625;128.0;227.6875;
1441975897719370;-0.161376953125;0.74212646484375;0.641357421875;0.108154296875;11.156713086120021;13.975909862032411;0.31115296870517306;-2.91650390625;0.0498046875;-0.31494140625;-312.4375;109.4375;198.4375;
