1441975968206402;0.10943603515625;-0.81878662109375;-0.5635986328125;0.00830078125;9.630101252923355;14.576089734345068;0.5467440156199529;-0.78125;-0.08251953125;-0.1669921875;-43.3125;107.1875;89.375;
1441975968228403;0.1162109375;-0.81268310546875;-0.57086181640625;0.0164794921875;9.607807320845762;14.523541657722392;0.6027507695330978;-0.57958984375;0.00634765625;-0.14404296875;-50.9375;88.0625;53.3125;
1441975968245404;0.12493896484375;-0.80487060546875;-0.57989501953125;0.01947021484375;9.652008187948134;14.460006625392836;0.6505502289881965;-0.38916015625;-0.02197265625;-0.12548828125;-66.875;64.5625;15.625;
1441975968274406;0.13433837890625;-0.79730224609375;-0.5882568359375;0.01861572265625;9.737422650103769;14.402563457894379;0.6885928887866607;-0.29931640625;-0.11474609375;-0.060546875;-74.8125;43.75;-16.9375;
1441975968288407;0.14447021484375;-0.7908935546875;-0.59454345703125;0.0147705078125;9.853487172420865;14.360685932347113;0.720382714941727;-0.24658203125;-0.06884765625;0.00830078125;-63.0;27.625;-36.125;
1441975968305408;0.15570068359375;-0.78466796875;-0.60003662109375;0.00701904296875;10.012696262940517;14.32576381517716;0.7438954675571856;-0.23046875;0.18701171875;-0.013671875;-43.5;17.0;-51.75;
1441975968326409;0.1683349609375;-0.77734375;-0.606201171875;-0.00439453125;10.217515342781327;14.286706656146595;0.7601914246859066;-0.31884765625;0.40771484375;-0.05859375;-34.625;4.6875;-67.1875;
1441975968348410;0.181640625;-0.7686767578125;-0.613037109375;-0.01898193359375;10.458871470440956;14.241422721468766;0.7668382332421151;-0.41064453125;0.55078125;-0.13720703125;-40.8125;-7.4375;-83.875;
1441975968365411;0.19329833984375;-0.76007080078125;-0.61956787109375;-0.033935546875;10.692287364569783;14.195648254782494;0.7628932237025172;-0.46923828125;0.5908203125;-0.19091796875;-49.125;-20.75;-98.0625;
1441975968386412;0.2041015625;-0.75341796875;-0.623046875;-0.0513916015625;10.93736348171907;14.169422777223033;0.7478465400470005;-0.53759765625;0.60546875;-0.1865234375;-45.1875;-31.4375;-106.375;
1441975968408414;0.21417236328125;-0.74896240234375;-0.6231689453125;-0.070556640625;11.18742280561358;14.16494104434225;0.7265697277483296;-0.52734375;0.60595703125;-0.15673828125;-21.875;-41.8125;-111.25;
1441975968426415;0.22296142578125;-0.745361328125;-0.62176513671875;-0.09063720703125;11.435193300176067;14.167807643794806;0.6975611493363314;-0.5791015625;0.65478515625;-0.13134765625;3.375;-47.0625;-112.0;
1441975968447416;0.231201171875;-0.7412109375;-0.62042236328125;-0.11077880859375;11.681338623992641;14.166081738269202;0.6648501007234027;-0.61279296875;0.72021484375;-0.12548828125;15.0625;-53.1875;-110.25;
1441975968468417;0.23931884765625;-0.73724365234375;-0.6180419921875;-0.1314697265625;11.931681253532583;14.1681833826734;0.630499997503163;-0.6962890625;0.67578125;-0.0927734375;13.125;-55.375;-107.6875;
1441975968485418;0.24810791015625;-0.7330322265625;-0.61480712890625;-0.1522216796875;12.18849832645909;14.1732764282804;0.6000653605708175;-0.75146484375;0.62646484375;-0.1162109375;18.875;-56.6875;-109.25;
1441975968507419;0.257568359375;-0.72821044921875;-0.6112060546875;-0.1728515625;12.451017713605028;14.177862583010839;0.5733479589669739;-0.80322265625;0.65087890625;-0.13720703125;20.75;-54.0625;-113.5625;
1441975968528420;0.26812744140625;-0.7227783203125;-0.60693359375;-0.1934814453125;12.723577838898178;14.184698146000876;0.5529463512204796;-0.849609375;0.537109375;-0.130859375;19.1875;-50.75;-115.6875;
1441975968545421;0.28045654296875;-0.7156982421875;-0.6029052734375;-0.213623046875;13.008704574883287;14.187125778020967;0.5418869463153009;-0.91796875;0.5986328125;-0.16162109375;18.625;-47.0;-122.8125;
1441975968567423;0.29437255859375;-0.70721435546875;-0.59918212890625;-0.23309326171875;13.302761969687067;14.186183936816448;0.5401443233506377;-0.95458984375;0.5009765625;-0.1552734375;8.875;-41.1875;-129.6875;
1441975968588424;0.310302734375;-0.69757080078125;-0.59490966796875;-0.25146484375;13.605455784269372;14.190839512215438;0.5554520442154804;-1.00390625;0.4765625;-0.14599609375;-0.25;-34.6875;-135.8125;
1441975968605425;0.32867431640625;-0.6866455078125;-0.5902099609375;-0.268798828125;13.920305161936644;14.203723462940927;0.5919783058069481;-1.02685546875;0.43212890625;-0.1357421875;-6.4375;-24.25;-142.9375;
1441975968627426;0.349365234375;-0.67205810546875;-0.586669921875;-0.28662109375;14.26680395779998;14.203253441007169;0.634781572145916;-1.12451171875;0.6259765625;-0.24609375;-15.125;-14.1875;-154.875;
1441975968648427;0.37164306640625;-0.65411376953125;-0.58447265625;-0.3040771484375;14.63240649661957;14.188081728828118;0.6818706086254754;-1.1884765625;0.6142578125;-0.291015625;-35.125;-16.75;-171.125;
1441975968665428;0.3939208984375;-0.6361083984375;-0.580322265625;-0.3216552734375;15.004061173333278;14.192635063251412;0.7415056177106938;-1.2001953125;0.4560546875;-0.27099609375;-55.25;-18.75;-179.4375;
1441975968687429;0.416259765625;-0.61907958984375;-0.5732421875;-0.33905029296875;15.375997655533038;14.240124613358695;0.8324075466654479;-1.21533203125;0.333984375;-0.21923828125;-47.375;-14.5;-182.8125;
1441975968708431;0.43768310546875;-0.60382080078125;-0.562744140625;-0.356689453125;15.741212793525607;14.349605635566991;0.9662212525056962;-1.24658203125;0.23876953125;-0.18896484375;-33.5625;-4.8125;-185.4375;
1441975968725432;0.4578857421875;-0.5882568359375;-0.551025390625;-0.37518310546875;16.10725078949363;14.503401233700357;1.135469300261261;-1.32470703125;0.3828125;-0.2490234375;-13.3125;1.75;-188.4375;
1441975968747433;0.47723388671875;-0.571533203125;-0.53948974609375;-0.3931884765625;16.4648339394349;14.712689046228174;1.363024190032954;-1.3369140625;0.4580078125;-0.203125;-4.9375;-2.0;-193.1875;
1441975968768434;0.4949951171875;-0.55450439453125;-0.5283203125;-0.410400390625;16.799362911425213;15.014801444456431;1.6830786330837533;-1.3427734375;0.40283203125;-0.201171875;-8.375;-6.125;-191.8125;
1441975968785435;0.51141357421875;-0.5380859375;-0.51593017578125;-0.427490234375;17.102200202583866;15.544308839501513;2.22183172737125;-1.3671875;0.3330078125;-0.1630859375;-8.8125;-9.4375;-184.75;
1441975968808436;0.5263671875;-0.52337646484375;-0.50164794921875;-0.4443359375;17.328596346710846;16.531795102380954;3.2048668859448943;-1.33935546875;0.228515625;-0.12841796875;-0.5;-8.0625;-180.875;
1441975968828438;0.5396728515625;-0.51007080078125;-0.48681640625;-0.4600830078125;17.410281695712133;17.999078527852337;4.660696165178498;-1.34033203125;0.189453125;-0.142578125;13.375;-2.0;-176.0625;
1441975968845439;0.55157470703125;-0.49761962890625;-0.47216796875;-0.474609375;17.32974642161681;1.3680607127733628;6.015901533728952;-1.3173828125;0.23486328125;-0.15234375;20.3125;1.625;-167.3125;
1441975968867440;0.56182861328125;-0.48638916015625;-0.457763671875;-0.4881591796875;17.155923355991714;2.2340226403144454;6.863421195618914;-1.25927734375;0.220703125;-0.13232421875;22.0625;3.1875;-157.5;
1441975968888441;0.56976318359375;-0.47674560546875;-0.4434814453125;-0.50140380859375;16.955989185508866;2.7519551787124623;7.3529196041873295;-1.201171875;0.2021484375;-0.1015625;26.3125;4.4375;-146.0625;
1441975968911442;0.57537841796875;-0.4686279296875;-0.429931640625;-0.51434326171875;16.762257232169684;3.090236631370189;7.654607250850446;-1.15966796875;0.201171875;-0.09130859375;35.3125;3.375;-134.375;
1441975968927443;0.57928466796875;-0.46112060546875;-0.4176025390625;-0.5267333984375;16.5825669947523;3.3413604549982536;7.867437448715734;-1.11328125;0.234375;-0.07568359375;43.1875;0.5625;-121.375;
1441975968948444;0.58319091796875;-0.45379638671875;-0.40679931640625;-0.537109375;16.414276427804726;3.515435294881134;8.01278720789453;-1.05712890625;0.26611328125;-0.08447265625;44.8125;-4.5625;-110.75;
1441975968965445;0.58624267578125;-0.4490966796875;-0.4012451171875;-0.54193115234375;16.31684178036086;3.587534045899302;8.07728246746415;-0.990234375;0.28515625;-0.10888671875;34.5;-4.625;-101.125;
1441975968987447;0.59063720703125;-0.4439697265625;-0.39837646484375;-0.54345703125;16.239013420961154;3.6156883890865874;8.12028875332357;-0.93359375;0.32275390625;-0.1123046875;14.4375;-3.0;-91.5;
1441975969008448;0.595947265625;-0.43878173828125;-0.3978271484375;-0.54229736328125;16.181149681850368;3.6109131247038735;8.147745112518665;-0.86962890625;0.31201171875;-0.08349609375;-9.25;-0.3125;-79.625;
1441975969025449;0.60113525390625;-0.434326171875;-0.39947509765625;-0.5389404296875;16.151218250294075;3.581252663167819;8.160618363471006;-0.818359375;0.27880859375;-0.056640625;-27.625;2.3125;-65.6875;
1441975969047450;0.60614013671875;-0.4306640625;-0.4031982421875;-0.533447265625;16.148685486409708;3.52739049510409;8.158676617527098;-0.77978515625;0.26416015625;-0.041015625;-39.5625;3.3125;-49.375;
1441975969068451;0.61065673828125;-0.427978515625;-0.40875244140625;-0.5262451171875;16.172864701596367;3.4530223727432348;8.142191275607564;-0.72802734375;0.2373046875;-0.0224609375;-49.6875;4.4375;-32.1875;
1441975969091453;0.6142578125;-0.42669677734375;-0.41595458984375;-0.517333984375;16.22625238467635;3.3531937244600813;8.103148312481023;-0.6982421875;0.21337890625;-0.01220703125;-57.0;5.0;-15.25;
1441975969115454;0.6168212890625;-0.426513671875;-0.42486572265625;-0.50701904296875;16.307177887837856;3.2309420845313306;8.044355461749978;-0.7060546875;0.21142578125;-0.02197265625;-60.3125;5.3125;1.1875;
1441975969128455;0.61822509765625;-0.4273681640625;-0.43548583984375;-0.49554443359375;16.414592007167094;3.0836810865509077;7.962270271418687;-0.71728515625;0.2001953125;-0.0361328125;-63.875;2.9375;17.5;
1441975969151456;0.61773681640625;-0.4296875;-0.44744873046875;-0.48333740234375;16.549491740470053;2.904439732367605;7.844283231098449;-0.7265625;0.18212890625;-0.048828125;-66.1875;-0.5625;34.0;
1441975969167457;0.615234375;-0.43353271484375;-0.46002197265625;-0.47113037109375;16.703230669435413;2.684606810624962;7.677060865103518;-0.76611328125;0.1708984375;-0.06494140625;-62.6875;-4.6875;50.5;
1441975969188458;0.6103515625;-0.43890380859375;-0.4732666015625;-0.459228515625;16.875295581900758;2.404315365487999;7.4390286958798795;-0.78271484375;0.142578125;-0.09521484375;-55.1875;-9.625;66.25;
1441975969211459;0.60272216796875;-0.44598388671875;-0.486572265625;-0.448486328125;17.05760689717886;2.031262435853164;7.092161819824351;-0.82275390625;0.12158203125;-0.1171875;-45.0;-16.125;81.5625;
1441975969227460;0.59246826171875;-0.45404052734375;-0.49896240234375;-0.44036865234375;17.233732122068258;1.5507769857424143;6.6173724369692;-0.876953125;0.08935546875;-0.13818359375;-30.0;-23.5;95.125;
1441975969248462;0.57916259765625;-0.4642333984375;-0.51068115234375;-0.4339599609375;17.393037427225206;0.7822461462651494;5.83288632442515;-0.9150390625;0.07080078125;-0.15673828125;-10.375;-30.75;106.375;
1441975969271463;0.56298828125;-0.47650146484375;-0.52142333984375;-0.42913818359375;17.489240887699346;17.55680950068168;4.570135925435977;-0.94775390625;0.05810546875;-0.173828125;10.4375;-36.875;115.5;
1441975969287464;0.5440673828125;-0.49102783203125;-0.53076171875;-0.4256591796875;17.459268966359755;16.09825299904815;3.0522739930694067;-0.9755859375;0.04931640625;-0.17138671875;31.5;-41.1875;123.9375;
1441975969308465;0.52264404296875;-0.50811767578125;-0.538330078125;-0.4229736328125;17.298057984266137;15.041553515592224;1.9145944121223062;-0.978515625;0.02783203125;-0.15673828125;53.3125;-43.125;132.375;
1441975969331466;0.4993896484375;-0.527587890625;-0.54388427734375;-0.42010498046875;17.05635843674431;14.488171809066865;1.2630226852353472;-0.9755859375;0.03369140625;-0.1318359375;74.5;-40.625;141.3125;
1441975969347467;0.47540283203125;-0.548583984375;-0.54791259765625;-0.4158935546875;16.77250200428276;14.2324902405543;0.9020339931122933;-0.96435546875;0.07373046875;-0.10498046875;91.4375;-33.6875;149.75;
1441975969368468;0.45159912109375;-0.56988525390625;-0.551025390625;-0.4095458984375;16.466761589146305;14.12632827861694;0.6933708435572175;-0.9794921875;0.12158203125;-0.09130859375;98.6875;-23.6875;156.8125;
1441975969391470;0.42877197265625;-0.5904541015625;-0.553955078125;-0.40087890625;16.15125432502205;14.09058039708091;0.5656023377413808;-0.9912109375;0.17236328125;-0.07373046875;96.1875;-12.9375;161.5625;
1441975969407471;0.4075927734375;-0.60931396484375;-0.557373046875;-0.3897705078125;15.833607776634329;14.084601673777014;0.48507987514454226;-1.00537109375;0.2265625;-0.05859375;86.4375;-3.125;163.8125;
1441975969430472;0.38861083984375;-0.62591552734375;-0.56170654296875;-0.37652587890625;15.52098474000173;14.088268311702665;0.43536783092773645;-1.03125;0.2734375;-0.05712890625;69.8125;5.8125;163.25;
1441975969451473;0.3720703125;-0.63995361328125;-0.56689453125;-0.36151123046875;15.219221585003877;14.093230244355723;0.40874797959665626;-1.0693359375;0.2958984375;-0.0546875;49.375;13.3125;160.0625;
1441975969469474;0.35821533203125;-0.651123046875;-0.57330322265625;-0.34515380859375;14.933143163164564;14.090889764110925;0.3984947292351218;-1.08447265625;0.3095703125;-0.04736328125;28.875;20.125;153.9375;
1441975969490475;0.34716796875;-0.6595458984375;-0.58074951171875;-0.3275146484375;14.663720764543104;14.082144121512918;0.4052454187756309;-1.0888671875;0.3056640625;-0.03662109375;7.0;26.0625;145.875;
1441975969511477;0.3392333984375;-0.66485595703125;-0.58978271484375;-0.3084716796875;14.411903310181359;14.061296808446588;0.42786118429797393;-1.0625;0.30322265625;-0.02880859375;-14.3125;32.4375;136.625;
1441975969527478;0.3355712890625;-0.66595458984375;-0.601318359375;-0.28704833984375;14.17971902226422;14.022223768482048;0.47337439732105757;-1.07470703125;0.3349609375;0.03173828125;-38.8125;40.0625;127.0625;
1441975969550479;0.33673095703125;-0.66143798828125;-0.6163330078125;-0.26336669921875;13.976392420428922;13.95269751239157;0.5389130799788632;-1.09521484375;0.39794921875;0.04541015625;-74.125;51.6875;114.75;
1441975969571480;0.34100341796875;-0.65264892578125;-0.6331787109375;-0.23858642578125;13.800511146117932;13.862300703924877;0.6169017161950998;-1.08837890625;0.35546875;0.04248046875;-119.1875;60.8125;100.3125;
1441975969587481;0.34619140625;-0.64202880859375;-0.64971923828125;-0.21417236328125;13.64542651336993;13.766686915334404;0.6980664978756802;-1.0908203125;0.25927734375;0.04736328125;-148.0625;65.6875;88.875;
1441975969610482;0.35174560546875;-0.6314697265625;-0.66412353515625;-0.19122314453125;13.51238554886912;13.682214723167615;0.7820162703368053;-1.0537109375;0.1826171875;0.03564453125;-154.625;64.875;81.25;
1441975969631483;0.3582763671875;-0.62139892578125;-0.67578125;-0.17010498046875;13.407180358978904;13.615182899210804;0.8720120705962986;-1.01318359375;0.21142578125;0.01953125;-144.3125;64.8125;71.375;
1441975969647484;0.366455078125;-0.610595703125;-0.68572998046875;-0.15081787109375;13.336909301575373;13.555741281463767;0.9666038678404736;-0.97900390625;0.2998046875;-0.0361328125;-130.4375;67.1875;57.625;
1441975969670486;0.3759765625;-0.5999755859375;-0.69342041015625;-0.13372802734375;13.298889971081898;13.510237144817646;1.0648704583252957;-0.96728515625;0.3154296875;-0.080078125;-125.6875;68.9375;41.5625;
1441975969691487;0.38934326171875;-0.5899658203125;-0.69671630859375;-0.12237548828125;13.338464323175193;13.497077092332827;1.171009259034599;-0.9541015625;0.291015625;-0.09130859375;-113.9375;70.6875;26.75;
1441975969707488;0.40313720703125;-0.58203125;-0.69708251953125;-0.1131591796875;13.3928320197281;13.510146880664479;1.2814106439096837;-0.97900390625;0.3212890625;-0.08154296875;-89.75;74.1875;14.75;
1441975969730489;0.41656494140625;-0.57574462890625;-0.69561767578125;-0.10577392578125;13.452987720865787;13.539927373441014;1.3900316030635245;-0.9814453125;0.3720703125;-0.11181640625;-68.3125;74.8125;4.25;
1441975969751490;0.4295654296875;-0.5706787109375;-0.6927490234375;-0.0997314453125;13.51501256022227;13.582683342434805;1.4975014825963462;-0.98046875;0.41943359375;-0.123046875;-51.3125;72.5625;-2.25;
1441975969767491;0.44287109375;-0.56585693359375;-0.68890380859375;-0.09564208984375;13.592123237806733;13.63426390705012;1.6037236419044065;-0.96142578125;0.49462890625;-0.1494140625;-39.75;69.5;-9.375;
1441975969790493;0.4566650390625;-0.56134033203125;-0.68389892578125;-0.09320068359375;13.682134332915771;13.697930211478457;1.7128870438156243;-0.94482421875;0.54248046875;-0.1875;-32.0625;65.5;-22.3125;
1441975969811494;0.47039794921875;-0.558349609375;-0.67718505859375;-0.09185791015625;13.770046539996734;13.781428913392812;1.8278890055045958;-0.951171875;0.55859375;-0.2119140625;-23.375;65.0;-32.0625;
1441975969827495;0.4837646484375;-0.55633544921875;-0.6693115234375;-0.0924072265625;13.862127162729378;13.87820633970021;1.941912644882137;-0.94873046875;0.630859375;-0.2529296875;-10.0;65.625;-38.5;
1441975969850496;0.49554443359375;-0.555908203125;-0.6607666015625;-0.09417724609375;13.942237725175168;13.982806583470008;2.0483093225973223;-0.97412109375;0.640625;-0.330078125;0.5625;58.875;-43.25;
1441975969871497;0.50494384765625;-0.55841064453125;-0.6510009765625;-0.09747314453125;14.001617858452091;14.0994385741437;2.142378317960823;-0.91015625;0.64697265625;-0.32080078125;14.5625;52.5625;-43.4375;
1441975969887498;0.51220703125;-0.5643310546875;-0.63946533203125;-0.10150146484375;14.031836345454838;14.233006503952181;2.2295966726880216;-0.82177734375;0.6875;-0.31689453125;37.375;44.8125;-41.5;
1441975969909499;0.51727294921875;-0.571533203125;-0.628173828125;-0.10577392578125;14.042326795021506;14.360140766591272;2.300541786918781;-0.7421875;0.7412109375;-0.3076171875;61.5625;42.75;-35.75;
1441975969931501;0.51934814453125;-0.57916259765625;-0.618408203125;-0.11175537109375;14.05098134296724;14.4651424751113;2.3382640292551415;-0.6484375;0.767578125;-0.28125;70.375;35.5625;-31.125;
1441975969946502;0.518798828125;-0.5882568359375;-0.60809326171875;-0.12274169921875;14.083509113781856;14.569543434003457;2.3446067937514075;-0.51171875;0.7099609375;-0.18798828125;78.5;19.125;-28.5625;
1441975969969503;0.51275634765625;-0.597412109375;-0.60272216796875;-0.13055419921875;14.071275522594773;14.61105870102647;2.2981939277912407;-0.67919921875;0.77783203125;-0.1259765625;101.125;-0.875;-20.3125;
1441975969991504;0.5062255859375;-0.60430908203125;-0.59991455078125;-0.13665771484375;14.058168424207276;14.624410012116183;2.242727383957163;-0.4716796875;0.84814453125;-0.177734375;84.5;-26.375;-10.1875;
1441975970006505;0.49884033203125;-0.61065673828125;-0.5977783203125;-0.14501953125;14.06618991755351;14.628743303554213;2.1716835350515398;-0.431640625;0.69140625;-0.103515625;63.9375;-28.1875;-0.1875;
1441975970029506;0.49163818359375;-0.614501953125;-0.5977783203125;-0.15301513671875;14.087586054894643;14.61064805463624;2.0940970852818626;-0.4794921875;0.66455078125;-0.06005859375;68.0625;-38.1875;-2.75;
1441975970051508;0.48590087890625;-0.6175537109375;-0.59735107421875;-0.16058349609375;14.114868527456215;14.599236664480783;2.0301377037740624;-0.4619140625;0.6943359375;-0.0966796875;49.875;-46.6875;-10.125;
1441975970066508;0.48211669921875;-0.62188720703125;-0.5941162109375;-0.16693115234375;14.130413715564819;14.620472410376188;1.996539843948808;-0.4375;0.55126953125;-0.0703125;44.625;-39.0625;-9.5625;
1441975970089510;0.4779052734375;-0.62518310546875;-0.5921630859375;-0.173828125;14.155911276623987;14.627136703798854;1.9522972860311816;-0.45068359375;0.51025390625;-0.126953125;50.6875;-21.8125;-9.125;
1441975970111511;0.47296142578125;-0.6279296875;-0.59124755859375;-0.18017578125;14.176974493859605;14.620651224699955;1.8995348006873183;-0.48095703125;0.5322265625;-0.10546875;46.0;-28.0;-11.0;
1441975970126512;0.46868896484375;-0.62762451171875;-0.59326171875;-0.1859130859375;14.212898700790749;14.585264014598527;1.8397690539961447;-0.521484375;0.59521484375;-0.14306640625;38.9375;-33.6875;-9.0625;
1441975970149513;0.46551513671875;-0.62652587890625;-0.59478759765625;-0.19244384765625;14.264305830402781;14.554917431652097;1.7866950857598793;-0.52392578125;0.52880859375;-0.12548828125;15.1875;-39.3125;-11.0;
1441975970171514;0.46246337890625;-0.6290283203125;-0.59228515625;-0.19921875;14.297928408603969;14.566714861004689;1.7526179094065855;-0.53564453125;0.3955078125;-0.1201171875;13.1875;-38.125;-13.0625;
1441975970186515;0.4600830078125;-0.62896728515625;-0.592041015625;-0.20556640625;14.344907814076473;14.555540162796143;1.7134321017917418;-0.55615234375;0.4580078125;-0.19287109375;38.3125;-27.5625;-11.9375;
1441975970209517;0.45843505859375;-0.626708984375;-0.59454345703125;-0.208984375;14.380353226255025;14.519493063081747;1.6757758513857683;-0.728515625;0.57421875;-0.17822265625;21.9375;-29.375;-17.4375;
1441975970231518;0.45733642578125;-0.6246337890625;-0.59613037109375;-0.21295166015625;14.42194487708093;14.492819751424557;1.6440853937682056;-0.78857421875;0.53173828125;-0.16015625;-4.5625;-24.75;-8.25;
1441975970246519;0.45574951171875;-0.62615966796875;-0.5941162109375;-0.2174072265625;14.446695621779725;14.504020370762856;1.6258333555280973;-0.79638671875;0.3759765625;-0.12158203125;-0.5;-20.75;-4.0625;
1441975970269520;0.45428466796875;-0.626953125;-0.59295654296875;-0.2213134765625;14.470922424018509;14.506700935138914;1.6059496471966794;-0.794921875;0.44873046875;-0.203125;24.625;-14.75;-3.0625;
1441975970291521;0.453857421875;-0.625732421875;-0.59326171875;-0.2249755859375;14.508265172952484;14.495549119401966;1.5864146990117003;-0.84326171875;0.51611328125;-0.21533203125;17.875;-15.3125;-4.875;
1441975970306522;0.45355224609375;-0.6240234375;-0.593994140625;-0.2283935546875;14.546419001760892;14.479609411544745;1.5659907054423725;-0.9013671875;0.4638671875;-0.197265625;3.75;-16.1875;-6.375;
1441975970329523;0.452880859375;-0.62384033203125;-0.59326171875;-0.2320556640625;14.5772742415607;14.478747935656504;1.5499346757064874;-0.88720703125;0.4365234375;-0.1591796875;0.4375;-14.8125;-6.0625;
1441975970351525;0.4522705078125;-0.62542724609375;-0.59112548828125;-0.23431396484375;14.586897409637235;14.49709154140085;1.5482951776941514;-0.845703125;0.46923828125;-0.17822265625;11.9375;-12.625;-7.3125;
1441975970366526;0.4521484375;-0.6259765625;-0.5906982421875;-0.23419189453125;14.582423435842294;14.502061668719818;1.5503872093413775;-0.77197265625;0.48828125;-0.24169921875;17.25;-6.625;-4.0625;
1441975970389527;0.4521484375;-0.62762451171875;-0.59014892578125;-0.2310791015625;14.545810828786973;14.514769380969858;1.5664063474494603;-0.66748046875;0.4921875;-0.2060546875;2.3125;-1.0;-2.375;
1441975970413528;0.45391845703125;-0.62811279296875;-0.5902099609375;-0.2261962890625;14.507500426424063;14.52790659457125;1.5988929549174125;-0.57763671875;0.5341796875;-0.22265625;-1.5625;10.0;5.0625;
1441975970427529;0.45599365234375;-0.62738037109375;-0.59124755859375;-0.22119140625;14.475812992574147;14.530036307537422;1.6282769813226103;-0.61083984375;0.53955078125;-0.20263671875;-13.5;20.75;3.125;
1441975970449530;0.45648193359375;-0.627197265625;-0.59228515625;-0.21783447265625;14.448669563023373;14.525341063315736;1.6393689397904776;-0.69140625;0.4833984375;-0.14892578125;-20.6875;22.75;7.5;
1441975970471532;0.4554443359375;-0.62640380859375;-0.59454345703125;-0.2161865234375;14.432900263410907;14.500755809524541;1.626134072313301;-0.7900390625;0.47314453125;-0.091796875;-10.5;16.9375;13.375;
1441975970488533;0.453857421875;-0.62481689453125;-0.5980224609375;-0.21453857421875;14.418354374368898;14.461387286522848;1.6025492538792;-0.884765625;0.52587890625;-0.060546875;-8.875;4.5;14.1875;
1441975970509534;0.45257568359375;-0.62371826171875;-0.60113525390625;-0.21173095703125;14.392089730103553;14.429034792755546;1.5880723805439039;-0.8603515625;0.56640625;-0.10498046875;-16.625;-4.875;12.5;
1441975970531535;0.4525146484375;-0.62359619140625;-0.60211181640625;-0.20953369140625;14.372527443186456;14.422177643068702;1.5913877968614762;-0.83349609375;0.53759765625;-0.14208984375;-19.0;-0.8125;17.125;
1441975970548536;0.45330810546875;-0.6239013671875;-0.6021728515625;-0.206787109375;14.350197672354502;14.428125297471588;1.6077670588793815;-0.8212890625;0.4794921875;-0.171875;-10.3125;5.9375;14.125;
1441975970569537;0.4542236328125;-0.62237548828125;-0.60400390625;-0.203857421875;14.336164446752605;14.414513636750554;1.616346614773808;-0.81787109375;0.54150390625;-0.22705078125;-9.0;10.875;8.875;
1441975970591538;0.45404052734375;-0.62066650390625;-0.60626220703125;-0.2027587890625;14.333979600947792;14.390935518362808;1.6076637685956974;-0.78564453125;0.494140625;-0.19921875;-21.9375;6.125;8.75;
1441975970608539;0.45343017578125;-0.618408203125;-0.60906982421875;-0.20269775390625;14.341532271194403;14.358571687847224;1.5888666312034319;-0.72314453125;0.4365234375;-0.1337890625;-16.1875;-2.875;6.6875;
1441975970629541;0.453857421875;-0.61578369140625;-0.61090087890625;-0.2042236328125;14.370421495151385;14.335760859633094;1.5756492349306435;-0.70751953125;0.435546875;-0.09765625;-16.125;-8.6875;3.5;
1441975970659542;0.454833984375;-0.6129150390625;-0.61248779296875;-0.2059326171875;14.404978384745817;14.31601833807615;1.5664817616827977;-0.787109375;0.42919921875;-0.10595703125;-11.0625;-8.125;-4.4375;
1441975970668543;0.45599365234375;-0.6109619140625;-0.61224365234375;-0.20965576171875;14.454188109300455;14.312888205552106;1.5597487261576255;-0.84423828125;0.43701171875;-0.11474609375;-11.9375;-6.875;-6.5625;
1441975970689544;0.45831298828125;-0.61016845703125;-0.609619140625;-0.21466064453125;14.51542013984799;14.337307975323323;1.569198240152188;-0.884765625;0.361328125;-0.0927734375;2.8125;-6.0;-8.6875;
1441975970719546;0.46087646484375;-0.6097412109375;-0.60736083984375;-0.21685791015625;14.550783902647025;14.364245675688451;1.5909849937538088;-0.990234375;0.46142578125;-0.17138671875;15.3125;-1.875;-19.375;
1441975970728546;0.46337890625;-0.6090087890625;-0.60626220703125;-0.216552734375;14.564664702191909;14.382804866722504;1.6166668754288827;-1.09912109375;0.64404296875;-0.1982421875;9.1875;8.1875;-16.125;
1441975970749547;0.46551513671875;-0.60833740234375;-0.60589599609375;-0.2149658203125;14.564625022515445;14.39499854986368;1.6410270797767714;-1.11767578125;0.615234375;-0.19482421875;-2.6875;13.875;-4.5;
1441975970779549;0.46612548828125;-0.6090087890625;-0.60552978515625;-0.21258544921875;14.542854208268892;14.4050710338236;1.657480480692933;-1.1259765625;0.62255859375;-0.18603515625;-7.25;16.0625;2.0625;
1441975970788550;0.466064453125;-0.61016845703125;-0.60565185546875;-0.2091064453125;14.505234054506909;14.41029914762502;1.67068408930307;-1.0458984375;0.625;-0.19189453125;-3.1875;13.9375;10.875;
1441975970809551;0.46630859375;-0.61077880859375;-0.6060791015625;-0.2054443359375;14.470364669268148;14.412506680088729;1.684932716154403;-0.96337890625;0.58447265625;-0.2275390625;-6.8125;12.0625;18.625;
1441975970831552;0.466552734375;-0.61053466796875;-0.60760498046875;-0.201171875;14.43449405590161;14.403249695613695;1.6955324902153839;-0.814453125;0.5673828125;-0.21484375;-10.5625;11.0;13.0625;
1441975970847553;0.46771240234375;-0.60919189453125;-0.6090087890625;-0.1982421875;14.421013213422569;14.394590455340671;1.7079644701832595;-0.6513671875;0.4619140625;-0.19189453125;-19.6875;9.0625;14.125;
1441975970869554;0.47003173828125;-0.60662841796875;-0.6103515625;-0.19635009765625;14.429022666620138;14.386987481369633;1.7248857262292996;-0.556640625;0.38037109375;-0.16357421875;-20.25;6.4375;4.1875;
1441975970891556;0.47320556640625;-0.604248046875;-0.61053466796875;-0.1954345703125;14.448956471363497;14.392750385034615;1.7504206154343447;-0.52197265625;0.3154296875;-0.12060546875;-22.0625;7.75;-4.5;
1441975970908557;0.47607421875;-0.60137939453125;-0.61138916015625;-0.1947021484375;14.471662462441943;14.390107144626185;1.7694942051235383;-0.5322265625;0.31884765625;-0.109375;-15.3125;11.75;-11.8125;
1441975970929558;0.477294921875;-0.5980224609375;-0.613525390625;-0.1954345703125;14.502209475606362;14.366840108446803;1.7636453064292985;-0.49755859375;0.353515625;-0.0966796875;-17.5;7.5625;-15.25;
1441975970951559;0.4759521484375;-0.594970703125;-0.61688232421875;-0.197509765625;14.530329071767898;14.32124241212253;1.7264282417733765;-0.462890625;0.36962890625;-0.06689453125;-17.0;-6.125;-17.125;
1441975970968560;0.472412109375;-0.59124755859375;-0.6217041015625;-0.20196533203125;14.570835268382755;14.247963501000456;1.6538256407947245;-0.46826171875;0.40283203125;-0.12939453125;-15.0;-26.625;-12.5625;
1441975970989561;0.468994140625;-0.58709716796875;-0.626220703125;-0.20794677734375;14.625626112013663;14.17269851168298;1.5750145808885294;-0.5146484375;0.3623046875;-0.16796875;-16.375;-49.4375;-9.6875;
1441975971011562;0.4678955078125;-0.5833740234375;-0.62799072265625;-0.21551513671875;14.704106655206672;14.128628543227077;1.519464279325823;-0.5791015625;0.33251953125;-0.1796875;-13.75;-54.875;-13.25;
1441975971034564;0.46759033203125;-0.580078125;-0.62823486328125;-0.22418212890625;14.79452942061393;14.099130740482067;1.4715201799754691;-0.74951171875;0.33154296875;-0.224609375;-3.3125;-45.3125;-23.125;
1441975971049565;0.46563720703125;-0.57733154296875;-0.62841796875;-0.234619140625;14.887735496892763;14.058710004607267;1.4006222553284933;-0.86376953125;0.30419921875;-0.2080078125;5.3125;-40.875;-25.4375;
1441975971071566;0.4630126953125;-0.5745849609375;-0.62811279296875;-0.24700927734375;14.993358766116007;14.011529568818226;1.3136327730208248;-0.87255859375;0.2685546875;-0.20458984375;14.5625;-51.875;-23.4375;
1441975971094567;0.46112060546875;-0.5732421875;-0.625244140625;-0.26055908203125;15.10805281371572;13.990617467206961;1.2399394059211026;-0.87939453125;0.2470703125;-0.1865234375;22.5625;-59.1875;-28.5;
1441975971109568;0.46002197265625;-0.5732421875;-0.62030029296875;-0.2740478515625;15.222757116112307;13.996446405495128;1.1857594542442231;-0.87109375;0.28466796875;-0.21435546875;37.4375;-54.125;-38.5625;
1441975971133569;0.46002197265625;-0.5733642578125;-0.6151123046875;-0.28515625;15.323840628778935;14.016132293646015;1.1553118540805265;-0.82568359375;0.287109375;-0.24365234375;47.125;-45.3125;-43.5625;
1441975971154571;0.460205078125;-0.57147216796875;-0.61199951171875;-0.2952880859375;15.424910979387441;14.007898729033153;1.1127234097099268;-0.7705078125;0.39306640625;-0.2392578125;41.375;-33.375;-48.25;
1441975971169571;0.4595947265625;-0.57000732421875;-0.60870361328125;-0.30572509765625;15.52212280404976;13.995559497369698;1.0612573249151727;-0.73583984375;0.37548828125;-0.16259765625;27.125;-33.875;-48.1875;
1441975971191573;0.45843505859375;-0.56878662109375;-0.60552978515625;-0.31585693359375;15.612057373995212;13.97807091807875;1.0038562020239268;-0.6513671875;0.36279296875;-0.14794921875;31.625;-36.1875;-48.1875;
1441975971214574;0.45770263671875;-0.56689453125;-0.60284423828125;-0.3253173828125;15.701152434137386;13.95376342600105;0.9464560316061337;-0.6728515625;0.45654296875;-0.134765625;33.375;-36.375;-50.9375;
1441975971229575;0.45806884765625;-0.56378173828125;-0.60064697265625;-0.333984375;15.79512211092368;13.92397821762782;0.8942621545942872;-0.71923828125;0.49365234375;-0.14501953125;26.625;-35.9375;-52.5625;
1441975971251576;0.45965576171875;-0.5604248046875;-0.597900390625;-0.3424072265625;15.896519405105046;13.90542733242765;0.8567002151924656;-0.82861328125;0.47509765625;-0.13671875;16.5;-32.5;-52.8125;
1441975971274577;0.460205078125;-0.55853271484375;-0.59423828125;-0.3509521484375;15.987554538106247;13.896430020492026;0.8185674628916667;-0.892578125;0.4189453125;-0.12744140625;14.625;-26.3125;-53.4375;
1441975971289578;0.45880126953125;-0.55853271484375;-0.58984375;-0.36016845703125;16.064527260838798;13.888585984327008;0.7664775500600943;-0.89794921875;0.38671875;-0.1015625;25.5;-23.375;-47.625;
1441975971311580;0.4561767578125;-0.55718994140625;-0.58648681640625;-0.370849609375;16.14956144948728;13.83528179598013;0.66816205834596;-0.81494140625;0.3955078125;-0.126953125;39.625;-28.4375;-43.3125;
1441975971335581;0.45343017578125;-0.55462646484375;-0.582763671875;-0.3837890625;16.25717557817307;13.751869493690663;0.5353540612712614;-0.8818359375;0.42041015625;-0.08984375;38.5625;-40.625;-46.625;
1441975971349582;0.44989013671875;-0.5538330078125;-0.57708740234375;-0.39739990234375;16.360795056817732;13.684617679031302;0.40389306314827417;-1.00048828125;0.39892578125;-0.0576171875;42.75;-48.375;-55.0625;
1441975971371583;0.44677734375;-0.55438232421875;-0.57037353515625;-0.40960693359375;16.452908965007904;13.6487593455822;0.3024691058746743;-1.0673828125;0.3896484375;-0.04443359375;58.25;-43.75;-54.0625;
1441975971394584;0.445556640625;-0.55560302734375;-0.562744140625;-0.41973876953125;16.54230441069167;13.66346097165054;0.258651353871951;-1.07763671875;0.40576171875;0.0068359375;62.125;-28.9375;-51.6875;
1441975971418586;0.446044921875;-0.55645751953125;-0.55487060546875;-0.428466796875;16.635529000003057;13.708268461258765;0.25440557022504673;-1.1162109375;0.36181640625;0.013671875;57.5625;-11.6875;-49.0;
1441975971431586;0.446044921875;-0.557373046875;-0.54803466796875;-0.43597412109375;16.71257175074532;13.747228623175005;0.2493401314454709;-1.18505859375;0.2275390625;0.052734375;50.0;1.0625;-42.5625;
1441975971447587;0.4442138671875;-0.55902099609375;-0.54290771484375;-0.442138671875;16.758061939186106;13.761361591816266;0.22090907977623528;-1.216796875;0.130859375;0.1279296875;46.1875;6.125;-28.1875;
1441975971470589;0.44158935546875;-0.5615234375;-0.538818359375;-0.446533203125;16.777521169241943;13.779036215151825;0.19937350112103497;-1.19189453125;0.11767578125;0.1982421875;45.125;7.125;-11.875;
1441975971491590;0.4395751953125;-0.56414794921875;-0.53594970703125;-0.44879150390625;16.779789332000128;13.810043918090082;0.20225003587694448;-1.1875;0.14111328125;0.21826171875;42.3125;11.1875;-1.25;
1441975971514591;0.43853759765625;-0.5665283203125;-0.5347900390625;-0.447998046875;16.760349991101627;13.855449641146933;0.23671982069155847;-1.23291015625;0.11767578125;0.236328125;31.75;18.875;8.75;
1441975971530592;0.4383544921875;-0.5694580078125;-0.53521728515625;-0.444091796875;16.71366313153508;13.92307442169087;0.3078191049324598;-1.21484375;0.1201171875;0.22265625;15.3125;26.0625;18.8125;
1441975971552593;0.4390869140625;-0.5726318359375;-0.53680419921875;-0.43731689453125;16.64447222824406;14.007385879481543;0.40913191166715357;-1.1669921875;0.15185546875;0.185546875;1.3125;34.0625;28.5625;
1441975971574595;0.44036865234375;-0.57598876953125;-0.539306640625;-0.42840576171875;16.5565390652697;14.09381737627016;0.522437088409074;-1.119140625;0.18994140625;0.13525390625;-11.625;40.8125;35.75;
1441975971591596;0.4425048828125;-0.57928466796875;-0.542724609375;-0.41729736328125;16.451891004799496;14.179179700871183;0.6463589481002407;-1.0693359375;0.20556640625;0.08642578125;-21.3125;45.25;41.9375;
1441975971611597;0.4453125;-0.58087158203125;-0.5482177734375;-0.40472412109375;16.34125336625642;14.223842018547343;0.7468125096054136;-1.001953125;0.25732421875;0.02978515625;-32.9375;49.1875;44.8125;
1441975971627598;0.4488525390625;-0.57867431640625;-0.55596923828125;-0.39324951171875;16.258218501952463;14.201613082611594;0.7969586670769904;-0.95263671875;0.30810546875;0.02978515625;-49.75;46.9375;44.4375;
1441975971650599;0.45184326171875;-0.5731201171875;-0.56439208984375;-0.3858642578125;16.222652354005426;14.11660453710928;0.7826276465335038;-0.97021484375;0.310546875;0.04541015625;-67.6875;32.4375;35.625;
1441975971671600;0.45318603515625;-0.56719970703125;-0.5711669921875;-0.383056640625;16.22084677539024;14.01016019403287;0.7250602187308623;-0.982421875;0.22900390625;0.0810546875;-68.6875;10.125;23.375;
1441975971694601;0.4521484375;-0.5638427734375;-0.5745849609375;-0.38409423828125;16.230751104298704;13.922699811942655;0.651209158075052;-0.91796875;0.17626953125;0.09326171875;-48.875;-7.4375;11.8125;
1441975971710602;0.44866943359375;-0.56329345703125;-0.5753173828125;-0.387939453125;16.240471030425457;13.852608928546502;0.563552963079119;-0.89697265625;0.18505859375;0.05859375;-15.5;-16.4375;5.25;
1441975971731604;0.4432373046875;-0.5655517578125;-0.57379150390625;-0.39312744140625;16.240742637442025;13.808825024560406;0.47799044985881894;-0.89404296875;0.1962890625;0.013671875;14.1875;-23.4375;4.375;
1441975971754605;0.4364013671875;-0.57012939453125;-0.5706787109375;-0.39862060546875;16.22804100093969;13.791529718930963;0.40266661737486786;-0.90673828125;0.2236328125;-0.0380859375;37.5;-26.4375;6.75;
1441975971770606;0.42962646484375;-0.57501220703125;-0.56768798828125;-0.40325927734375;16.207218398974963;13.78270462965385;0.33793117930577776;-0.91552734375;0.28564453125;-0.0986328125;52.8125;-26.8125;9.125;
1441975971792607;0.424560546875;-0.577880859375;-0.56634521484375;-0.40631103515625;16.189019708540886;13.761751817208559;0.2812280578495683;-0.91162109375;0.33984375;-0.1298828125;50.875;-25.1875;9.125;
1441975971814608;0.4215087890625;-0.5780029296875;-0.5672607421875;-0.40814208984375;16.178857691449878;13.714602961626282;0.22221713187915235;-0.912109375;0.3544921875;-0.1455078125;30.5;-24.6875;6.875;
1441975971830609;0.420166015625;-0.5760498046875;-0.56939697265625;-0.40924072265625;16.178826198380513;13.65297759248841;0.16537312441031;-0.89599609375;0.33056640625;-0.11962890625;6.75;-24.3125;4.0;
1441975971851610;0.41986083984375;-0.57318115234375;-0.5718994140625;-0.4100341796875;16.185439937021815;13.588530132273904;0.11331954781353101;-0.89599609375;0.296875;-0.087890625;-9.0625;-22.625;0.75;
1441975971874612;0.4202880859375;-0.570068359375;-0.5743408203125;-0.41058349609375;16.195908194808602;13.529357469974276;0.06989918283197433;-0.8916015625;0.27880859375;-0.052734375;-16.25;-19.125;-1.5625;
1441975971890613;0.42095947265625;-0.5670166015625;-0.57635498046875;-0.4112548828125;16.20995504188053;13.47575838580909;0.030984935461013722;-0.90234375;0.271484375;-0.0341796875;-18.6875;-15.875;-3.5;
1441975971911614;0.42169189453125;-0.56439208984375;-0.57769775390625;-0.41229248046875;16.22755748932555;13.430766369263443;17.996596280599757;-0.92626953125;0.26806640625;-0.0244140625;-17.0625;-13.5625;-5.0625;
1441975971934615;0.4222412109375;-0.56207275390625;-0.57843017578125;-0.413818359375;16.24829682834812;13.389439055763177;17.961267328479277;-0.94091796875;0.2646484375;-0.02197265625;-13.0;-12.8125;-6.5625;
1441975971950616;0.42266845703125;-0.56024169921875;-0.5784912109375;-0.41583251953125;16.272090501273176;13.354800973700554;17.92748904906591;-0.9599609375;0.25732421875;-0.03564453125;-8.6875;-13.1875;-7.6875;
1441975971971617;0.422607421875;-0.55908203125;-0.57806396484375;-0.41796875;16.292504083543683;13.32734210268895;17.89576913865074;-0.994140625;0.23681640625;-0.048828125;-3.5625;-14.0;-7.4375;
1441975971994619;0.42230224609375;-0.5587158203125;-0.57733154296875;-0.4197998046875;16.30717739217215;13.312534572330891;17.873699603587102;-0.994140625;0.23046875;-0.05126953125;1.3125;-13.375;-5.875;
1441975972010620;0.42205810546875;-0.5587158203125;-0.57659912109375;-0.42108154296875;16.317177330158895;13.30710536083915;17.861721617594423;-0.986328125;0.228515625;-0.05224609375;4.75;-11.0625;-3.1875;
1441975972031621;0.4219970703125;-0.5589599609375;-0.5760498046875;-0.42156982421875;16.321493074110155;13.31102777390526;17.861752576026696;-0.97900390625;0.22509765625;-0.04931640625;4.9375;-7.8125;-0.5625;
1441975972047622;0.42236328125;-0.55908203125;-0.5758056640625;-0.42132568359375;16.323183435872178;13.320115221409853;17.871546951698804;-0.96533203125;0.2265625;-0.041015625;2.625;-3.8125;2.125;
1441975972070623;0.4229736328125;-0.5594482421875;-0.5758056640625;-0.42034912109375;16.319604642000535;13.337851828437639;17.892818175644592;-0.94921875;0.21923828125;-0.02294921875;-1.0625;0.1875;4.0;
1441975972091624;0.4237060546875;-0.56024169921875;-0.57562255859375;-0.41864013671875;16.311118349075308;13.369756339575568;17.92897513153246;-0.9326171875;0.21630859375;-0.0068359375;-3.0625;4.4375;6.375;
1441975972107625;0.424560546875;-0.56146240234375;-0.575439453125;-0.41644287109375;16.298084272162214;13.41127834831649;17.97527948858581;-0.923828125;0.22412109375;-0.01171875;-3.25;8.375;8.3125;
1441975972130626;0.425537109375;-0.56304931640625;-0.57513427734375;-0.4136962890625;16.28072398407992;13.462999584223558;0.032321300482393484;-0.9140625;0.240234375;-0.00927734375;-3.0625;11.9375;9.75;
1441975972151628;0.42681884765625;-0.56488037109375;-0.57476806640625;-0.41046142578125;16.260577026188646;13.523258259265019;0.09931796274158491;-0.912109375;0.26904296875;-0.02099609375;-3.25;14.9375;10.0625;
1441975972174629;0.42864990234375;-0.5662841796875;-0.5745849609375;-0.4068603515625;16.2419164740306;13.582852551143084;0.17007850792765045;-0.9111328125;0.29248046875;-0.03955078125;-4.5625;17.5625;9.4375;
1441975972190630;0.4310302734375;-0.567138671875;-0.57470703125;-0.40289306640625;16.224749743554874;13.639314567645119;0.2428466885985062;-0.90869140625;0.30712890625;-0.044921875;-8.625;19.125;7.6875;
1441975972211631;0.4339599609375;-0.5673828125;-0.5751953125;-0.39874267578125;16.210429253618983;13.69030183569933;0.3150960043858678;-0.90673828125;0.32177734375;-0.0478515625;-13.625;19.875;5.625;
1441975972234632;0.43743896484375;-0.56683349609375;-0.57586669921875;-0.39471435546875;16.202967179134557;13.734527273117124;0.3846561553670836;-0.91015625;0.328125;-0.05615234375;-18.6875;20.0625;3.125;
1441975972249633;0.44122314453125;-0.56585693359375;-0.5765380859375;-0.3909912109375;16.201155137917183;13.774979902283693;0.4516708649673824;-0.9091796875;0.3203125;-0.0546875;-22.4375;19.625;0.5625;
1441975972271634;0.445068359375;-0.56451416015625;-0.5770263671875;-0.38775634765625;16.20540271604492;13.81157443859259;0.5141188484950878;-0.93408203125;0.31201171875;-0.05322265625;-24.0;19.0625;-1.8125;
1441975972294636;0.44866943359375;-0.563232421875;-0.57733154296875;-0.385009765625;16.21171900951697;13.845914471430838;0.571466664610465;-0.9384765625;0.2939453125;-0.04541015625;-23.125;18.0625;-3.4375;
1441975972310637;0.45208740234375;-0.56201171875;-0.577392578125;-0.38275146484375;16.220764339993394;13.879442666305305;0.6251539863941545;-0.94091796875;0.27880859375;-0.037109375;-20.1875;17.1875;-4.0;
1441975972331638;0.455078125;-0.56109619140625;-0.57720947265625;-0.38079833984375;16.228493572767142;13.913260417925391;0.6754209505432238;-0.9404296875;0.26171875;-0.02490234375;-17.375;16.4375;-4.0;
1441975972354639;0.45770263671875;-0.56036376953125;-0.57696533203125;-0.37896728515625;16.233970362371263;13.945563204925469;0.7220659586478985;-0.93994140625;0.25537109375;-0.02197265625;-13.75;16.0;-3.25;
1441975972370640;0.46014404296875;-0.55987548828125;-0.5767822265625;-0.3770751953125;16.236054907630084;13.978001246739572;0.7679528757372137;-0.93212890625;0.259765625;-0.0126953125;-11.5625;15.875;-2.5625;
1441975972393641;0.46240234375;-0.5592041015625;-0.57684326171875;-0.37518310546875;16.237170408705726;14.004083260235774;0.8082077256638525;-0.9384765625;0.2734375;-0.0224609375;-10.875;15.375;-1.9375;
1441975972414643;0.4644775390625;-0.55853271484375;-0.5770263671875;-0.37335205078125;16.23720780561243;14.02651137031943;0.8444551232941067;-0.9443359375;0.27490234375;-0.0146484375;-11.625;14.4375;-1.3125;
1441975972429644;0.46636962890625;-0.55792236328125;-0.5771484375;-0.3717041015625;16.23738939700934;14.047432167390099;0.8777817912408974;-0.9404296875;0.2744140625;-0.017578125;-11.25;13.375;-0.75;
1441975972453645;0.46795654296875;-0.55743408203125;-0.5772705078125;-0.37030029296875;16.237055338244367;14.065034850275469;0.9058369249212436;-0.939453125;0.27099609375;-0.02099609375;-10.4375;12.3125;-0.375;
1441975972474646;0.468994140625;-0.5570068359375;-0.577392578125;-0.369384765625;16.2373286549078;14.075106094206639;0.9231813774851125;-0.93994140625;0.27001953125;-0.02490234375;-8.5625;10.375;0.0;
1441975972489647;0.46942138671875;-0.55682373046875;-0.5775146484375;-0.3690185546875;16.237338056749056;14.078221127414093;0.9294753219265808;-0.94140625;0.27099609375;-0.02294921875;-5.625;7.75;0.0625;
1441975972513648;0.46942138671875;-0.55670166015625;-0.57757568359375;-0.369140625;16.23884464990833;14.075826871628829;0.9272468207695675;-0.93994140625;0.28173828125;-0.0185546875;-2.25;4.625;0.1875;
1441975972534650;0.4691162109375;-0.556640625;-0.57763671875;-0.36944580078125;16.239889255886613;14.069910919940568;0.919918094977439;-0.9462890625;0.291015625;-0.01904296875;0.5625;1.875;-0.25;
1441975972549650;0.4688720703125;-0.55645751953125;-0.5777587890625;-0.369873046875;16.2427266856314;14.062190781719641;0.911116811595822;-0.94921875;0.30908203125;-0.0322265625;1.6875;-0.5;-1.1875;
1441975972573652;0.46893310546875;-0.5557861328125;-0.5780029296875;-0.37042236328125;16.250601501517384;14.051286894915503;0.9014166427321233;-0.966796875;0.32373046875;-0.046875;1.0625;-2.125;-2.5625;
1441975972594653;0.46917724609375;-0.5545654296875;-0.57855224609375;-0.37103271484375;16.262208084740497;14.033294843439329;0.8874527807276209;-0.96337890625;0.31298828125;-0.05419921875;-1.625;-3.375;-4.25;
1441975972609654;0.46966552734375;-0.5531005859375;-0.57916259765625;-0.37164306640625;16.276276328789237;14.014714856750125;0.8744773342902619;-0.95361328125;0.30224609375;-0.04052734375;-4.5;-4.0625;-5.5;
1441975972633655;0.47027587890625;-0.551513671875;-0.57977294921875;-0.37225341796875;16.291651739966976;13.996078243585883;0.862148992010799;-0.93359375;0.28759765625;-0.0341796875;-5.6875;-4.1875;-6.4375;
1441975972654656;0.4710693359375;-0.5499267578125;-0.580322265625;-0.372802734375;16.307652729656258;13.980205404737895;0.8530996851983946;-0.92626953125;0.2822265625;-0.03515625;-6.5;-3.8125;-7.1875;
1441975972669657;0.4720458984375;-0.5482177734375;-0.58087158203125;-0.3731689453125;16.323908605906308;13.965990390908825;0.8471392344928906;-0.92138671875;0.27734375;-0.03857421875;-7.1875;-3.375;-7.6875;
1441975972693659;0.47314453125;-0.54644775390625;-0.58154296875;-0.373291015625;16.33888401349767;13.952144639436376;0.8431436083651707;-0.9150390625;0.27978515625;-0.03759765625;-8.3125;-2.8125;-8.0;
1441975972714660;0.4744873046875;-0.544677734375;-0.582275390625;-0.37310791015625;16.352594393799066;13.941749266720684;0.8443572035511998;-0.91015625;0.27587890625;-0.0400390625;-9.9375;-1.9375;-7.75;
1441975972729661;0.4759521484375;-0.54290771484375;-0.5830078125;-0.3726806640625;16.365093544906443;13.934064799950145;0.8493595592499015;-0.90771484375;0.2744140625;-0.044921875;-11.5625;-1.0625;-7.4375;
1441975972752662;0.47760009765625;-0.54107666015625;-0.58367919921875;-0.37213134765625;16.378197273718357;13.929348952664515;0.8582202551551328;-0.90625;0.27392578125;-0.05078125;-12.875;-0.375;-7.5;
1441975972774663;0.4793701171875;-0.5391845703125;-0.58441162109375;-0.37152099609375;16.391637263792518;13.924984183392814;0.8682947025938155;-0.91943359375;0.27587890625;-0.06494140625;-13.875;-0.125;-7.625;
1441975972789664;0.4810791015625;-0.53741455078125;-0.58489990234375;-0.37103271484375;16.405780106555753;13.92372286915734;0.8798971148143471;-0.92578125;0.2734375;-0.06494140625;-14.1875;-0.125;-7.75;
1441975972813666;0.482666015625;-0.535888671875;-0.58514404296875;-0.37078857421875;16.420484189039794;13.925330201857557;0.8918724144594018;-0.9365234375;0.2734375;-0.072265625;-13.0;-0.25;-8.0;
1441975972834667;0.4842529296875;-0.53436279296875;-0.585205078125;-0.370849609375;16.43810431354597;13.927717137618119;0.9031872670050834;-0.9619140625;0.27685546875;-0.083984375;-11.0625;-0.5625;-8.3125;
1441975972849668;0.485595703125;-0.5330810546875;-0.5849609375;-0.371337890625;16.45724257782663;13.931373295225537;0.9122212744940763;-0.962890625;0.25341796875;-0.0859375;-9.125;-1.375;-8.5;
1441975972873669;0.486572265625;-0.5322265625;-0.5843505859375;-0.372314453125;16.476825461175945;13.937097766580145;0.9185305682751581;-0.9482421875;0.23046875;-0.08154296875;-6.125;-2.0;-7.9375;
1441975972894670;0.48699951171875;-0.53216552734375;-0.58319091796875;-0.37353515625;16.49244971147838;13.95045554392982;0.9263363538783074;-0.9404296875;0.2109375;-0.06201171875;-1.0;-1.5;-6.9375;
1441975972909671;0.48712158203125;-0.53302001953125;-0.58154296875;-0.37481689453125;16.502951184797055;13.97589041413691;0.9410804624616169;-0.9208984375;0.20361328125;-0.05908203125;5.4375;-0.375;-5.4375;
1441975972933672;0.4871826171875;-0.5340576171875;-0.579833984375;-0.37591552734375;16.510747950977677;14.004663675393104;0.9588427085198818;-0.9296875;0.22607421875;-0.06787109375;10.375;1.0;-4.6875;
1441975972954674;0.48748779296875;-0.534912109375;-0.5782470703125;-0.376708984375;16.518048838409914;14.035051388888615;0.9807098393275587;-0.94873046875;0.255859375;-0.076171875;11.3125;1.8125;-4.9375;
1441975972969674;0.48809814453125;-0.535400390625;-0.57672119140625;-0.37750244140625;16.52879768027622;14.065170837128878;1.0044193684542313;-0.9580078125;0.26318359375;-0.08154296875;8.625;2.4375;-5.625;
1441975972993676;0.48883056640625;-0.53558349609375;-0.57525634765625;-0.378662109375;16.54456706294155;14.091223553456878;1.024361746034392;-0.96826171875;0.25537109375;-0.08251953125;6.625;2.4375;-6.9375;
1441975973014677;0.4891357421875;-0.5360107421875;-0.57330322265625;-0.3804931640625;16.563398986005044;14.117988788405839;1.0397470568543346;-0.939453125;0.20654296875;-0.06298828125;6.3125;2.5;-6.6875;
1441975973030678;0.4886474609375;-0.53753662109375;-0.5706787109375;-0.38299560546875;16.578718329317162;14.151516978783771;1.0525213417450316;-0.89599609375;0.1455078125;-0.0322265625;11.8125;3.0;-4.75;
1441975973053679;0.4873046875;-0.540771484375;-0.5672607421875;-0.38519287109375;16.57903680069031;14.204249559495238;1.0757647689667789;-0.84814453125;0.10595703125;0.00439453125;21.8125;4.8125;-1.1875;
1441975973074680;0.48602294921875;-0.54473876953125;-0.56396484375;-0.385986328125;16.563219210749942;14.270242163075899;1.114815528322136;-0.8056640625;0.15283203125;0.00244140625;30.75;9.125;1.625;
1441975973089681;0.4859619140625;-0.5478515625;-0.5616455078125;-0.38525390625;16.54296200180246;14.336557502725896;1.167407336396386;-0.806640625;0.23681640625;-0.005859375;29.0;14.6875;2.5625;
1441975973113683;0.48736572265625;-0.548828125;-0.56085205078125;-0.3831787109375;16.527657524013204;14.385905276429286;1.2217645574294327;-0.82568359375;0.2763671875;-0.0283203125;16.3125;17.625;1.25;
1441975973134684;0.48956298828125;-0.5484619140625;-0.560791015625;-0.380859375;16.520298908192814;14.423840821708856;1.2736983429863606;-0.853515625;0.25537109375;-0.021484375;-2.0625;18.5;0.3125;
1441975973149685;0.49163818359375;-0.54833984375;-0.560546875;-0.3787841796875;16.512874930816547;14.463371288265943;1.3249094082324748;-0.87060546875;0.18310546875;-0.00341796875;-11.5625;18.5;1.875;
1441975973172686;0.492919921875;-0.54962158203125;-0.5592041015625;-0.377197265625;16.498934083258398;14.51744571656781;1.379754599352603;-0.86376953125;0.140625;0.0244140625;-8.625;20.3125;4.1875;
1441975973194687;0.4940185546875;-0.552001953125;-0.556884765625;-0.375732421875;16.479177632973983;14.590464287008928;1.4466672721647373;-0.859375;0.146484375;0.021484375;2.125;22.625;6.5;
1441975973209688;0.49505615234375;-0.5546875;-0.55438232421875;-0.37420654296875;16.45604116752896;14.66584272144945;1.5145282234856021;-0.87158203125;0.1806640625;-0.0029296875;9.75;25.5;5.6875;
1441975973232689;0.49639892578125;-0.55694580078125;-0.55181884765625;-0.37274169921875;16.43651876098076;14.741300462603693;1.5842477314376933;-0.8388671875;0.19970703125;-0.01025390625;11.1875;26.5625;4.3125;
1441975973254691;0.49749755859375;-0.55914306640625;-0.54901123046875;-0.37213134765625;16.42329583237432;14.813243884232598;1.646697384911221;-0.81884765625;0.1826171875;-0.0263671875;9.4375;25.5625;3.0625;
1441975973269692;0.4979248046875;-0.56182861328125;-0.54559326171875;-0.37261962890625;16.41398051186626;14.885160078082064;1.7007831558195816;-0.80712890625;0.1669921875;-0.03564453125;12.4375;22.75;0.9375;
1441975973292693;0.4981689453125;-0.56475830078125;-0.54156494140625;-0.37359619140625;16.40649393170356;14.963802847951218;1.7571938663084463;-0.8115234375;0.19580078125;-0.044921875;20.8125;19.4375;-2.0;
1441975973315694;0.49871826171875;-0.56732177734375;-0.53759765625;-0.37481689453125;16.40356621159771;15.042825381292717;1.8153557051183644;-0.82373046875;0.22607421875;-0.0810546875;25.125;17.5;-5.3125;
1441975973329695;0.49932861328125;-0.5692138671875;-0.53363037109375;-0.37677001953125;16.41103296223279;15.118851121370241;1.8705057383273649;-0.82373046875;0.20703125;-0.10205078125;23.5625;15.8125;-7.4375;
1441975973359697;0.49957275390625;-0.57110595703125;-0.529541015625;-0.37939453125;16.422821872432447;15.192067210509762;1.9194773608503894;-0.82958984375;0.150390625;-0.09912109375;22.75;12.625;-7.6875;
1441975973376698;0.49945068359375;-0.57330322265625;-0.52520751953125;-0.38226318359375;16.43322365171469;15.266157507606707;1.9659865128632672;-0.81689453125;0.10888671875;-0.0888671875;25.875;10.875;-6.6875;
1441975973389698;0.4993896484375;-0.57586669921875;-0.52020263671875;-0.38525390625;16.441548139827937;15.35388283517489;2.02297386332778;-0.78466796875;0.087890625;-0.064453125;29.3125;11.625;-5.25;
1441975973412700;0.49908447265625;-0.5791015625;-0.514404296875;-0.3885498046875;16.446270644962866;15.453902911722338;2.086443824350037;-0.77587890625;0.05419921875;-0.0712890625;32.3125;13.5625;-4.5;
1441975973435701;0.49859619140625;-0.5826416015625;-0.5084228515625;-0.39178466796875;16.446760466264955;15.555511966152622;2.14974923595;-0.828125;0.0654296875;-0.08642578125;38.375;15.8125;-4.875;
1441975973449702;0.4981689453125;-0.58612060546875;-0.50238037109375;-0.39495849609375;16.445975938725113;15.658750360041001;2.215043721138052;-0.8486328125;0.083984375;-0.09326171875;40.5625;17.0625;-4.6875;
1441975973472703;0.49737548828125;-0.58984375;-0.49603271484375;-0.3984375;16.444328857060974;15.76268538318271;2.2775087007292893;-0.87255859375;0.06103515625;-0.10546875;39.6875;17.375;-3.625;
1441975973495705;0.49609375;-0.5938720703125;-0.48956298828125;-0.40191650390625;16.43889057686427;15.862077567327058;2.332780448959751;-0.92333984375;0.06201171875;-0.1142578125;42.8125;17.1875;-3.1875;
1441975973516706;0.49481201171875;-0.59765625;-0.4833984375;-0.4053955078125;16.43457364909679;15.955786254096259;2.3839518669661435;-0.9296875;0.0927734375;-0.12451171875;45.875;16.5;-3.1875;
1441975973532707;0.4930419921875;-0.60150146484375;-0.477294921875;-0.40911865234375;16.431106202236755;16.042217478678616;2.425721289049536;-0.890625;0.06005859375;-0.10791015625;43.9375;16.125;-1.875;
1441975973555708;0.49041748046875;-0.60595703125;-0.4710693359375;-0.412841796875;16.422434170395526;16.11895506551807;2.4531799896126207;-0.85791015625;0.02880859375;-0.08642578125;45.4375;15.3125;0.875;
1441975973576709;0.4874267578125;-0.61065673828125;-0.46514892578125;-0.41619873046875;16.408979865092217;16.184229359757346;2.469323063899392;-0.8203125;0.03955078125;-0.083984375;50.0625;14.6875;3.75;
1441975973592710;0.48388671875;-0.61541748046875;-0.459228515625;-0.4197998046875;16.397181726291834;16.242495912758624;2.4759456142089626;-0.7763671875;0.05517578125;-0.10498046875;49.4375;13.0;5.6875;
1441975973615711;0.4796142578125;-0.62017822265625;-0.453125;-0.42431640625;16.393267638288425;16.296859456834916;2.4733617837279893;-0.78125;0.05859375;-0.12109375;51.5;9.75;6.6875;
1441975973636713;0.474609375;-0.62493896484375;-0.447265625;-0.42919921875;16.393340328905644;16.339089113723645;2.4561546574946544;-0.818359375;0.0615234375;-0.15576171875;55.9375;3.875;6.1875;
1441975973652713;0.46929931640625;-0.6298828125;-0.44158935546875;-0.43365478515625;16.3889590357062;16.372934184431315;2.4308424519306904;-0.8154296875;0.09765625;-0.19287109375;58.375;-2.125;6.0;
1441975973675715;0.46392822265625;-0.6341552734375;-0.436767578125;-0.43804931640625;16.39055767851365;16.39268283566282;2.3958464430789266;-0.814453125;0.14990234375;-0.26953125;57.75;-7.0625;5.5;
1441975973696716;0.45849609375;-0.63763427734375;-0.4326171875;-0.44287109375;16.40289829405995;16.402785897102223;2.3540908203050543;-0.82568359375;0.17041015625;-0.31884765625;53.0;-13.5;4.6875;
1441975973712717;0.452880859375;-0.63983154296875;-0.4293212890625;-0.4486083984375;16.434003176801614;16.39991277094143;2.3024579901133104;-0.837890625;0.16796875;-0.36279296875;49.25;-22.25;3.5625;
1441975973735718;0.447265625;-0.6405029296875;-0.427001953125;-0.4554443359375;16.487183540614225;16.383428999232237;2.241462687429839;-0.8603515625;0.17822265625;-0.4130859375;45.375;-34.875;0.125;
1441975973756719;0.4412841796875;-0.640625;-0.42413330078125;-0.4637451171875;16.55628944633592;16.3727484734048;2.181079667807409;-0.85546875;0.12890625;-0.40234375;40.3125;-45.3125;-1.125;
1441975973772720;0.43365478515625;-0.6422119140625;-0.4195556640625;-0.4727783203125;16.619047134087623;16.366647343425953;2.109033573948945;-0.82666015625;0.03955078125;-0.345703125;45.3125;-48.625;-0.4375;
1441975973795722;0.425048828125;-0.64501953125;-0.41412353515625;-0.48150634765625;16.669176008982017;16.356970284283694;2.0252888854860083;-0.81005859375;0.05224609375;-0.3115234375;61.375;-45.625;1.625;
1441975973816723;0.41644287109375;-0.64776611328125;-0.40875244140625;-0.4898681640625;16.716426042490074;16.34163657096014;1.937202542072368;-0.80712890625;0.115234375;-0.29931640625;70.875;-41.4375;1.75;
1441975973832724;0.408447265625;-0.649658203125;-0.40386962890625;-0.49810791015625;16.769151508974858;16.322082449610168;1.850929121489549;-0.8544921875;0.15283203125;-0.29736328125;69.9375;-39.625;0.4375;
1441975973855725;0.40020751953125;-0.65216064453125;-0.39935302734375;-0.50506591796875;16.805966500610886;16.284557174306215;1.748726306621444;-0.91015625;0.11865234375;-0.259765625;64.0;-39.0625;0.4375;
1441975973876726;0.39288330078125;-0.655029296875;-0.39569091796875;-0.510009765625;16.822698611264073;16.239908952880366;1.6491787306627592;-0.90283203125;0.16162109375;-0.2431640625;62.3125;-33.0;3.75;
1441975973892727;0.3875732421875;-0.65679931640625;-0.3939208984375;-0.51318359375;16.833228056465433;16.186407858270925;1.560515839965532;-0.89453125;0.21435546875;-0.25732421875;53.125;-25.6875;4.6875;
1441975973915729;0.38336181640625;-0.65802001953125;-0.3931884765625;-0.51531982421875;16.839061701502597;16.128147805743478;1.4779223072684202;-0.94775390625;0.1865234375;-0.24951171875;33.4375;-21.125;6.5625;
1441975973936730;0.3792724609375;-0.6593017578125;-0.39312744140625;-0.5167236328125;16.837321371355586;16.057664085248067;1.3873087864370715;-0.97900390625;0.1513671875;-0.25927734375;21.8125;-19.1875;9.25;
1441975973952731;0.375244140625;-0.6605224609375;-0.3939208984375;-0.51751708984375;16.829430031370674;15.970893940264265;1.2850243937313302;-1.00048828125;0.16357421875;-0.24951171875;18.125;-16.8125;12.5;
1441975973975732;0.3712158203125;-0.66180419921875;-0.3955078125;-0.51751708984375;16.812306276939985;15.870694060687681;1.1736436165576165;-0.99951171875;0.17529296875;-0.240234375;12.8125;-15.875;15.5625;
1441975973996733;0.36724853515625;-0.6627197265625;-0.39849853515625;-0.516845703125;16.788933330434997;15.745890009234293;1.0449617249404326;-1.0107421875;0.2041015625;-0.24169921875;8.875;-14.75;18.5625;
1441975974012734;0.3634033203125;-0.66326904296875;-0.4029541015625;-0.51544189453125;16.757641693204256;15.599546777117297;0.9026008927383553;-1.02490234375;0.23583984375;-0.228515625;1.125;-15.0625;21.6875;
1441975974043736;0.35992431640625;-0.66326904296875;-0.4078369140625;-0.51409912109375;16.727933201240592;15.454245089491947;0.7650802824814567;-1.06494140625;0.255859375;-0.24365234375;-7.375;-17.375;26.625;
1441975974056737;0.35565185546875;-0.66357421875;-0.4119873046875;-0.5133056640625;16.696858682386345;15.316699878448793;0.6282056888816377;-1.0576171875;0.2060546875;-0.240234375;-12.0;-19.1875;29.25;
1441975974072738;0.35101318359375;-0.66375732421875;-0.4150390625;-0.513916015625;16.67682667154293;15.191011651083713;0.49532891715284466;-1.08642578125;0.2041015625;-0.2236328125;-5.0;-20.0;30.6875;
1441975974095739;0.34442138671875;-0.66534423828125;-0.4156494140625;-0.5157470703125;16.6544056543841;15.088838699505565;0.36509902208068773;-1.1513671875;0.142578125;-0.20751953125;2.3125;-22.6875;31.25;
1441975974118740;0.336181640625;-0.6683349609375;-0.41534423828125;-0.517578125;16.61697483797775;14.996655318489918;0.23294280578886248;-1.17626953125;0.12744140625;-0.220703125;22.5;-24.0625;33.25;
1441975974132741;0.3275146484375;-0.67138671875;-0.4150390625;-0.5194091796875;16.575314869688846;14.905773070029214;0.10044736492326364;-1.17822265625;0.1982421875;-0.23828125;34.5;-23.875;35.625;
1441975974156742;0.31927490234375;-0.67388916015625;-0.41510009765625;-0.52130126953125;16.53612709273034;14.815143663211536;17.971974240568592;-1.169921875;0.2236328125;-0.236328125;35.5625;-24.5625;36.25;
1441975974176743;0.31170654296875;-0.67572021484375;-0.41485595703125;-0.523681640625;16.507150326896834;14.731955754829311;17.8525810463856;-1.1630859375;0.23095703125;-0.2255859375;32.1875;-25.75;34.75;
1441975974192744;0.30401611328125;-0.67791748046875;-0.41375732421875;-0.52618408203125;16.478242867908612;14.666209477331357;17.746156278212585;-1.162109375;0.19482421875;-0.20068359375;30.1875;-26.3125;32.0;
1441975974214746;0.29638671875;-0.67987060546875;-0.41192626953125;-0.5294189453125;16.458292771178193;14.605942674886625;17.64180651154592;-1.1806640625;0.2099609375;-0.21826171875;34.9375;-25.75;30.25;
1441975974236747;0.28839111328125;-0.68243408203125;-0.40850830078125;-0.53314208984375;16.442588365215304;14.567729519009497;17.55032828182464;-1.20751953125;0.1982421875;-0.2041015625;38.1875;-27.0625;27.375;
1441975974252748;0.28033447265625;-0.685302734375;-0.4039306640625;-0.53729248046875;16.432708661958966;14.54507014444402;17.46856770479875;-1.26123046875;0.19580078125;-0.2451171875;46.875;-27.8125;25.0625;
1441975974274749;0.27288818359375;-0.6878662109375;-0.39837646484375;-0.5419921875;16.436044615054463;14.533510234379678;17.39610991456497;-1.2802734375;0.22021484375;-0.23583984375;53.3125;-26.3125;20.5625;
1441975974297750;0.26580810546875;-0.68994140625;-0.39166259765625;-0.54779052734375;16.457061385089432;14.52514325831239;17.32282213997896;-1.3095703125;0.20361328125;-0.22607421875;55.75;-25.75;14.5625;
1441975974312751;0.25897216796875;-0.69189453125;-0.3843994140625;-0.5535888671875;16.482697656792084;14.523818452049165;17.255742162551126;-1.33544921875;0.18359375;-0.2109375;59.375;-27.75;8.125;
1441975974334753;0.25274658203125;-0.6944580078125;-0.37615966796875;-0.5589599609375;16.510808364322585;14.551352819700924;17.215887549336923;-1.35595703125;0.23388671875;-0.20703125;61.375;-26.5;1.5625;
1441975974357754;0.24359130859375;-0.69818115234375;-0.36566162109375;-0.56536865234375;16.53444567644457;14.583555214021143;17.15777842926385;-1.32421875;0.23681640625;-0.265625;62.9375;-24.3125;-3.5625;
1441975974379755;0.23260498046875;-0.7015380859375;-0.35394287109375;-0.57318115234375;16.565094197364342;14.595059596197974;17.06595922367865;-1.28857421875;0.2919921875;-0.28173828125;85.625;-28.9375;-4.25;
1441975974394756;0.22283935546875;-0.70135498046875;-0.3433837890625;-0.5836181640625;16.631457069076408;14.527212439203119;16.905280288841595;-1.3076171875;0.35595703125;-0.296875;98.0;-38.75;-9.1875;
1441975974418757;0.21148681640625;-0.704345703125;-0.3311767578125;-0.59130859375;16.66309911814774;14.531849544040423;16.804406956554416;-1.45849609375;0.30224609375;-0.095703125;88.1875;-46.4375;-14.625;
1441975974432758;0.19281005859375;-0.7161865234375;-0.3125;-0.59356689453125;16.60820081981797;14.729791149151174;16.839479969646344;-1.57421875;-0.05908203125;0.0791015625;102.875;-24.3125;0.3125;
1441975974463760;0.1708984375;-0.73260498046875;-0.29559326171875;-0.5888671875;16.453482062174356;14.980717285261381;16.925066819775825;-1.6708984375;-0.0703125;0.09228515625;164.125;22.6875;29.6875;
1441975974477761;0.15185546875;-0.75653076171875;-0.2822265625;-0.57012939453125;16.14890489152488;15.345629981473946;17.157435043375663;-1.71142578125;0.513671875;0.650390625;171.6875;69.3125;57.8125;
1441975974498762;0.146484375;-0.75628662109375;-0.27227783203125;-0.57666015625;16.215988179677563;15.377772324839066;17.12184987490883;-1.078125;0.97265625;-0.80419921875;141.9375;130.875;78.5;
1441975974514763;0.1285400390625;-0.77239990234375;-0.25994873046875;-0.56512451171875;16.001338161432482;15.571497199206055;17.191110085677458;-1.84814453125;0.00341796875;-0.0556640625;65.25;-8.5625;12.125;
1441975974538764;0.100830078125;-0.7958984375;-0.24359130859375;-0.5450439453125;15.644742717026693;15.797537978266643;17.2380426463687;-1.39501953125;0.1650390625;-0.32421875;127.4375;85.6875;72.0;
1441975974558765;0.08831787109375;-0.8126220703125;-0.2415771484375;-0.52313232421875;15.321791637280294;15.911492191796851;17.298780705108385;-1.21240234375;0.79443359375;-0.748046875;182.75;130.25;110.0625;
1441975974574766;0.084716796875;-0.8218994140625;-0.24920654296875;-0.5052490234375;15.077220853445894;15.921327795754687;17.333628901122385;-0.97998046875;1.0810546875;-0.76220703125;61.125;129.9375;79.25;
1441975974605768;0.08026123046875;-0.83135986328125;-0.2470703125;-0.49139404296875;14.893852079933282;15.998257747767177;17.388188546968927;-1.11083984375;0.4970703125;-0.52685546875;-20.25;98.5;63.875;
1441975974619769;0.06768798828125;-0.8428955078125;-0.2427978515625;-0.47552490234375;14.655307843457674;16.063162526632812;17.38832328272259;-1.12109375;-0.0087890625;-0.5234375;17.375;86.5625;66.0625;
1441975974634770;0.0535888671875;-0.8526611328125;-0.24285888671875;-0.4595947265625;14.406630811847283;16.07791689717137;17.35090047751886;-0.9140625;0.4072265625;-0.63232421875;62.0;82.6875;73.8125;
1441975974657771;0.0416259765625;-0.85931396484375;-0.24566650390625;-0.44677734375;14.201811877842673;16.063879194667155;17.304421842484807;-0.638671875;0.53369140625;-0.634765625;46.4375;68.5;80.0625;
1441975974679772;0.0313720703125;-0.86334228515625;-0.24993896484375;-0.43731689453125;14.042079654638652;16.031816940760333;17.2522317429519;-0.49365234375;0.45703125;-0.5517578125;23.6875;48.5;73.625;
1441975974694773;0.0245361328125;-0.86566162109375;-0.253662109375;-0.4310302734375;13.934285706496267;16.00470337663223;17.21559718726121;-0.33544921875;0.3896484375;-0.51416015625;7.6875;25.625;64.1875;
1441975974718774;0.020751953125;-0.8656005859375;-0.25848388671875;-0.42840576171875;13.879472187622778;15.96434499282843;17.182068036855785;-0.3115234375;0.39892578125;-0.50634765625;0.0625;10.3125;40.25;
1441975974747776;0.0216064453125;-0.8629150390625;-0.2647705078125;-0.4300537109375;13.889765818582735;15.909288389550667;17.158159258535107;-0.33349609375;0.435546875;-0.48974609375;-14.625;-7.5;21.5625;
1441975974754777;0.02490234375;-0.85986328125;-0.2705078125;-0.43231201171875;13.9190857758256;15.862378509695663;17.150113814199422;-0.40283203125;0.36279296875;-0.4306640625;-37.75;-23.25;1.6875;
1441975974778778;0.02740478515625;-0.8609619140625;-0.26678466796875;-0.4322509765625;13.936814397884712;15.900315460842767;17.18191080607522;-0.3505859375;0.3447265625;-0.4375;-42.9375;-25.875;-13.375;
1441975974799779;0.029296875;-0.86505126953125;-0.2607421875;-0.42767333984375;13.903839378809792;15.973406620300551;17.237968471772486;-0.3427734375;0.40966796875;-0.482421875;13.0625;-6.5;-32.6875;
1441975974830781;0.033935546875;-0.86865234375;-0.26300048828125;-0.41851806640625;13.815200038584285;16.001952694593665;17.300977837537307;-0.38916015625;0.63916015625;-0.6376953125;33.6875;16.625;-38.9375;
1441975974846782;0.0447998046875;-0.8707275390625;-0.27386474609375;-0.40618896484375;13.703560581890855;15.986979945410619;17.388219787710167;-0.43603515625;0.81494140625;-0.7880859375;-13.5;34.625;-32.8125;
1441975974858782;0.05853271484375;-0.87274169921875;-0.28326416015625;-0.39337158203125;13.603166457258377;15.988761942839606;17.49949290813824;-0.48974609375;0.615234375;-0.75048828125;-80.3125;59.75;-25.5;
1441975974874783;0.071044921875;-0.875;-0.28912353515625;-0.3818359375;13.517387588291605;16.007712815367412;17.606771520678244;-0.43505859375;0.23486328125;-0.6201171875;-89.625;72.625;-23.75;
1441975974897785;0.085205078125;-0.8748779296875;-0.2979736328125;-0.37237548828125;13.46084042593967;15.998671396659367;17.706461457559566;-0.4501953125;0.21533203125;-0.525390625;-66.4375;72.25;-26.375;
1441975974919786;0.1019287109375;-0.87213134765625;-0.308837890625;-0.36566162109375;13.448355243716264;15.970988581002189;17.806851944711095;-0.4326171875;0.3232421875;-0.478515625;-82.4375;59.9375;-37.8125;
1441975974943787;0.11871337890625;-0.86700439453125;-0.32391357421875;-0.3597412109375;13.447627287286883;15.906766399431406;17.890781601365035;-0.47265625;0.359375;-0.4716796875;-99.875;45.75;-52.6875;
1441975974957788;0.13580322265625;-0.86151123046875;-0.33807373046875;-0.353759765625;13.453140954534378;15.848841130319524;17.979097282396758;-0.4912109375;0.296875;-0.4873046875;-124.5;38.5;-44.1875;
1441975974979789;0.1536865234375;-0.85626220703125;-0.3494873046875;-0.3480224609375;13.469831918944347;15.812727473267437;0.08034065616995778;-0.41162109375;0.2216796875;-0.48291015625;-121.8125;38.125;-47.75;
1441975974994790;0.17303466796875;-0.85040283203125;-0.35986328125;-0.3427734375;13.502724330856374;15.786387045461158;0.19304272423489577;-0.42578125;0.24462890625;-0.49609375;-109.4375;41.4375;-57.25;
1441975975017792;0.1937255859375;-0.84332275390625;-0.37042236328125;-0.337890625;13.550788516781173;15.760072353126889;0.31298818193900396;-0.4384765625;0.28271484375;-0.51513671875;-107.9375;41.125;-68.625;
1441975975039793;0.2154541015625;-0.83551025390625;-0.3800048828125;-0.3333740234375;13.612002062440112;15.743025945277614;0.44256944864394027;-0.44189453125;0.26904296875;-0.515625;-113.4375;39.5;-76.75;
1441975975054794;0.23712158203125;-0.82708740234375;-0.388671875;-0.3297119140625;13.685879261922437;15.732098758299133;0.5733035614545939;-0.4912109375;0.26611328125;-0.54345703125;-112.6875;39.6875;-84.6875;
1441975975077795;0.25836181640625;-0.81903076171875;-0.3935546875;-0.328125;13.779652461006929;15.749680574340598;0.7105917642116234;-0.52294921875;0.24560546875;-0.55859375;-108.25;35.1875;-88.4375;
1441975975099796;0.2783203125;-0.81060791015625;-0.396484375;-0.32904052734375;13.894973846005618;15.779150747529041;0.8421984273947452;-0.5517578125;0.1982421875;-0.55126953125;-95.1875;22.9375;-90.5;
1441975975114797;0.29644775390625;-0.80224609375;-0.3983154296875;-0.33154296875;14.018129675904886;15.814473316592352;0.9643864383470085;-0.6181640625;0.189453125;-0.54931640625;-80.8125;12.1875;-92.8125;
1441975975137798;0.31207275390625;-0.7939453125;-0.400390625;-0.33477783203125;14.138829761697416;15.842594549387613;1.0686550108249613;-0.68505859375;0.2021484375;-0.54833984375;-68.125;4.0625;-89.1875;
1441975975158800;0.32513427734375;-0.78570556640625;-0.4029541015625;-0.3385009765625;14.255640223663557;15.859980706528944;1.1528775908464528;-0.71435546875;0.2041015625;-0.53466796875;-62.5;-4.9375;-79.0625;
1441975975174801;0.3359375;-0.77801513671875;-0.40545654296875;-0.34283447265625;14.368785416597118;15.872044856232712;1.220337859453955;-0.7060546875;0.216796875;-0.50244140625;-56.625;-13.25;-69.5625;
1441975975197802;0.3447265625;-0.770751953125;-0.4078369140625;-0.34765625;14.478795724554464;15.878999358928294;1.2726130988149562;-0.7197265625;0.23388671875;-0.484375;-48.6875;-19.25;-61.0625;
1441975975220803;0.35113525390625;-0.7646484375;-0.409423828125;-0.352783203125;14.578985872193305;15.88521834463244;1.3092616817290688;-0.73291015625;0.21875;-0.45654296875;-41.3125;-24.0;-52.4375;
1441975975234804;0.35614013671875;-0.75885009765625;-0.41119384765625;-0.3582763671875;14.677562470636719;15.884499431973138;1.3329463553439107;-0.7294921875;0.25439453125;-0.42626953125;-28.0;-26.5625;-44.625;
1441975975257805;0.35992431640625;-0.75341796875;-0.41290283203125;-0.36383056640625;14.771717558508982;15.87917708826116;1.3464294142626667;-0.74560546875;0.27734375;-0.41943359375;-23.125;-31.125;-39.8125;
1441975975280807;0.361572265625;-0.74969482421875;-0.4141845703125;-0.36846923828125;14.842036307384653;15.869515305574875;1.344718792648469;-0.767578125;0.25634765625;-0.36865234375;-19.125;-30.5;-32.875;
1441975975294807;0.36199951171875;-0.74676513671875;-0.41546630859375;-0.37249755859375;14.898971924437935;15.854257882868621;1.332731881715778;-0.7724609375;0.32421875;-0.357421875;-8.3125;-27.0;-23.375;
1441975975317809;0.36163330078125;-0.743896484375;-0.41668701171875;-0.37725830078125;14.960535892094699;15.834574287589042;1.311462985157523;-0.79052734375;0.3837890625;-0.3564453125;-3.6875;-25.5625;-18.25;
1441975975340810;0.3599853515625;-0.74151611328125;-0.41741943359375;-0.38262939453125;15.021692207803511;15.812097956024225;1.2786843337874525;-0.83837890625;0.3603515625;-0.33447265625;0.0;-28.625;-14.6875;
1441975975354811;0.35650634765625;-0.740478515625;-0.4178466796875;-0.38739013671875;15.064221047636433;15.783629307493195;1.2308349695439436;-0.86767578125;0.314453125;-0.3076171875;6.3125;-30.3125;-7.6875;
1441975975377812;0.35198974609375;-0.7410888671875;-0.41754150390625;-0.390625;15.079540063384249;15.759556580687228;1.1810084641656315;-0.828125;0.31884765625;-0.2470703125;15.0625;-26.25;2.75;
1441975975400813;0.34613037109375;-0.74273681640625;-0.41790771484375;-0.39239501953125;15.070588084644356;15.723887388399834;1.118270554388424;-0.79345703125;0.3154296875;-0.2177734375;21.625;-16.8125;11.9375;
1441975975421815;0.33941650390625;-0.74542236328125;-0.418212890625;-0.39288330078125;15.040321604000221;15.687702065221742;1.0523819857335759;-0.79345703125;0.34912109375;-0.1630859375;23.5625;-9.6875;22.75;
1441975975437816;0.3319091796875;-0.749267578125;-0.41845703125;-0.39166259765625;14.98413751467272;15.653137248656432;0.9863465907501112;-0.8037109375;0.37548828125;-0.13037109375;26.6875;-1.125;30.5625;
1441975975460817;0.32427978515625;-0.7535400390625;-0.41943359375;-0.3887939453125;14.90833136201292;15.61563538415125;0.9222381876947625;-0.82763671875;0.4306640625;-0.12548828125;30.0;7.6875;38.1875;
1441975975481818;0.3167724609375;-0.7578125;-0.42120361328125;-0.38470458984375;14.819968849070653;15.575201974139711;0.8611296430909153;-0.84619140625;0.4755859375;-0.13623046875;25.25;14.1875;44.0625;
1441975975497819;0.30963134765625;-0.76214599609375;-0.4234619140625;-0.37945556640625;14.720329427878706;15.536397363777926;0.8071013154659489;-0.87548828125;0.49169921875;-0.14208984375;19.8125;18.6875;49.0;
1441975975520820;0.3028564453125;-0.76654052734375;-0.4263916015625;-0.372802734375;14.607063435326038;15.497953953828407;0.7601221309630883;-0.876953125;0.4912109375;-0.1650390625;14.0625;23.375;52.625;
1441975975541822;0.296630859375;-0.77056884765625;-0.4300537109375;-0.365234375;14.487732311024489;15.458455815170081;0.7195587663716296;-0.89111328125;0.51416015625;-0.1875;8.0;28.5;56.4375;
1441975975557822;0.29034423828125;-0.7744140625;-0.43402099609375;-0.35723876953125;14.364154223776033;15.418649805072448;0.6809599346799198;-0.9140625;0.5078125;-0.19189453125;0.875;32.625;60.3125;
1441975975580824;0.2838134765625;-0.7783203125;-0.4383544921875;-0.34869384765625;14.233094865583336;15.37824472801358;0.6433377716652353;-0.91845703125;0.48583984375;-0.185546875;-2.125;34.375;64.5625;
1441975975601825;0.277587890625;-0.78216552734375;-0.4427490234375;-0.3394775390625;14.09661130679207;15.341544531089495;0.6124663585747174;-0.89990234375;0.5068359375;-0.193359375;-3.8125;35.5625;67.8125;
1441975975617826;0.27142333984375;-0.7861328125;-0.44659423828125;-0.33013916015625;13.958884188941212;15.311767636692345;0.5867942064456227;-0.86767578125;0.494140625;-0.20263671875;-6.5;37.9375;69.8125;
1441975975640827;0.26507568359375;-0.79034423828125;-0.45025634765625;-0.320068359375;13.812218621803488;15.285858260699465;0.5648371423683243;-0.85693359375;0.46142578125;-0.208984375;-5.5625;39.75;71.6875;
1441975975661828;0.2586669921875;-0.7945556640625;-0.45391845703125;-0.3095703125;13.660997179946317;15.261654769298318;0.5454106307445233;-0.83203125;0.47998046875;-0.21484375;-4.3125;43.0625;74.375;
1441975975677829;0.2523193359375;-0.79833984375;-0.4578857421875;-0.299072265625;13.511364300336032;15.235590163928242;0.5265372487033464;-0.82470703125;0.5087890625;-0.232421875;-5.1875;44.4375;75.6875;
1441975975700831;0.2464599609375;-0.8017578125;-0.46142578125;-0.2891845703125;13.371638454677932;15.213448823597501;0.5113038099119535;-0.81787109375;0.53076171875;-0.22705078125;-6.9375;43.875;75.5625;
1441975975729832;0.2406005859375;-0.80499267578125;-0.464599609375;-0.2799072265625;13.238764810789563;15.193634743646633;0.4960781489721066;-0.80859375;0.50927734375;-0.24755859375;-7.375;41.8125;73.1875;
1441975975737833;0.23516845703125;-0.8077392578125;-0.4678955078125;-0.27093505859375;13.112518250763996;15.173276936682699;0.48284833355776263;-0.7890625;0.5263671875;-0.27294921875;-6.0625;37.9375;70.125;
1441975975760834;0.2303466796875;-0.809814453125;-0.4716796875;-0.26220703125;12.99349814801126;15.149871324368469;0.47179874279682027;-0.76318359375;0.533203125;-0.29345703125;-8.9375;35.3125;67.0;
1441975975781835;0.22564697265625;-0.81146240234375;-0.4754638671875;-0.25421142578125;12.883587264848893;15.125606388160099;0.4597132846832508;-0.74072265625;0.52099609375;-0.30322265625;-14.8125;33.5625;64.375;
1441975975797836;0.22100830078125;-0.8126220703125;-0.479248046875;-0.2474365234375;12.787328627497708;15.099786822338885;0.44459283663790056;-0.71240234375;0.52587890625;-0.30712890625;-15.125;29.75;60.875;
1441975975820838;0.21630859375;-0.81378173828125;-0.48211669921875;-0.24212646484375;12.705582026580103;15.07900403750114;0.4272487647384998;-0.697265625;0.53271484375;-0.30126953125;-14.9375;23.0;56.6875;
1441975975841839;0.2115478515625;-0.81488037109375;-0.48443603515625;-0.23785400390625;12.634080510628202;15.061001614573366;0.40795094599847875;-0.6826171875;0.54052734375;-0.30029296875;-9.0625;17.0;51.6875;
1441975975857840;0.2073974609375;-0.81585693359375;-0.48638916015625;-0.234375;12.57395456939578;15.045984741934493;0.3908727761410685;-0.66064453125;0.568359375;-0.31494140625;-4.875;11.9375;47.0;
1441975975880841;0.2039794921875;-0.816162109375;-0.48870849609375;-0.23138427734375;12.524036177084476;15.02819515523011;0.37565440338423933;-0.66845703125;0.58642578125;-0.34375;-4.5625;9.0625;41.5;
1441975975901842;0.20123291015625;-0.8160400390625;-0.4910888671875;-0.2291259765625;12.485845102279347;15.009811885420728;0.3618755135242571;-0.6572265625;0.5869140625;-0.337890625;-8.75;7.5625;36.1875;
1441975975917843;0.19879150390625;-0.81591796875;-0.4931640625;-0.22735595703125;12.454135435780122;14.993666717051497;0.34911520602359775;-0.6181640625;0.56298828125;-0.3056640625;-9.4375;5.625;30.5625;
1441975975940844;0.19659423828125;-0.81573486328125;-0.4949951171875;-0.22576904296875;12.425835331677595;14.979233757251638;0.33776724960738735;-0.5751953125;0.55224609375;-0.3017578125;-7.9375;3.3125;25.5625;
1441975975961846;0.1943359375;-0.81585693359375;-0.49658203125;-0.22369384765625;12.39175793529121;14.967525671259992;0.3284512191302302;-0.53857421875;0.5478515625;-0.29541015625;-7.1875;2.8125;22.6875;
1441975975977846;0.1925048828125;-0.81573486328125;-0.49853515625;-0.22149658203125;12.359107983344039;14.95393857535093;0.32123328721360583;-0.49755859375;0.591796875;-0.33056640625;-6.5625;2.875;20.5;
1441975976000848;0.19097900390625;-0.815673828125;-0.50006103515625;-0.21954345703125;12.33068433970538;14.943489123101388;0.31592456719724393;-0.48779296875;0.6142578125;-0.34765625;-10.0;2.8125;18.375;
1441975976021849;0.19012451171875;-0.81591796875;-0.500732421875;-0.21795654296875;12.309396027323972;14.939946435430437;0.3151152802431792;-0.5048828125;0.6201171875;-0.3759765625;-9.0;2.9375;16.25;
1441975976036850;0.18951416015625;-0.8165283203125;-0.500732421875;-0.216064453125;12.286146488715076;14.942066317113314;0.31817920456148846;-0.50390625;0.62060546875;-0.39453125;-6.25;3.75;11.875;
1441975976050851;0.18896484375;-0.8175048828125;-0.5003662109375;-0.21380615234375;12.259000380630482;14.947771313604594;0.3236586543293052;-0.48046875;0.63330078125;-0.39892578125;-2.125;6.1875;9.625;
1441975976073852;0.18829345703125;-0.8187255859375;-0.49969482421875;-0.211181640625;12.227251821729501;14.955946068094649;0.33027785128758064;-0.4326171875;0.63525390625;-0.4072265625;0.0625;7.6875;8.0;
1441975976096853;0.18768310546875;-0.81964111328125;-0.49945068359375;-0.20880126953125;12.198625811247362;14.960625792274664;0.3354353618248643;-0.40234375;0.654296875;-0.4365234375;1.0;7.625;7.4375;
1441975976110854;0.18719482421875;-0.8204345703125;-0.4990234375;-0.20709228515625;12.17763935892467;14.965721750232504;0.33935982758974403;-0.44189453125;0.6796875;-0.46484375;-2.5;6.25;8.0625;
1441975976133855;0.186767578125;-0.821533203125;-0.49786376953125;-0.2060546875;12.163224630554964;14.975596057125165;0.34295326441792373;-0.4892578125;0.6552734375;-0.515625;-4.6875;3.3125;8.8125;
1441975976156857;0.1859130859375;-0.822998046875;-0.49591064453125;-0.20562744140625;12.15204272605148;14.989961091030567;0.3437992456514773;-0.5224609375;0.646484375;-0.53125;-0.6875;1.875;8.0;
1441975976170858;0.1844482421875;-0.82489013671875;-0.493408203125;-0.2054443359375;12.139197087008617;15.007526843965788;0.34161627974527076;-0.5341796875;0.64990234375;-0.51953125;6.0625;0.1875;8.1875;
1441975976193859;0.1822509765625;-0.82733154296875;-0.4903564453125;-0.20477294921875;12.1166557951539;15.028870098833128;0.3380400927013714;-0.52392578125;0.630859375;-0.48681640625;12.625;-0.4375;10.5625;
1441975976216860;0.17974853515625;-0.8297119140625;-0.4876708984375;-0.20379638671875;12.089430967281904;15.047565014675182;0.3329233023709207;-0.49658203125;0.6748046875;-0.46728515625;19.4375;1.0625;12.5;
1441975976230861;0.17724609375;-0.83203125;-0.485107421875;-0.20263671875;12.060554293650092;15.06545907725837;0.328035527716149;-0.48876953125;0.7021484375;-0.44189453125;20.1875;2.5;13.875;
1441975976253862;0.17474365234375;-0.83447265625;-0.48260498046875;-0.20062255859375;12.023009186301845;15.083804526635213;0.3256084455037251;-0.47509765625;0.6982421875;-0.427734375;20.375;3.5625;13.9375;
1441975976284864;0.1724853515625;-0.8365478515625;-0.4810791015625;-0.19775390625;11.978627961388462;15.096350071019046;0.3251864135601631;-0.42578125;0.72998046875;-0.42724609375;20.6875;6.4375;13.4375;
1441975976290864;0.1705322265625;-0.83819580078125;-0.480224609375;-0.1944580078125;11.932314243508273;15.104511665971584;0.32633893559008037;-0.39599609375;0.7568359375;-0.4267578125;15.125;9.0625;12.8125;
1441975976313866;0.16876220703125;-0.83966064453125;-0.47979736328125;-0.1907958984375;11.88352961385313;15.110160815256451;0.3287529979325329;-0.37939453125;0.73974609375;-0.4296875;9.5;10.75;13.25;
1441975976336867;0.16717529296875;-0.84088134765625;-0.479736328125;-0.18695068359375;11.834286170843914;15.113369711900562;0.33197744059856493;-0.3681640625;0.7431640625;-0.4423828125;5.5625;11.75;13.5625;
1441975976350868;0.1656494140625;-0.841796875;-0.48004150390625;-0.18328857421875;11.787704338482135;15.113617393073056;0.33425834007351884;-0.3759765625;0.74658203125;-0.47216796875;1.625;12.25;14.0625;
1441975976373869;0.16448974609375;-0.8426513671875;-0.48016357421875;-0.1800537109375;11.747524522285454;15.115053769423954;0.3375465033988273;-0.3818359375;0.74853515625;-0.482421875;-1.25;10.9375;13.6875;
1441975976396870;0.16314697265625;-0.84368896484375;-0.4798583984375;-0.1771240234375;11.709199016235475;15.118955926878572;0.3396195091108335;-0.3828125;0.716796875;-0.4892578125;-2.25;10.0;12.6875;
1441975976410871;0.16168212890625;-0.844970703125;-0.47906494140625;-0.17449951171875;11.672924853973656;15.12593167010419;0.34090827267079554;-0.3955078125;0.71533203125;-0.49169921875;1.125;9.5625;13.0;
1441975976433873;0.15997314453125;-0.8463134765625;-0.47821044921875;-0.171875;11.63525629196847;15.133033662458924;0.34091379533421967;-0.390625;0.70263671875;-0.4755859375;4.9375;8.5;13.125;
1441975976456874;0.15826416015625;-0.8475341796875;-0.4776611328125;-0.16912841796875;11.596501158811579;15.13813023619347;0.34073966374533726;-0.3740234375;0.720703125;-0.46484375;7.0;8.625;13.1875;
1441975976470875;0.15673828125;-0.8486328125;-0.47705078125;-0.16668701171875;11.562062150075146;15.143344820628277;0.3406931605284803;-0.3583984375;0.73095703125;-0.4599609375;5.5;8.3125;12.875;
1441975976493876;0.1552734375;-0.849853515625;-0.4761962890625;-0.16412353515625;11.52657575509312;15.150355215666197;0.34167701522815286;-0.35693359375;0.701171875;-0.4501953125;5.3125;7.8125;12.125;
1441975976516877;0.15386962890625;-0.85101318359375;-0.47540283203125;-0.1617431640625;11.493327882390398;15.156855854709352;0.3423158827284648;-0.3525390625;0.71044921875;-0.46435546875;6.625;8.625;11.9375;
1441975976531878;0.15264892578125;-0.85198974609375;-0.4747314453125;-0.15966796875;11.464430430754623;15.162300738132355;0.3428162125308333;-0.35595703125;0.71142578125;-0.4697265625;5.8125;7.875;11.4375;
1441975976553879;0.15167236328125;-0.85284423828125;-0.47406005859375;-0.157958984375;11.440722765427031;15.167599460257946;0.34353555834617205;-0.35400390625;0.7001953125;-0.46826171875;4.9375;6.9375;10.125;
1441975976576881;0.15081787109375;-0.85357666015625;-0.4736328125;-0.15643310546875;11.419623608007441;15.171319970196475;0.34401274703392515;-0.345703125;0.69775390625;-0.46337890625;4.5625;5.875;8.0;
1441975976590882;0.15008544921875;-0.8541259765625;-0.47314453125;-0.1553955078125;11.404476318014966;15.174864124684689;0.343782682591595;-0.3349609375;0.6875;-0.4482421875;3.9375;4.8125;6.4375;
1441975976613883;0.14971923828125;-0.85455322265625;-0.47259521484375;-0.15509033203125;11.398817260837205;15.178661777720345;0.3435071236774781;-0.33203125;0.67041015625;-0.43798828125;3.75;3.3125;4.9375;
1441975976636884;0.14935302734375;-0.85516357421875;-0.47149658203125;-0.1553955078125;11.399070595912606;15.185782739152277;0.3422833526013171;-0.34228515625;0.6279296875;-0.4169921875;3.9375;1.625;2.8125;
1441975976650885;0.14892578125;-0.85589599609375;-0.469970703125;-0.15631103515625;11.405015568644446;15.195313303735098;0.3396112547824107;-0.34912109375;0.60595703125;-0.4248046875;6.6875;-0.75;1.9375;
1441975976673886;0.14862060546875;-0.8565673828125;-0.46832275390625;-0.157958984375;11.419101127800092;15.205284566341621;0.3357037170387768;-0.35546875;0.595703125;-0.412109375;9.75;-2.6875;0.75;
1441975976696888;0.148681640625;-0.8568115234375;-0.4669189453125;-0.16082763671875;11.448131551329526;15.212841709909986;0.3299424475412951;-0.36865234375;0.59033203125;-0.40625;11.1875;-5.5;-1.4375;
1441975976710888;0.149169921875;-0.85662841796875;-0.4654541015625;-0.16534423828125;11.496847168853602;15.219566058760556;0.32187596946375385;-0.39013671875;0.57177734375;-0.39111328125;9.875;-10.0;-5.1875;
1441975976733890;0.15008544921875;-0.85595703125;-0.46417236328125;-0.17138671875;11.564048094981816;15.223917598173797;0.3114748229918144;-0.40283203125;0.5341796875;-0.3701171875;9.8125;-16.1875;-10.625;
1441975976755891;0.1517333984375;-0.85479736328125;-0.462890625;-0.1793212890625;11.655025542009618;15.227097217764166;0.2995924972771091;-0.40576171875;0.513671875;-0.34619140625;9.125;-22.6875;-16.9375;
1441975976779892;0.154052734375;-0.85321044921875;-0.46112060546875;-0.189208984375;11.770260606178233;15.231761934676186;0.28641713532198376;-0.43701171875;0.4716796875;-0.32177734375;8.625;-29.25;-23.875;
1441975976793893;0.15716552734375;-0.85113525390625;-0.45904541015625;-0.20062255859375;11.906197714464202;15.237009271785002;0.27355638725862536;-0.47607421875;0.45458984375;-0.3125;10.5625;-35.75;-31.125;
1441975976815894;0.16119384765625;-0.84857177734375;-0.456787109375;-0.21307373046875;12.058539971685848;15.242578979069211;0.26293580403722894;-0.49853515625;0.43603515625;-0.31005859375;10.875;-41.3125;-39.25;
1441975976838896;0.16595458984375;-0.84539794921875;-0.4542236328125;-0.22686767578125;12.229873442443552;15.248380962653778;0.25280885863683894;-0.55224609375;0.4384765625;-0.30615234375;11.0;-42.875;-45.4375;
1441975976853897;0.17120361328125;-0.84185791015625;-0.45111083984375;-0.2420654296875;12.419136906015213;15.256064985520887;0.24221374825951586;-0.6357421875;0.4423828125;-0.3115234375;10.875;-46.0625;-51.125;
1441975976875898;0.176513671875;-0.838134765625;-0.447265625;-0.25787353515625;12.616133003057124;15.267012688336495;0.2315949066863015;-0.70458984375;0.4345703125;-0.33740234375;11.875;-51.5;-56.25;
1441975976898899;0.1817626953125;-0.83404541015625;-0.44354248046875;-0.273193359375;12.809224321229692;15.276186597096798;0.2217144533149187;-0.75439453125;0.4736328125;-0.36572265625;15.75;-54.5;-60.0;
1441975976913900;0.18707275390625;-0.83013916015625;-0.43994140625;-0.287109375;12.9882453186235;15.286433443939401;0.21660318495417763;-0.7802734375;0.533203125;-0.40380859375;14.0625;-54.9375;-62.25;
1441975976935901;0.1925048828125;-0.82635498046875;-0.43572998046875;-0.30047607421875;13.162983198861072;15.301910713311528;0.21598037214986038;-0.76708984375;0.5771484375;-0.42529296875;12.875;-50.375;-62.75;
1441975976958903;0.19757080078125;-0.82232666015625;-0.43170166015625;-0.31378173828125;13.33607868111733;15.314879090654543;0.2130165580545372;-0.8173828125;0.6015625;-0.47314453125;14.5625;-48.4375;-64.0;
1441975976973903;0.2020263671875;-0.818115234375;-0.4281005859375;-0.32659912109375;13.501737451891609;15.323424440380085;0.20655568692215331;-0.83642578125;0.62646484375;-0.49853515625;13.0625;-51.625;-64.3125;
1441975976995905;0.20599365234375;-0.81451416015625;-0.42462158203125;-0.3375244140625;13.644457814120802;15.333989502021334;0.20357828538986433;-0.7939453125;0.65234375;-0.52392578125;11.375;-55.5;-65.0;
1441975977018906;0.20977783203125;-0.81121826171875;-0.42132568359375;-0.34710693359375;13.772026492118883;15.345626014298722;0.20396374108863838;-0.71826171875;0.70703125;-0.5478515625;12.0625;-51.25;-64.0625;
1441975977033907;0.2132568359375;-0.80804443359375;-0.41815185546875;-0.356201171875;13.89285853725823;15.356747346240788;0.20399068204835413;-0.701171875;0.724609375;-0.5576171875;10.6875;-47.25;-62.5;
1441975977055908;0.2158203125;-0.8050537109375;-0.41552734375;-0.3642578125;13.998041253210046;15.363031352620897;0.19963032739631234;-0.7236328125;0.7080078125;-0.57080078125;9.9375;-46.5;-59.375;
1441975977086910;0.21771240234375;-0.802490234375;-0.4134521484375;-0.37109375;14.085878759083663;15.366137542181592;0.19331590076067973;-0.71533203125;0.74072265625;-0.57763671875;8.8125;-45.5625;-54.5625;
1441975977094910;0.21868896484375;-0.80072021484375;-0.41168212890625;-0.3763427734375;14.150641101981938;15.36872022870434;0.18582892801427364;-0.70751953125;0.748046875;-0.578125;8.0;-42.4375;-48.4375;
1441975977115912;0.21893310546875;-0.79974365234375;-0.4100341796875;-0.37994384765625;14.192925600594776;15.372954863113135;0.17944958388181598;-0.705078125;0.75146484375;-0.560546875;8.8125;-35.625;-39.9375;
1441975977138913;0.218505859375;-0.799560546875;-0.40887451171875;-0.3819580078125;14.212868425554825;15.37627692746077;0.17308450929012437;-0.70703125;0.75390625;-0.5576171875;9.9375;-28.125;-32.0625;
1441975977153914;0.21734619140625;-0.80010986328125;-0.408447265625;-0.3818359375;14.204894521067272;15.377291587212735;0.16723619247171093;-0.6982421875;0.75048828125;-0.5439453125;9.25;-21.125;-23.3125;
1441975977175915;0.21575927734375;-0.80120849609375;-0.408935546875;-0.37994384765625;14.174238521904305;15.374592096906236;0.16196531901384217;-0.67041015625;0.74951171875;-0.53564453125;7.25;-12.4375;-13.375;
1441975977198916;0.21368408203125;-0.80279541015625;-0.40985107421875;-0.37677001953125;14.126399569134415;15.370716146037358;0.15687321534033333;-0.65771484375;0.7431640625;-0.5205078125;3.0625;-4.625;-4.0625;
1441975977213917;0.2109375;-0.8050537109375;-0.41094970703125;-0.372314453125;14.060197427628129;15.367527077415335;0.1518336044134031;-0.69091796875;0.716796875;-0.52197265625;1.0;1.5625;5.5625;
1441975977237919;0.20751953125;-0.80810546875;-0.41192626953125;-0.36651611328125;13.975104179098683;15.367792133112667;0.14831919349785064;-0.6923828125;0.68603515625;-0.52197265625;0.9375;8.1875;15.0625;
1441975977258920;0.20361328125;-0.81158447265625;-0.4132080078125;-0.3594970703125;13.873902793219807;15.367528479914428;0.1451545249063424;-0.6875;0.6826171875;-0.5185546875;3.125;15.0;23.5625;
1441975977273921;0.19964599609375;-0.81494140625;-0.4151611328125;-0.3516845703125;13.76423760578226;15.363114221759739;0.14201897775498443;-0.6875;0.68212890625;-0.51416015625;2.1875;21.125;30.6875;
1441975977295922;0.19561767578125;-0.81829833984375;-0.41741943359375;-0.34344482421875;13.649695888540046;15.357145502923295;0.13914965104842825;-0.69677734375;0.666015625;-0.5;-1.8125;25.625;36.5625;
1441975977318923;0.1912841796875;-0.8218994140625;-0.4193115234375;-0.33489990234375;13.530497613323323;15.354155620370031;0.1368082646093911;-0.716796875;0.64501953125;-0.48681640625;-3.8125;29.0625;41.5;
1441975977333924;0.186767578125;-0.825927734375;-0.42059326171875;-0.3258056640625;13.404554092452987;15.356873128767024;0.1373429730985458;-0.71630859375;0.62353515625;-0.4892578125;-2.0625;31.4375;45.25;
1441975977355925;0.18218994140625;-0.830078125;-0.421875;-0.31610107421875;13.272011706803625;15.360420344025641;0.13945491160752593;-0.7099609375;0.61669921875;-0.50048828125;0.9375;35.5;48.5;
1441975977378927;0.17779541015625;-0.83392333984375;-0.42352294921875;-0.30615234375;13.138559790113911;15.361235758928439;0.14211907757993827;-0.70263671875;0.6259765625;-0.513671875;0.8125;38.625;50.875;
1441975977401928;0.173828125;-0.83746337890625;-0.4251708984375;-0.296142578125;13.00765077412785;15.362093249349464;0.14729700610130625;-0.68798828125;0.62060546875;-0.51513671875;-3.0;40.125;51.9375;
1441975977415929;0.17010498046875;-0.84075927734375;-0.427001953125;-0.28631591796875;12.880273875412362;15.361288743521362;0.15268353890426478;-0.6865234375;0.6142578125;-0.51318359375;-4.4375;41.625;51.5625;
1441975977438930;0.1666259765625;-0.84381103515625;-0.42864990234375;-0.2767333984375;12.757553169379477;15.361064261146918;0.1589584574204886;-0.67626953125;0.6064453125;-0.50634765625;-6.125;41.875;50.6875;
1441975977453931;0.163330078125;-0.8465576171875;-0.4302978515625;-0.26763916015625;12.641515786723767;15.359760186651723;0.16456475058887615;-0.65478515625;0.59814453125;-0.49951171875;-6.125;41.75;49.4375;
1441975977475932;0.16046142578125;-0.84881591796875;-0.4320068359375;-0.2591552734375;12.53503840208528;15.356926380476112;0.17041299976227425;-0.62939453125;0.6015625;-0.48681640625;-6.3125;40.0;46.625;
1441975977498933;0.1578369140625;-0.85089111328125;-0.43359375;-0.2513427734375;12.437074556513428;15.35417434271763;0.1758618612110329;-0.607421875;0.58056640625;-0.47216796875;-7.6875;37.625;43.8125;
1441975977513934;0.15545654296875;-0.85272216796875;-0.43475341796875;-0.2445068359375;12.35119122483552;15.352941928376225;0.18056515732685258;-0.57666015625;0.552734375;-0.45458984375;-7.4375;35.0625;40.9375;
1441975977535936;0.1533203125;-0.85430908203125;-0.435791015625;-0.23834228515625;12.274003978753454;15.35165206643574;0.18481862687888312;-0.56640625;0.537109375;-0.4453125;-5.625;31.9375;37.6875;
1441975977558937;0.1514892578125;-0.85552978515625;-0.43707275390625;-0.23272705078125;12.204558945461457;15.34802634127608;0.1886118722931711;-0.56689453125;0.52734375;-0.4326171875;-5.25;29.625;35.0625;
1441975977573938;0.1500244140625;-0.8564453125;-0.4384765625;-0.2276611328125;12.143106368004176;15.343091782802105;0.19259869538323832;-0.560546875;0.52587890625;-0.41552734375;-6.875;28.0;33.0;
1441975977597939;0.148681640625;-0.8572998046875;-0.43939208984375;-0.223388671875;12.090807308869357;15.340518898405165;0.19587103980701898;-0.55712890625;0.51318359375;-0.39306640625;-7.125;26.875;30.5;
1441975977627941;0.1475830078125;-0.858154296875;-0.4403076171875;-0.2191162109375;12.039697340168702;15.338329381491679;0.2005579141122727;-0.54541015625;0.50390625;-0.38818359375;-5.0;23.6875;27.25;
1441975977633941;0.14678955078125;-0.8587646484375;-0.44122314453125;-0.21533203125;11.995622481135122;15.335640796358385;0.20548458997126595;-0.53271484375;0.52294921875;-0.39306640625;-4.5625;23.625;25.4375;
1441975977655942;0.146240234375;-0.85931396484375;-0.44195556640625;-0.21209716796875;11.958550665264431;15.333888722250032;0.21053071331560608;-0.525390625;0.52197265625;-0.39990234375;-5.6875;21.8125;22.3125;
1441975977679944;0.14569091796875;-0.85980224609375;-0.44256591796875;-0.208984375;11.922982752913668;15.332566359699598;0.21539133894561427;-0.51904296875;0.52294921875;-0.4130859375;-5.3125;18.875;19.4375;
1441975977693945;0.14544677734375;-0.86029052734375;-0.443115234375;-0.20623779296875;11.892606747363022;15.33185092704152;0.22105516249785806;-0.4951171875;0.5458984375;-0.431640625;-5.1875;17.3125;17.375;
1441975977715946;0.14569091796875;-0.86041259765625;-0.44366455078125;-0.20428466796875;11.87352444104424;15.330445981772638;0.2270863386666039;-0.4951171875;0.568359375;-0.44580078125;-4.4375;16.1875;14.1875;
1441975977738947;0.1463623046875;-0.86016845703125;-0.44439697265625;-0.20306396484375;11.864670694521354;15.327264993558071;0.23303258200802698;-0.5078125;0.58447265625;-0.4599609375;-5.9375;13.0625;9.875;
1441975977753948;0.14727783203125;-0.86004638671875;-0.44464111328125;-0.20245361328125;11.86318612752251;15.327267094071864;0.23948585699404523;-0.50244140625;0.57861328125;-0.455078125;-7.0625;9.8125;5.6875;
1441975977775949;0.14813232421875;-0.86004638671875;-0.444580078125;-0.2021484375;11.864368138709368;15.329095804954193;0.24527916017187137;-0.4853515625;0.5673828125;-0.46044921875;-5.125;7.4375;2.25;
1441975977798951;0.14898681640625;-0.8599853515625;-0.44451904296875;-0.2017822265625;11.865103143240109;15.33078567764595;0.25121336958466595;-0.46630859375;0.58349609375;-0.45458984375;-1.9375;5.5625;-0.125;
1441975977813952;0.1500244140625;-0.85980224609375;-0.444580078125;-0.20159912109375;11.86878356598894;15.331646041878274;0.257431543161022;-0.45556640625;0.61181640625;-0.46923828125;-1.875;4.8125;-1.375;
1441975977835953;0.15118408203125;-0.859619140625;-0.44451904296875;-0.2017822265625;11.876804194050937;15.333226750926688;0.26352419963342366;-0.45849609375;0.6279296875;-0.47705078125;-2.75;4.0625;-3.1875;
1441975977858954;0.1524658203125;-0.85931396484375;-0.4444580078125;-0.2021484375;11.887575596284869;15.334589166378743;0.26975445191392505;-0.4697265625;0.63330078125;-0.49853515625;-2.5625;2.3125;-5.0;
1441975977873955;0.15380859375;-0.85894775390625;-0.44439697265625;-0.20269775390625;11.900633837114805;15.335810572126016;0.2758067474047041;-0.47509765625;0.64599609375;-0.50830078125;-2.9375;1.3125;-6.0625;
1441975977895956;0.15496826171875;-0.8587646484375;-0.44415283203125;-0.20318603515625;11.911825213273323;15.33833371594276;0.28137399768732285;-0.46826171875;0.64794921875;-0.4990234375;-2.625;0.625;-7.3125;
1441975977918958;0.15594482421875;-0.8587646484375;-0.44366455078125;-0.20355224609375;11.920583187846312;15.342531318293572;0.2867238815204046;-0.44970703125;0.65087890625;-0.49560546875;-0.6875;0.0625;-7.625;
1441975977941959;0.1566162109375;-0.8590087890625;-0.44293212890625;-0.2037353515625;11.925531284025581;15.3483967817586;0.2913536391954826;-0.44921875;0.6552734375;-0.48974609375;1.8125;0.6875;-6.875;
1441975977955960;0.15716552734375;-0.8590087890625;-0.44256591796875;-0.2039794921875;11.930894728414762;15.351275799408787;0.29441817349964816;-0.45458984375;0.67626953125;-0.50927734375;3.5625;0.8125;-5.375;
1441975977978961;0.15753173828125;-0.85894775390625;-0.4425048828125;-0.20404052734375;11.933483996449475;15.352027488611496;0.2964174523555047;-0.45166015625;0.67919921875;-0.5029296875;1.875;0.125;-4.875;
1441975977993962;0.15789794921875;-0.8590087890625;-0.44244384765625;-0.20379638671875;11.932679505429368;15.353251997093421;0.2993119024732741;-0.45458984375;0.68994140625;-0.4921875;1.125;0.1875;-3.875;
1441975978015963;0.15826416015625;-0.85894775390625;-0.44256591796875;-0.20343017578125;11.930862600220093;15.3531461264435;0.3021882709410243;-0.4462890625;0.6953125;-0.50341796875;0.75;1.375;-3.375;
1441975978038964;0.1585693359375;-0.85888671875;-0.44287109375;-0.202880859375;11.926786486741712;15.351971982120492;0.30491937751848025;-0.44873046875;0.7021484375;-0.4970703125;0.25;2.25;-2.875;
1441975978053965;0.15887451171875;-0.85870361328125;-0.443359375;-0.2022705078125;11.922312894812418;15.349440020332885;0.30746644507045795;-0.4541015625;0.7021484375;-0.50146484375;-1.25;2.5625;-1.875;
1441975978077967;0.15911865234375;-0.8585205078125;-0.44384765625;-0.2017822265625;11.918767548546011;15.346754759827887;0.3093299932473281;-0.4482421875;0.69091796875;-0.50732421875;-3.0625;2.3125;-1.3125;
1441975978098968;0.1591796875;-0.8583984375;-0.4442138671875;-0.201416015625;11.915479916993501;15.344583760872002;0.3100378504300663;-0.4443359375;0.67822265625;-0.49462890625;-3.125;1.6875;-1.125;
1441975978113969;0.1590576171875;-0.85833740234375;-0.444580078125;-0.20098876953125;11.910529336166494;15.342309681315513;0.30989607998537105;-0.44189453125;0.66162109375;-0.484375;-1.875;1.25;-0.125;
1441975978135970;0.15887451171875;-0.85821533203125;-0.4449462890625;-0.2008056640625;11.907892197043186;15.339664694050175;0.3087089275346779;-0.4404296875;0.6669921875;-0.4736328125;-0.8125;1.375;0.9375;
1441975978168972;0.15875244140625;-0.85791015625;-0.4454345703125;-0.20123291015625;11.912058962000295;15.335653274723308;0.30590826136434945;-0.447265625;0.65380859375;-0.46533203125;-0.75;0.375;1.25;
1441975978173972;0.1588134765625;-0.8572998046875;-0.446044921875;-0.20220947265625;11.92334898051946;15.330150796095708;0.302292384778322;-0.455078125;0.6435546875;-0.45458984375;-1.8125;-2.0625;0.25;
1441975978195973;0.1590576171875;-0.85650634765625;-0.44659423828125;-0.2042236328125;11.94641238945101;15.324299992738197;0.2968349985357027;-0.4560546875;0.619140625;-0.44384765625;-2.8125;-4.5625;-1.5;
1441975978219975;0.15948486328125;-0.85546875;-0.4468994140625;-0.2076416015625;11.985199502048312;15.318760742373355;0.28874788701115206;-0.4580078125;0.5849609375;-0.421875;-2.375;-8.5625;-4.3125;
1441975978233976;0.16009521484375;-0.85400390625;-0.447265625;-0.21234130859375;12.038752844087368;15.311243686780996;0.2777083413283983;-0.4638671875;0.5517578125;-0.3974609375;-1.25;-14.25;-8.0;
1441975978255977;0.1611328125;-0.8521728515625;-0.4476318359375;-0.218017578125;12.105084001761277;15.3027311100529;0.26601614896331877;-0.4599609375;0.5126953125;-0.36474609375;-1.75;-20.1875;-11.8125;
1441975978278978;0.16253662109375;-0.850341796875;-0.44744873046875;-0.22454833984375;12.18211760631597;15.297339790518286;0.25477116377681724;-0.447265625;0.458984375;-0.3193359375;-1.75;-23.5;-15.6875;
1441975978293979;0.16436767578125;-0.84814453125;-0.44708251953125;-0.23193359375;12.270921346377296;15.291981535698296;0.24347375185774608;-0.4423828125;0.41845703125;-0.28173828125;1.5;-25.5;-19.5625;
1441975978323981;0.166748046875;-0.84564208984375;-0.446533203125;-0.240478515625;12.374917941446016;15.286805868618824;0.2319433698631983;-0.44091796875;0.3994140625;-0.26025390625;2.125;-28.3125;-24.375;
1441975978338982;0.17010498046875;-0.84228515625;-0.44598388671875;-0.25054931640625;12.501309502759696;15.27959365300832;0.2208203089837613;-0.458984375;0.37548828125;-0.2685546875;1.0625;-33.0;-29.8125;
1441975978353982;0.17437744140625;-0.83843994140625;-0.44512939453125;-0.26190185546875;12.646606803472467;15.273219110935424;0.21122717179507874;-0.49560546875;0.33935546875;-0.25244140625;-1.4375;-38.0;-36.4375;
1441975978375984;0.17938232421875;-0.8341064453125;-0.443603515625;-0.27459716796875;12.81100960905695;15.269486419301487;0.2026703771262353;-0.5146484375;0.302734375;-0.24365234375;-2.0625;-42.0625;-43.75;
1441975978398985;0.18487548828125;-0.82940673828125;-0.44134521484375;-0.28851318359375;12.991873242043443;15.268776459971509;0.19438298218221828;-0.5400390625;0.2578125;-0.232421875;-0.75;-45.875;-50.125;
1441975978413986;0.19073486328125;-0.8243408203125;-0.43804931640625;-0.3037109375;13.18971147502281;15.272765063386993;0.18632611609688574;-0.5693359375;0.236328125;-0.20947265625;2.625;-49.6875;-55.625;
1441975978435987;0.1966552734375;-0.81884765625;-0.43426513671875;-0.31976318359375;13.398437657415691;15.277491035285834;0.17663685687571254;-0.6201171875;0.1953125;-0.203125;6.4375;-52.875;-59.9375;
1441975978458988;0.203369140625;-0.81231689453125;-0.4306640625;-0.336669921875;13.622870976851715;15.2783871591623;0.16746371002355878;-0.6796875;0.2158203125;-0.19580078125;9.5;-55.9375;-63.75;
1441975978473989;0.21075439453125;-0.804931640625;-0.426513671875;-0.354736328125;13.865912387741442;15.280182418129574;0.15917768228917986;-0.7353515625;0.21630859375;-0.1962890625;5.8125;-59.8125;-69.5;
1441975978495991;0.21875;-0.796630859375;-0.421142578125;-0.37451171875;14.134056875724097;15.2866164167038;0.15176133168509753;-0.80615234375;0.20166015625;-0.19287109375;5.875;-64.0;-76.0625;
1441975978518992;0.22601318359375;-0.78826904296875;-0.41363525390625;-0.39556884765625;14.415342938923164;15.303979692709168;0.14229297969966662;-0.869140625;0.14404296875;-0.1796875;9.5625;-69.5;-83.125;
1441975978533993;0.23284912109375;-0.77935791015625;-0.404541015625;-0.41815185546875;14.714767804423577;15.327607971037894;0.1300800461337221;-0.9130859375;0.14794921875;-0.16943359375;22.5;-74.75;-88.6875;
1441975978555994;0.23846435546875;-0.7698974609375;-0.39404296875;-0.44171142578125;15.02371380481037;15.353504851453327;0.11013721067431176;-0.9736328125;0.1201171875;-0.15771484375;31.4375;-81.6875;-93.6875;
1441975978578995;0.24359130859375;-0.75994873046875;-0.38446044921875;-0.46417236328125;15.3212682529442;15.368614159489553;0.08468418901187993;-1.060546875;0.1650390625;-0.17138671875;41.625;-89.0;-98.1875;
1441975978593996;0.25048828125;-0.747314453125;-0.375732421875;-0.487548828125;15.646900138802225;15.368446540342585;0.05748262403412875;-1.15185546875;0.25537109375;-0.18115234375;37.5625;-96.9375;-107.875;
1441975978615997;0.2581787109375;-0.73248291015625;-0.3663330078125;-0.51251220703125;16.003794254601885;15.358930388878154;0.02284618178223426;-1.251953125;0.2333984375;-0.1708984375;24.5625;-105.5;-119.5;
1441975978638999;0.26641845703125;-0.7158203125;-0.35595703125;-0.53851318359375;16.3852342528666;15.340845930329445;17.979815795306806;-1.33203125;0.173828125;-0.16357421875;22.6875;-116.375;-130.625;
1441975978654000;0.27520751953125;-0.6971435546875;-0.3453369140625;-0.56494140625;16.785223516049275;15.293641791934377;17.91189320684799;-1.41455078125;0.10205078125;-0.1376953125;22.25;-123.75;-140.625;
1441975978684001;0.284423828125;-0.67633056640625;-0.33447265625;-0.59149169921875;17.20123353018406;15.172140296603565;17.774104991613573;-1.447265625;0.09619140625;-0.09130859375;18.75;-130.375;-148.75;
1441975978707003;0.29400634765625;-0.6536865234375;-0.3233642578125;-0.617919921875;17.625020122445505;14.736170803291602;17.325848812606548;-1.505859375;0.0576171875;-0.0263671875;14.125;-136.75;-155.25;
1441975978722003;0.3040771484375;-0.6295166015625;-0.31158447265625;-0.6435546875;17.871004796217235;9.116426364703951;11.697283284590343;-1.59228515625;0.01025390625;-0.00244140625;10.3125;-141.8125;-161.1875;
1441975978738004;0.31439208984375;-0.60345458984375;-0.29888916015625;-0.66912841796875;17.453040134389685;7.049382994902312;9.622410565823595;-1.685546875;-0.03271484375;0.0244140625;6.75;-143.625;-167.0;
1441975978758005;0.323486328125;-0.57568359375;-0.2845458984375;-0.69500732421875;16.98164407944389;6.8177463034588826;9.374882077890717;-1.7841796875;-0.1181640625;0.01904296875;5.6875;-149.875;-175.25;
1441975978777007;0.3304443359375;-0.5472412109375;-0.2685546875;-0.7205810546875;16.504389329082315;6.75311450586019;9.282014315453472;-1.8173828125;-0.1650390625;0.02197265625;14.125;-158.3125;-182.0625;
1441975978796008;0.3358154296875;-0.51824951171875;-0.25164794921875;-0.7452392578125;16.028719275075414;6.735952923345992;9.229576078728705;-1.81005859375;-0.15771484375;0.0185546875;26.4375;-162.375;-184.25;
1441975978819009;0.339599609375;-0.48883056640625;-0.23388671875;-0.768798828125;15.556705102350584;6.740038062498703;9.19136426715385;-1.76220703125;-0.11279296875;-0.02099609375;33.4375;-164.3125;-185.1875;
1441975978834010;0.34173583984375;-0.4591064453125;-0.2158203125;-0.7911376953125;15.091570464668111;6.759850864330836;9.163336431526348;-1.68212890625;-0.09716796875;-0.03759765625;40.125;-165.25;-185.1875;
1441975978856011;0.34228515625;-0.4290771484375;-0.19781494140625;-0.81219482421875;14.634181639695838;6.791212813100101;9.142686564100469;-1.623046875;-0.0048828125;-0.06640625;45.25;-166.375;-182.875;
1441975978880012;0.3406982421875;-0.399169921875;-0.17962646484375;-0.83209228515625;14.187315910916318;6.8341638767819335;9.125029352460515;-1.52880859375;0.037109375;-0.08740234375;49.25;-167.5625;-179.1875;
1441975978903014;0.33709716796875;-0.36981201171875;-0.1611328125;-0.8507080078125;13.754368210992455;6.884805943704847;9.10538937306409;-1.3955078125;0.095703125;-0.12841796875;57.5;-166.625;-173.625;
1441975978917015;0.33258056640625;-0.342041015625;-0.14349365234375;-0.86712646484375;13.351644532416696;6.9352557505053145;9.084314212331245;-1.2216796875;0.1162109375;-0.130859375;65.5;-162.3125;-167.875;
1441975978939016;0.3289794921875;-0.31689453125;-0.12786865234375;-0.88037109375;12.994617404555234;6.973615207853668;9.06218193477269;-1.05322265625;0.16259765625;-0.1533203125;65.25;-152.125;-155.9375;
1441975978962017;0.326416015625;-0.29620361328125;-0.11407470703125;-0.890380859375;12.700569991927516;6.998419783566609;9.035042090069243;-0.8662109375;0.1884765625;-0.1484375;52.375;-134.25;-139.25;
1441975978976018;0.3226318359375;-0.28607177734375;-0.1046142578125;-0.896240234375;12.546550922434173;7.023487375193016;9.010295204669024;-0.72119140625;0.14892578125;-0.12744140625;41.1875;-107.4375;-119.3125;
1441975978999019;0.31768798828125;-0.28009033203125;-0.09716796875;-0.90069580078125;12.448917193503911;7.053998610393274;8.989833903896406;-0.669921875;0.14697265625;-0.17236328125;39.1875;-82.25;-95.0;
1441975979016020;0.31427001953125;-0.2779541015625;-0.09228515625;-0.903076171875;12.405465729690388;7.072716351374882;8.97225591185704;-0.51025390625;0.29443359375;-0.26904296875;38.625;-59.6875;-73.75;
1441975979036021;0.3123779296875;-0.2813720703125;-0.09075927734375;-0.90283203125;12.438237991132823;7.078660915139896;8.958666322881186;-0.3681640625;0.41796875;-0.34521484375;22.25;-37.375;-53.8125;
1441975979060023;0.31048583984375;-0.2923583984375;-0.09259033203125;-0.8997802734375;12.57028802350317;7.079248851631312;8.947349132146343;-0.3212890625;0.42578125;-0.40478515625;8.875;-10.125;-26.5;
1441975979075024;0.30987548828125;-0.310546875;-0.09844970703125;-0.89324951171875;12.800830463741562;7.066027644994983;8.939710431019089;-0.35107421875;0.46484375;-0.47705078125;3.3125;23.3125;3.25;
1441975979096025;0.30908203125;-0.33612060546875;-0.1080322265625;-0.88311767578125;13.133032356995448;7.046632160361943;8.935267925875095;-0.4345703125;0.45947265625;-0.49609375;-11.3125;54.625;32.875;
1441975979127027;0.30865478515625;-0.36041259765625;-0.11822509765625;-0.872314453125;13.456478568397653;7.024708667652463;8.934749624492019;-0.55615234375;0.47216796875;-0.5234375;-18.9375;85.4375;62.625;
1441975979141027;0.30926513671875;-0.3896484375;-0.13232421875;-0.85736083984375;13.85859652652184;6.98888956378389;8.938890422141135;-0.7041015625;0.60302734375;-0.63525390625;-22.3125;111.25;89.4375;
1441975979156028;0.31109619140625;-0.42010498046875;-0.14874267578125;-0.83941650390625;14.292261045075659;6.938871085291362;8.944535002286411;-0.876953125;0.7529296875;-0.76025390625;-39.8125;134.8125;114.8125;
1441975979179030;0.31024169921875;-0.45867919921875;-0.16748046875;-0.81573486328125;14.84459283146028;6.882910329751034;8.937793094684675;-1.1767578125;0.8115234375;-0.921875;-54.375;162.125;144.3125;
1441975979201031;0.3037109375;-0.50653076171875;-0.189208984375;-0.7845458984375;15.545127482081464;6.835954471170756;8.925589179710231;-1.359375;0.76318359375;-0.97802734375;-50.5;208.75;181.375;
1441975979216032;0.2918701171875;-0.5616455078125;-0.21405029296875;-0.7440185546875;16.388050375250533;6.785565425009525;8.903607226265839;-1.64111328125;0.7119140625;-0.958984375;-36.125;261.1875;234.0;
1441975979238033;0.27655029296875;-0.6195068359375;-0.24310302734375;-0.693359375;17.342751112787727;6.702006728498009;8.86145141564008;-2.0830078125;0.87744140625;-0.94970703125;-29.9375;309.9375;286.6875;
1441975979261034;0.25665283203125;-0.67864990234375;-0.27325439453125;-0.63165283203125;17.59606329195692;15.926260402122368;0.12817937608152563;-2.51220703125;0.8818359375;-0.8388671875;-42.0625;343.375;333.125;
1441975979276035;0.2344970703125;-0.73358154296875;-0.30401611328125;-0.56085205078125;16.486986702402092;15.774406198324137;0.03324595476442866;-2.9033203125;0.96044921875;-0.90576171875;-43.625;380.125;371.4375;
1441975979299036;0.2113037109375;-0.78076171875;-0.3348388671875;-0.48345947265625;15.368360182438447;15.703590507044476;0.04002122484133804;-3.21875;0.990234375;-1.0888671875;-58.0;396.0;391.0625;
1441975979322038;0.19512939453125;-0.81365966796875;-0.37188720703125;-0.402099609375;14.3072406096611;15.587675250301455;0.08805746409634334;-3.4208984375;1.3330078125;-1.31982421875;-77.0;396.875;396.6875;
1441975979336039;0.192138671875;-0.82366943359375;-0.4263916015625;-0.3209228515625;13.382178404986004;15.331525301006598;0.1701753856743375;-3.31494140625;1.79736328125;-1.47705078125;-157.125;380.875;372.5;
1441975979358040;0.19097900390625;-0.814697265625;-0.487060546875;-0.2503662109375;12.643519658221308;14.991711507191205;0.23987165501754812;-3.5126953125;1.67578125;-1.2216796875;-318.3125;335.9375;325.1875;
1441975979381041;0.1815185546875;-0.8043212890625;-0.53302001953125;-0.19000244140625;11.994084804033157;14.726047352285475;0.29621642356320055;-3.58447265625;1.15771484375;-0.81103515625;-385.6875;247.8125;280.625;
1441975979396042;0.166259765625;-0.79925537109375;-0.560791015625;-0.13848876953125;11.40668327843515;14.568613701613266;0.34732358447253175;-3.4765625;0.15576171875;-0.666015625;-296.5625;190.6875;268.125;
1441975979419043;0.1533203125;-0.7860107421875;-0.59124755859375;-0.0958251953125;10.938501982758243;14.37144607603567;0.38901449555087475;-3.15869140625;0.04736328125;-0.8701171875;-180.75;156.4375;252.8125;
1441975979441045;0.140380859375;-0.7662353515625;-0.624267578125;-0.0599365234375;10.549104755701403;14.139981768454222;0.41850625572229744;-2.89697265625;0.24560546875;-0.69287109375;-212.75;114.625;208.3125;
1441975979456045;0.12689208984375;-0.7518310546875;-0.6463623046875;-0.0316162109375;10.221308399628464;13.978666328445124;0.4411511022511763;-2.3720703125;-0.14013671875;-0.408203125;-240.5625;77.9375;180.75;
1441975979479047;0.11376953125;-0.7476806640625;-0.6541748046875;-0.01068115234375;9.948664927512734;13.919476797607148;0.455448002459088;-1.91259765625;-0.40283203125;-0.2490234375;-166.875;53.4375;156.5625;
1441975979501048;0.1046142578125;-0.75091552734375;-0.652099609375;0.00189208984375;9.767702414355368;13.934027404636899;0.4632904992715426;-1.435546875;-0.4833984375;-0.2138671875;-62.0625;35.1875;132.4375;
