1441975334112134;-0.8856201171875;-0.05450439453125;-0.32989501953125;-0.32244873046875;5.6693339412481505;15.67096630651455;10.085904608201991;1.84912109375;0.25732421875;0.0478515625;273.3125;-29.375;-213.375;
1441975334134135;-0.898193359375;-0.088623046875;-0.31463623046875;-0.29412841796875;5.913497664674765;15.856118113103843;10.182179894626525;1.64453125;0.46142578125;-0.0419921875;290.875;-31.875;-192.625;
1441975334158136;-0.90545654296875;-0.11065673828125;-0.30242919921875;-0.27667236328125;6.089645813139248;15.973058748234209;10.24435326824587;1.3974609375;0.8369140625;-9.765625E-4;244.9375;-44.375;-151.3125;
1441975334172137;-0.90655517578125;-0.12091064453125;-0.30230712890625;-0.26885986328125;6.11162531349297;16.009918648582676;10.292324607094537;1.345703125;0.8232421875;-0.03076171875;157.0;-45.1875;-105.4375;
1441975334201139;-0.906005859375;-0.12725830078125;-0.30194091796875;-0.26824951171875;6.139513689393797;16.00640240443627;10.327855195305268;1.26611328125;0.40087890625;-0.10400390625;74.5;-37.3125;-76.125;
1441975334217140;-0.90533447265625;-0.13079833984375;-0.29962158203125;-0.271240234375;6.186694099242269;15.988898586888139;10.346298377257355;1.11962890625;0.25390625;-0.01513671875;24.5625;-43.1875;-68.5;
1441975334240141;-0.90264892578125;-0.130615234375;-0.29931640625;-0.28045654296875;6.21568070984521;15.93129875165735;10.358097547941513;0.92724609375;0.32666015625;-0.1962890625;-1.5;-45.0625;-53.875;
1441975334254142;-0.9007568359375;-0.1328125;-0.30059814453125;-0.28411865234375;6.222353923679778;15.901692041838716;10.380468753838349;0.86328125;0.1669921875;-0.197265625;-52.125;-38.0625;-46.875;
1441975334277143;-0.899169921875;-0.136962890625;-0.3035888671875;-0.28411865234375;6.209181967832753;15.88819673143805;10.414264604445162;0.8349609375;0.04833984375;-0.24267578125;-27.1875;-19.6875;-49.625;
1441975334300145;-0.898193359375;-0.14166259765625;-0.306884765625;-0.28131103515625;6.186711232902318;15.890651993895698;10.448333953349989;0.77099609375;0.1513671875;-0.2626953125;-2.0;-1.8125;-44.75;
1441975334314145;-0.8970947265625;-0.14495849609375;-0.31146240234375;-0.278076171875;6.14358259642709;15.893588599695013;10.477855317398543;0.66943359375;0.3271484375;-0.37548828125;17.5625;10.3125;-31.875;
1441975334337147;-0.89544677734375;-0.14599609375;-0.3187255859375;-0.2745361328125;6.06203588904145;15.892905811939261;10.502775446317083;0.69287109375;0.39697265625;-0.3916015625;18.8125;14.9375;-20.125;
1441975334359148;-0.89300537109375;-0.14544677734375;-0.3287353515625;-0.27099609375;5.945377876089567;15.885232056001863;10.528040847462252;0.75048828125;0.451171875;-0.42236328125;14.5;25.4375;-4.25;
1441975334374149;-0.8896484375;-0.1431884765625;-0.3406982421875;-0.26849365234375;5.8046010528940295;15.865843954469057;10.552629859383684;0.7451171875;0.44384765625;-0.404296875;8.1875;38.875;8.375;
1441975334397150;-0.8853759765625;-0.13897705078125;-0.35443115234375;-0.26690673828125;5.6400425028475905;15.835623280503162;10.575254272161827;0.70947265625;0.47900390625;-0.3994140625;-1.8125;49.875;21.125;
1441975334426152;-0.880615234375;-0.13287353515625;-0.3695068359375;-0.265380859375;5.453510872523536;15.801193173985602;10.593756473135095;0.703125;0.478515625;-0.423828125;-14.375;59.625;32.625;
1441975334434152;-0.875244140625;-0.12542724609375;-0.38653564453125;-0.26263427734375;5.236429407256777;15.767123830120044;10.612275328615528;0.7294921875;0.423828125;-0.4541015625;-24.6875;66.625;41.75;
1441975334457154;-0.86932373046875;-0.1180419921875;-0.40545654296875;-0.25701904296875;4.989457078173258;15.741040038463382;10.636776314391513;0.7890625;0.36376953125;-0.376953125;-23.5;72.6875;49.75;
1441975334480155;-0.86260986328125;-0.11212158203125;-0.425537109375;-0.249755859375;4.730831858240585;15.713898864817487;10.676228322012415;0.873046875;0.3232421875;-0.3466796875;-11.8125;83.5;55.0625;
1441975334494156;-0.855712890625;-0.10662841796875;-0.4443359375;-0.2430419921875;4.488423750448219;15.682268071059868;10.718721728369605;0.93212890625;0.39453125;-0.375;-1.0625;96.0;55.75;
1441975334517157;-0.84771728515625;-0.0997314453125;-0.46331787109375;-0.2384033203125;4.244542930161342;15.631291199296005;10.76492025710121;0.96630859375;0.4609375;-0.39404296875;-1.625;102.8125;62.8125;
1441975334538158;-0.83880615234375;-0.09112548828125;-0.4827880859375;-0.2347412109375;3.990739236348484;15.566496236456716;10.813312474211713;1.015625;0.41796875;-0.298828125;-16.8125;102.5625;64.1875;
1441975334554159;-0.82861328125;-0.0814208984375;-0.50360107421875;-0.230712890625;3.715977893956769;15.488194006523397;10.872399739855737;1.10986328125;0.35302734375;-0.2666015625;-28.125;103.625;68.25;
1441975334577160;-0.81768798828125;-0.07098388671875;-0.52471923828125;-0.22613525390625;3.4319101084977293;15.40020975110949;10.940508145415485;1.2041015625;0.35595703125;-0.357421875;-32.4375;114.4375;75.75;
1441975334600162;-0.8070068359375;-0.05950927734375;-0.5445556640625;-0.22088623046875;3.151346440169007;15.314891132015157;11.004219080161599;1.2314453125;0.45458984375;-0.330078125;-32.75;117.1875;82.4375;
1441975334614163;-0.7960205078125;-0.04620361328125;-0.5631103515625;-0.21734619140625;2.8799757991365484;15.21457264082581;11.067732793017996;1.208984375;0.4267578125;-0.31396484375;-31.875;110.6875;88.375;
1441975334637164;-0.78436279296875;-0.03253173828125;-0.5814208984375;-0.21392822265625;2.609289162062737;15.095175977288399;11.14827815598061;1.19677734375;0.27197265625;-0.20947265625;-45.5625;101.9375;88.25;
1441975334658165;-0.77215576171875;-0.019287109375;-0.59942626953125;-0.2100830078125;2.342843183637102;14.953127732093582;11.254933127369274;1.31884765625;0.18603515625;-0.2412109375;-48.75;103.125;87.5;
1441975334674166;-0.7596435546875;-0.0048828125;-0.61712646484375;-0.20538330078125;2.069350277270803;14.792169158685748;11.379251138918876;1.447265625;0.22021484375;-0.2822265625;-46.3125;105.8125;86.9375;
1441975334697167;-0.74725341796875;0.01171875;-0.63372802734375;-0.1998291015625;1.7874750780055093;14.620095786303771;11.50897994601749;1.41650390625;0.373046875;-0.26904296875;-46.1875;104.8125;98.1875;
1441975334718169;-0.73406982421875;0.03057861328125;-0.64947509765625;-0.19610595703125;1.5105676914973296;14.388249548168012;11.681264873604631;1.3759765625;0.408203125;-0.2607421875;-50.1875;98.5625;111.0;
1441975334734169;-0.72064208984375;0.048583984375;-0.66485595703125;-0.19061279296875;1.238807822085399;14.082437885063316;11.938045157680715;1.36328125;0.28466796875;-0.2880859375;-67.5;96.0625;112.1875;
1441975334757171;-0.7080078125;0.06427001953125;-0.67938232421875;-0.18212890625;0.983897764756732;13.679047933316003;12.313885938985134;1.32373046875;0.20263671875;-0.2431640625;-57.25;96.6875;114.375;
1441975334778172;-0.69622802734375;0.07879638671875;-0.692626953125;-0.17144775390625;0.7518200940464318;13.100590886965083;12.87801181452787;1.24951171875;0.17041015625;-0.21044921875;-35.0;92.0;115.5625;
1441975334794173;-0.68487548828125;0.09393310546875;-0.70440673828125;-0.161376953125;0.5691440615114628;12.171811923368203;13.786875286996226;1.1875;0.26904296875;-0.19189453125;-21.1875;84.0625;120.6875;
1441975334817174;-0.67413330078125;0.10821533203125;-0.71484375;-0.15142822265625;0.4811767693149537;10.805988231135286;15.135193241351775;1.1455078125;0.21240234375;-0.20751953125;-26.3125;77.1875;118.9375;
1441975334838175;-0.664794921875;0.12066650390625;-0.72369384765625;-0.14093017578125;0.5048402836008132;9.415783181440899;16.51724911319521;1.0859375;0.138671875;-0.16845703125;-23.5;69.6875;113.1875;
1441975334854176;-0.658447265625;0.1312255859375;-0.72943115234375;-0.13104248046875;0.575410974535299;8.45755893756259;17.472338555558665;1.06005859375;0.06591796875;-0.1298828125;-13.25;59.3125;105.25;
1441975334877178;-0.65362548828125;0.14031982421875;-0.73370361328125;-0.1219482421875;0.6660567728991754;7.8186798659924746;0.11080370784171162;1.03857421875;0.07080078125;-0.1064453125;-7.75;47.25;96.6875;
1441975334898179;-0.65020751953125;0.14849853515625;-0.736328125;-0.11456298828125;0.7505338891468745;7.38752195588166;0.5381979660350334;0.99658203125;0.044921875;-0.1015625;-4.3125;37.3125;85.5;
1441975334914180;-0.64862060546875;0.155517578125;-0.73724365234375;-0.1082763671875;0.8143782284137061;7.0581347231280676;0.8641544210326616;0.9443359375;0.02978515625;-0.0849609375;-7.0;25.625;73.0625;
1441975334937181;-0.649169921875;0.161865234375;-0.73602294921875;-0.1038818359375;0.846886501542663;6.770631622753161;1.143353452121025;0.88720703125;0.01318359375;-0.07958984375;-6.25;12.625;61.0;
1441975334975183;-0.651611328125;0.16796875;-0.7327880859375;-0.1014404296875;0.8511881463489791;6.482568807732967;1.4161981819309148;0.86376953125;0.03125;-0.07666015625;-10.9375;-3.0625;49.3125;
1441975334981184;-0.6558837890625;0.17364501953125;-0.727783203125;-0.10064697265625;0.8308972989154438;6.167644559476744;1.7110861883187045;0.83154296875;0.021484375;-0.0673828125;-18.0;-18.125;36.75;
1441975334997184;-0.66162109375;0.17779541015625;-0.7215576171875;-0.10040283203125;0.7937718747236131;5.819188224219143;2.043596435109499;0.80517578125;-0.00146484375;-0.05419921875;-22.9375;-32.25;24.1875;
1441975335020186;-0.6688232421875;0.17938232421875;-0.714599609375;-0.09979248046875;0.7444452311071622;5.4248219420271395;2.434271383242651;0.78759765625;-0.041015625;-0.04833984375;-18.5625;-43.25;11.4375;
1441975335034187;-0.67742919921875;0.17828369140625;-0.7069091796875;-0.0985107421875;0.6894878003016838;4.948735148140897;2.9205630871404593;0.7607421875;-0.04931640625;-0.044921875;-6.875;-52.4375;0.375;
1441975335057188;-0.68756103515625;0.175048828125;-0.697998046875;-0.09710693359375;0.6375128978038384;4.325711613479715;3.5630147100319975;0.7607421875;-0.01611328125;-0.0478515625;6.8125;-61.0625;-7.25;
1441975335080189;-0.69903564453125;0.17108154296875;-0.6876220703125;-0.09637451171875;0.6126455676903068;3.5198299673668285;4.388465425490493;0.78662109375;0.05859375;-0.07177734375;15.4375;-70.75;-12.125;
1441975335094190;-0.711181640625;0.167236328125;-0.67596435546875;-0.09674072265625;0.6388473992622952;2.6340056333777544;5.288526138088619;0.8017578125;0.1259765625;-0.099609375;15.75;-80.5;-15.5;
1441975335117191;-0.7236328125;0.16363525390625;-0.663330078125;-0.0982666015625;0.7210742754070589;1.8307535933469115;6.099914528563289;0.7978515625;0.14208984375;-0.10888671875;9.8125;-88.4375;-20.25;
1441975335140193;-0.73590087890625;0.16033935546875;-0.650146484375;-0.1007080078125;0.8470714837856312;1.20738120245043;6.726007770120887;0.78369140625;0.15087890625;-0.1181640625;3.9375;-93.3125;-24.75;
1441975335161194;-0.74786376953125;0.1572265625;-0.6365966796875;-0.10400390625;1.000638637940305;0.7438964411095785;7.1875662981467485;0.7763671875;0.1416015625;-0.130859375;-1.375;-95.625;-28.875;
1441975335176195;-0.75921630859375;0.15460205078125;-0.6229248046875;-0.1080322265625;1.1690551097728232;0.4052930923608587;7.5188003084480695;0.7919921875;0.14892578125;-0.16943359375;-5.875;-94.5;-31.375;
1441975335200196;-0.7701416015625;0.15228271484375;-0.60919189453125;-0.11260986328125;1.3462104138130828;0.1487989353582413;7.764105970305349;0.84521484375;0.13916015625;-0.203125;-10.9375;-92.8125;-33.0;
1441975335221197;-0.7801513671875;0.15045166015625;-0.595703125;-0.117919921875;1.5220656501207919;17.948257755826766;7.948000577405612;0.8837890625;0.14453125;-0.2431640625;-14.9375;-91.1875;-34.0;
1441975335236198;-0.78924560546875;0.14886474609375;-0.5828857421875;-0.12359619140625;1.6906326711310615;17.78750280846016;8.089397067777178;0.8828125;0.14111328125;-0.2646484375;-19.6875;-86.875;-34.875;
1441975335260200;-0.7972412109375;0.14715576171875;-0.57110595703125;-0.129150390625;1.8460298446622194;17.65681780216881;8.201576995374905;0.888671875;0.1337890625;-0.283203125;-22.5625;-81.5625;-35.25;
1441975335281201;-0.80413818359375;0.14508056640625;-0.5606689453125;-0.13409423828125;1.984691778989602;17.551157263190042;8.292790530471782;0.908203125;0.11865234375;-0.28076171875;-22.1875;-75.375;-35.9375;
1441975335297202;-0.81011962890625;0.1424560546875;-0.5517578125;-0.13812255859375;2.1054805602803794;17.465977213528713;8.369884160783986;0.919921875;0.1015625;-0.28125;-18.25;-67.625;-36.0;
1441975335320203;-0.8150634765625;0.1392822265625;-0.54449462890625;-0.14105224609375;2.2059162277165885;17.398717581364835;8.436199059002414;0.94140625;0.09814453125;-0.2919921875;-11.9375;-59.0625;-34.625;
1441975335348205;-0.8189697265625;0.13580322265625;-0.53900146484375;-0.142822265625;2.2842660599582634;17.3484473374126;8.492062655947493;0.9638671875;0.11474609375;-0.30712890625;-4.375;-49.5;-31.4375;
1441975335366206;-0.822021484375;0.13226318359375;-0.53515625;-0.143310546875;2.342257482945809;17.315838869905235;8.536379591350446;0.986328125;0.14306640625;-0.32373046875;3.0625;-39.125;-26.125;
1441975335387207;-0.82403564453125;0.1287841796875;-0.532958984375;-0.1427001953125;2.3782460035294912;17.297472107171345;8.571187737677416;0.98828125;0.16748046875;-0.34912109375;10.25;-28.4375;-19.5625;
1441975335401208;-0.82513427734375;0.12548828125;-0.532470703125;-0.14111328125;2.392082628666021;17.29168892080977;8.597294909365525;0.97119140625;0.1708984375;-0.3515625;16.0625;-18.3125;-13.3125;
1441975335416208;-0.8253173828125;0.12255859375;-0.533447265625;-0.1390380859375;2.385866723887757;17.293542893597994;8.616701674683616;0.953125;0.1875;-0.3408203125;20.875;-8.75;-6.625;
1441975335440210;-0.82452392578125;0.12042236328125;-0.5357666015625;-0.13690185546875;2.3600613585379477;17.30108340872233;8.627718326336119;0.9482421875;0.203125;-0.333984375;22.8125;0.1875;-0.125;
1441975335461211;-0.82275390625;0.11920166015625;-0.53912353515625;-0.13519287109375;2.317556150534359;17.309615908239707;8.632310518518628;0.94189453125;0.21533203125;-0.33837890625;21.25;9.5;6.125;
1441975335477212;-0.82012939453125;0.1192626953125;-0.54345703125;-0.1336669921875;2.259427357637968;17.325571924040347;8.623599869258669;0.919921875;0.21875;-0.31640625;16.5625;16.75;11.5;
1441975335507214;-0.81671142578125;0.120361328125;-0.5487060546875;-0.13232421875;2.186919405934141;17.34798001672053;8.60356014286054;0.9091796875;0.205078125;-0.31982421875;11.5;24.3125;17.5625;
1441975335522215;-0.8126220703125;0.122314453125;-0.55462646484375;-0.1309814453125;2.103383724776026;17.37901777775458;8.571422371896542;0.9052734375;0.1904296875;-0.3134765625;6.5;30.875;22.8125;
1441975335536215;-0.80810546875;0.12469482421875;-0.56103515625;-0.12945556640625;2.012572636106097;17.419006494710608;8.529394780889982;0.89453125;0.16552734375;-0.3037109375;3.6875;36.0;26.75;
1441975335560217;-0.80322265625;0.1273193359375;-0.56768798828125;-0.12786865234375;1.9174446912028051;17.4660871814925;8.479449738649542;0.8818359375;0.1416015625;-0.2841796875;2.5;39.4375;28.875;
1441975335581218;-0.79827880859375;0.130126953125;-0.57440185546875;-0.12652587890625;1.8218239121153048;17.51655497626626;8.424402318247926;0.869140625;0.12158203125;-0.27734375;1.6875;41.9375;29.9375;
1441975335605219;-0.793212890625;0.13299560546875;-0.58099365234375;-0.12518310546875;1.7271920550341608;17.57339504915081;8.36256532624593;0.86376953125;0.10986328125;-0.27490234375;-0.0625;43.625;29.9375;
1441975335635221;-0.78826904296875;0.13568115234375;-0.58734130859375;-0.1239013671875;1.636357301169498;17.633449100809745;8.29792534079827;0.85791015625;0.08349609375;-0.26220703125;-1.3125;43.75;29.0;
1441975335648222;-0.7835693359375;0.1380615234375;-0.59332275390625;-0.122802734375;1.5511021977526758;17.69287885609248;8.234317801241069;0.861328125;0.0712890625;-0.2607421875;-0.875;43.0;27.5;
1441975335657222;-0.7791748046875;0.14013671875;-0.59869384765625;-0.12200927734375;1.4737739635596159;17.748174015126235;8.174620828249973;0.8525390625;0.0625;-0.24951171875;-1.25;41.0625;24.9375;
1441975335680224;-0.7752685546875;0.1419677734375;-0.60345458984375;-0.12158203125;1.4053726600491425;17.79723456555655;8.120583064325503;0.8515625;0.0556640625;-0.2392578125;-1.6875;38.125;21.625;
1441975335701225;-0.77178955078125;0.14373779296875;-0.607421875;-0.1217041015625;1.346795357274253;17.837057883293184;8.073552450706334;0.86328125;0.05078125;-0.23681640625;-2.6875;34.4375;18.5625;
1441975335717226;-0.76885986328125;0.1453857421875;-0.61053466796875;-0.1224365234375;1.2990557056482077;17.862988886299203;8.038231394108463;0.88916015625;0.0537109375;-0.24072265625;-5.0625;30.3125;15.75;
1441975335740227;-0.76654052734375;0.14703369140625;-0.61285400390625;-0.12353515625;1.2622877393615644;17.87977262491964;8.0104577616597;0.91796875;0.0625;-0.23828125;-7.9375;25.3125;12.9375;
1441975335761228;-0.76470947265625;0.1484375;-0.61456298828125;-0.12493896484375;1.2337367516514846;17.884197484210247;7.994710631013551;0.91748046875;0.04931640625;-0.2470703125;-9.5;20.875;9.75;
1441975335783229;-0.7633056640625;0.1495361328125;-0.61566162109375;-0.1265869140625;1.2129300794669566;17.87560170053548;7.9920883449498135;0.91552734375;0.05029296875;-0.24951171875;-10.375;17.4375;6.8125;
1441975335799230;-0.76239013671875;0.15057373046875;-0.6162109375;-0.12835693359375;1.2002012232182637;17.86018477198344;7.995998045591014;0.9267578125;0.06103515625;-0.25732421875;-10.5;14.5;4.8125;
1441975335821232;-0.76202392578125;0.15155029296875;-0.61602783203125;-0.13018798828125;1.1977080932385114;17.83849004108106;8.006039402838333;0.935546875;0.064453125;-0.2744140625;-11.0;11.5625;3.0625;
1441975335836232;-0.7620849609375;0.15234375;-0.61541748046875;-0.13177490234375;1.202206888551057;17.81644913322325;8.018131803579912;0.93505859375;0.0625;-0.29443359375;-11.0;8.0625;1.5625;
1441975335859234;-0.7625732421875;0.1527099609375;-0.61444091796875;-0.13287353515625;1.2132540144208843;17.795522758404154;8.032811326035738;0.92724609375;0.05029296875;-0.30078125;-9.6875;4.75;-0.125;
1441975335882235;-0.763427734375;0.15264892578125;-0.61334228515625;-0.13348388671875;1.228264903694193;17.776818057640835;8.049122440983876;0.93408203125;0.0419921875;-0.3017578125;-6.5;1.8125;-1.5;
1441975335897236;-0.7646484375;0.152099609375;-0.61187744140625;-0.13360595703125;1.2493495454969723;17.758838418054648;8.068604426162313;0.9384765625;0.03271484375;-0.302734375;-2.5625;-0.5625;-2.8125;
1441975335919237;-0.7664794921875;0.151123046875;-0.60986328125;-0.13348388671875;1.279667401311542;17.737135855361274;8.094540575115198;0.91845703125;0.01318359375;-0.29150390625;0.75;-4.125;-5.5;
1441975335942239;-0.7686767578125;0.14990234375;-0.6075439453125;-0.13287353515625;1.3157289629069175;17.721080523863268;8.117807572537856;0.88916015625;0.009765625;-0.28955078125;3.375;-8.3125;-7.5;
1441975335956239;-0.77130126953125;0.14813232421875;-0.6048583984375;-0.1317138671875;1.3583510545091126;17.70695385563074;8.143592506826483;0.875;-0.00927734375;-0.291015625;5.9375;-11.75;-8.9375;
1441975335979241;-0.7744140625;0.14569091796875;-0.60186767578125;-0.1297607421875;1.4075819741216562;17.69785364571828;8.170371298843984;0.865234375;-0.0244140625;-0.29443359375;10.0625;-14.5;-10.875;
1441975336003242;-0.7781982421875;0.142578125;-0.598388671875;-0.126953125;1.4663804354060068;17.69441014574822;8.19777177400323;0.8603515625;-0.0224609375;-0.298828125;16.125;-18.1875;-12.1875;
1441975336016243;-0.7823486328125;0.13916015625;-0.59442138671875;-0.12359619140625;1.532486554240158;17.696471211710637;8.223033203743583;0.8583984375;-0.01611328125;-0.30224609375;22.1875;-23.0;-12.625;
1441975336039244;-0.78680419921875;0.1357421875;-0.59002685546875;-0.12017822265625;1.6046261717182482;17.699629555556808;8.247394118970153;0.86865234375;-0.0126953125;-0.30029296875;25.625;-28.1875;-12.6875;
1441975336062245;-0.7913818359375;0.1328125;-0.58526611328125;-0.116943359375;1.680974713783037;17.70598299904729;8.265723234729832;0.90869140625;0.01708984375;-0.29541015625;26.4375;-32.8125;-10.75;
1441975336100248;-0.79583740234375;0.130615234375;-0.58013916015625;-0.1141357421875;1.7597668367810988;17.71414929371501;8.277254389187245;0.98046875;0.04150390625;-0.30419921875;24.0625;-36.6875;-8.4375;
1441975336102248;-0.8004150390625;0.12896728515625;-0.57476806640625;-0.1116943359375;1.8415282572418594;17.722547088150655;8.284809855612334;1.0458984375;0.03662109375;-0.31689453125;19.125;-39.875;-7.125;
1441975336145250;-0.80474853515625;0.12744140625;-0.5693359375;-0.109619140625;1.9219487367998302;17.72704733762295;8.294106869432378;1.046875;0.00244140625;-0.3271484375;14.9375;-41.75;-8.5625;
1441975336148250;-0.8089599609375;0.12615966796875;-0.56402587890625;-0.10772705078125;2.000356768473588;17.73181143901142;8.30144087158891;1.0205078125;-0.02880859375;-0.32421875;12.0625;-41.875;-10.875;
1441975336159251;-0.81298828125;0.12542724609375;-0.5587158203125;-0.1058349609375;2.0777561758247356;17.74181447624912;8.30120774798835;1.00927734375;-0.03369140625;-0.34228515625;10.1875;-40.5625;-10.6875;
1441975336182252;-0.816650390625;0.125;-0.5537109375;-0.10430908203125;2.1497109719986165;17.749990846140893;8.300052908596177;1.0283203125;-0.04833984375;-0.38134765625;7.625;-38.875;-9.1875;
1441975336203253;-0.82000732421875;0.12457275390625;-0.54925537109375;-0.10247802734375;2.21479295458684;17.76250927436978;8.29598054683458;1.04052734375;-0.05029296875;-0.3974609375;5.0;-36.6875;-8.125;
1441975336219254;-0.82281494140625;0.12371826171875;-0.5455322265625;-0.1007080078125;2.2692161796222425;17.77147521558723;8.297094213343309;1.05029296875;-0.05712890625;-0.427734375;6.3125;-32.5;-7.5;
1441975336242256;-0.82513427734375;0.122802734375;-0.54254150390625;-0.09906005859375;2.3134520470063995;17.779418255837456;8.299162615448619;1.072265625;-0.0419921875;-0.44775390625;7.9375;-27.1875;-7.6875;
1441975336263257;-0.82696533203125;0.122314453125;-0.5400390625;-0.097900390625;2.349682419593967;17.785607840594057;8.299259378713078;1.08251953125;-0.0244140625;-0.47216796875;8.0625;-21.0625;-6.4375;
1441975336279258;-0.82855224609375;0.12249755859375;-0.53765869140625;-0.0975341796875;2.3827510043324556;17.787791052833246;8.297302156396434;1.02783203125;-0.0302734375;-0.48681640625;4.4375;-15.5;-5.4375;
1441975336292259;-0.829833984375;0.12298583984375;-0.53564453125;-0.0972900390625;2.410428178688038;17.791395999197157;8.292216309300164;0.912109375;-0.0478515625;-0.46044921875;-2.0;-12.8125;-5.4375;
1441975336324260;-0.830810546875;0.12335205078125;-0.53411865234375;-0.09637451171875;2.432146681258729;17.80252320858413;8.282974043295216;0.796875;-0.08056640625;-0.404296875;-4.125;-10.875;-5.6875;
1441975336338261;-0.83160400390625;0.12347412109375;-0.533203125;-0.09454345703125;2.447738449052587;17.823088329218603;8.269323086494797;0.72314453125;-0.08837890625;-0.3681640625;-0.5;-8.5;-4.25;
1441975336355262;-0.8321533203125;0.12359619140625;-0.5328369140625;-0.092041015625;2.4573739077214976;17.85204486759979;8.250232015523583;0.70068359375;-0.0537109375;-0.3662109375;5.625;-5.125;0.3125;
1441975336376263;-0.83221435546875;0.124267578125;-0.532958984375;-0.0892333984375;2.4601990422386586;17.889436915006566;8.221707943897036;0.7119140625;0.0068359375;-0.384765625;11.375;-1.4375;7.3125;
1441975336398265;-0.8319091796875;0.12591552734375;-0.533447265625;-0.0872802734375;2.4572212032396585;17.925046136249325;8.187466137538165;0.75537109375;0.0654296875;-0.40869140625;12.9375;2.125;14.8125;
1441975336412265;-0.8309326171875;0.12890625;-0.5343017578125;-0.0865478515625;2.4464364263246923;17.957932351392348;8.145252217834498;0.8046875;0.1064453125;-0.44677734375;7.0625;5.9375;20.5625;
1441975336446267;-0.8294677734375;0.13323974609375;-0.53546142578125;-0.0870361328125;2.4296119101030396;17.988179263404792;8.095070505495627;0.85595703125;0.1123046875;-0.46142578125;-2.4375;9.625;24.3125;
1441975336466269;-0.82745361328125;0.1385498046875;-0.5369873046875;-0.08831787109375;2.406144160663063;0.018556988544283552;8.037413723008996;0.90283203125;0.08935546875;-0.48876953125;-12.9375;13.375;26.375;
1441975336473269;-0.8250732421875;0.1444091796875;-0.5389404296875;-0.08953857421875;2.3776728945576107;0.056162985944378074;7.97060239263291;0.923828125;0.037109375;-0.48876953125;-21.0;16.8125;26.375;
1441975336495270;-0.822509765625;0.15008544921875;-0.54119873046875;-0.09014892578125;2.3468727873276802;0.10184044972686686;7.899073250018797;0.92822265625;-0.03515625;-0.4716796875;-24.25;18.5625;25.25;
1441975336518271;-0.820068359375;0.15496826171875;-0.5435791015625;-0.08978271484375;2.3174598829478303;0.15453201646414882;7.8279423807836235;0.92138671875;-0.08544921875;-0.45068359375;-22.0;19.25;23.1875;
1441975336532272;-0.81805419921875;0.1585693359375;-0.54571533203125;-0.08856201171875;2.2937439343066672;0.20725395301911628;7.76562401351023;0.91650390625;-0.13134765625;-0.42333984375;-15.6875;18.1875;20.625;
1441975336555274;-0.81671142578125;0.16070556640625;-0.54742431640625;-0.08709716796875;2.276876161735843;0.2496128216891812;7.720804933750069;0.896484375;-0.1435546875;-0.40478515625;-7.8125;14.9375;16.0;
1441975336578275;-0.8160400390625;0.16204833984375;-0.5482177734375;-0.0860595703125;2.2704613355859293;0.27664074562614566;7.692626478122581;0.88427734375;-0.12158203125;-0.38037109375;-1.5;10.25;10.9375;
1441975336592276;-0.81585693359375;0.1632080078125;-0.548095703125;-0.0860595703125;2.272674842329155;0.28581147303144605;7.678515374595246;0.884765625;-0.087890625;-0.37939453125;-0.1875;5.0;7.1875;
1441975336624278;-0.816162109375;0.1644287109375;-0.547119140625;-0.087158203125;2.2831131633801163;0.27841591016013817;7.675982453439138;0.89501953125;-0.0634765625;-0.38427734375;-4.5;0.0;3.75;
1441975336638278;-0.8167724609375;0.16558837890625;-0.5455322265625;-0.089111328125;2.298801177672404;0.25780366672248395;7.683206895489418;0.91357421875;-0.05712890625;-0.39306640625;-10.3125;-4.4375;0.25;
1441975336654279;-0.81787109375;0.16644287109375;-0.54327392578125;-0.09136962890625;2.3224119206567875;0.22827084286729526;7.699203508033722;0.9130859375;-0.05810546875;-0.3876953125;-14.4375;-8.1875;-3.625;
1441975336675280;-0.81927490234375;0.1669921875;-0.54058837890625;-0.09375;2.3511563012705903;0.19353962847700554;7.721036497605504;0.89990234375;-0.06103515625;-0.39599609375;-15.8125;-11.3125;-7.0625;
1441975336698282;-0.82098388671875;0.167236328125;-0.53741455078125;-0.09625244140625;2.385739406901423;0.1538149049674758;7.748449662512199;0.88818359375;-0.0556640625;-0.41162109375;-15.3125;-13.3125;-9.6875;
1441975336712283;-0.82293701171875;0.16705322265625;-0.53399658203125;-0.09893798828125;2.423351295347023;0.10870484964365111;7.782224556532111;0.86669921875;-0.05712890625;-0.42724609375;-15.625;-15.25;-12.4375;
1441975336735284;-0.824951171875;0.1663818359375;-0.53057861328125;-0.10137939453125;2.461581270494689;0.06390629215743363;7.8187006875021225;0.84423828125;-0.0517578125;-0.42919921875;-15.3125;-16.375;-15.1875;
1441975336758285;-0.82708740234375;0.1649169921875;-0.52734375;-0.1036376953125;2.498637413020762;0.01696062083823821;7.86153291940341;0.83984375;-0.06787109375;-0.4248046875;-13.1875;-16.8125;-18.25;
1441975336772286;-0.8292236328125;0.16265869140625;-0.52435302734375;-0.10528564453125;2.534160983636296;17.973031806144142;7.907257640132365;0.82568359375;-0.06396484375;-0.4189453125;-9.9375;-16.6875;-21.5625;
1441975336795287;-0.83123779296875;0.15972900390625;-0.5218505859375;-0.1064453125;2.565027437824692;17.932145229063348;7.954964395211311;0.8037109375;-0.060546875;-0.4150390625;-4.5625;-15.625;-23.4375;
1441975336818289;-0.8328857421875;0.15606689453125;-0.52008056640625;-0.10723876953125;2.587179510435837;17.892962640337053;8.0057493410453;0.8076171875;-0.04248046875;-0.4072265625;0.75;-13.6875;-24.3125;
1441975336833290;-0.834228515625;0.15216064453125;-0.51904296875;-0.1077880859375;2.6012199091595156;17.857005936582954;8.055649063982406;0.83837890625;-0.00341796875;-0.4130859375;5.9375;-10.25;-23.5;
1441975336864291;-0.8350830078125;0.1483154296875;-0.51849365234375;-0.10870361328125;2.6077087921495465;17.8190202449758;8.105838864217256;0.89111328125;0.0302734375;-0.42529296875;8.9375;-6.5;-21.625;
1441975336878292;-0.83563232421875;0.14471435546875;-0.5184326171875;-0.1097412109375;2.6082069302159034;17.78244491279677;8.153266338542133;0.93115234375;0.0498046875;-0.41943359375;8.0;-4.3125;-20.6875;
1441975336892293;-0.83575439453125;0.141357421875;-0.51898193359375;-0.11077880859375;2.6008577172057072;17.748541245816327;8.197163235378776;0.9462890625;0.04638671875;-0.40185546875;6.4375;-2.8125;-20.125;
1441975336915294;-0.83526611328125;0.13812255859375;-0.52044677734375;-0.11163330078125;2.5816353920328994;17.718567006371515;8.237606674357838;0.95068359375;0.03173828125;-0.38525390625;5.3125;0.4375;-19.5;
1441975336938296;-0.8341064453125;0.13458251953125;-0.523193359375;-0.11187744140625;2.5467857728881502;17.694251714101306;8.276578729666664;0.96875;0.0283203125;-0.3828125;6.25;6.0;-17.9375;
1441975336952296;-0.83233642578125;0.13067626953125;-0.52703857421875;-0.11163330078125;2.498218037302023;17.67311699491289;8.316196688191022;1.0029296875;0.04345703125;-0.38916015625;10.625;13.625;-15.5;
1441975336976298;-0.83026123046875;0.126220703125;-0.53143310546875;-0.1112060546875;2.442808132163315;17.649284018042273;8.361642706277097;1.025390625;0.0595703125;-0.40234375;15.25;21.0625;-13.75;
1441975336998299;-0.8280029296875;0.121337890625;-0.53619384765625;-0.110595703125;2.383172654766914;17.62296873319037;8.412144517487773;0.96923828125;0.06640625;-0.3876953125;17.8125;26.4375;-14.8125;
1441975337012300;-0.82537841796875;0.1162109375;-0.54168701171875;-0.1092529296875;2.314980956072418;17.60198835885985;8.461489012878038;0.8701171875;0.05517578125;-0.35009765625;20.125;30.3125;-16.3125;
1441975337035301;-0.8221435546875;0.11102294921875;-0.54815673828125;-0.10687255859375;2.2342984055320128;17.591636558735686;8.504850748104394;0.841796875;0.0615234375;-0.34033203125;24.6875;35.5;-14.1875;
1441975337058302;-0.81829833984375;0.105712890625;-0.555419921875;-0.10357666015625;2.1425890235844105;17.590152244554677;8.543592965652318;0.88037109375;0.09326171875;-0.3603515625;30.875;42.25;-8.3125;
1441975337072303;-0.81427001953125;0.10040283203125;-0.56304931640625;-0.09967041015625;2.046394818233358;17.595095476266;8.578391214697909;0.951171875;0.14013671875;-0.36474609375;36.5;47.0625;-2.1875;
1441975337095304;-0.80999755859375;0.095703125;-0.5706787109375;-0.0955810546875;1.948476791345928;17.60707297495486;8.604150466689413;1.02099609375;0.19189453125;-0.36376953125;40.875;48.375;3.8125;
1441975337118306;-0.8056640625;0.0921630859375;-0.577880859375;-0.09228515625;1.8537195370356185;17.61878224426579;8.621852757343394;1.091796875;0.21923828125;-0.34765625;40.25;47.0;8.875;
1441975337140307;-0.80126953125;0.0904541015625;-0.5845947265625;-0.0899658203125;1.7625766823642954;17.63558667376548;8.622674970661507;1.10888671875;0.21923828125;-0.3125;32.375;44.125;12.1875;
1441975337155308;-0.7969970703125;0.09033203125;-0.5906982421875;-0.088623046875;1.6775312908739266;17.656320368180793;8.608857494514972;1.1005859375;0.18115234375;-0.2822265625;20.8125;40.5625;14.6875;
1441975337186310;-0.7928466796875;0.09136962890625;-0.59619140625;-0.087890625;1.5988007897197867;17.682996457944316;8.581645781530295;1.1005859375;0.13037109375;-0.26416015625;9.6875;37.3125;15.75;
1441975337202311;-0.7891845703125;0.09271240234375;-0.600830078125;-0.08740234375;1.5313342373649526;17.711586735763035;8.550102197227968;1.07568359375;0.0634765625;-0.2529296875;1.1875;34.625;13.875;
1441975337216311;-0.78631591796875;0.09368896484375;-0.60455322265625;-0.08685302734375;1.4778573672651212;17.73789478057583;8.522511828643033;1.0419921875;0.0078125;-0.25439453125;-2.0625;30.6875;10.6875;
1441975337238313;-0.784423828125;0.0938720703125;-0.60711669921875;-0.0859375;1.4418538063008532;17.759977800678552;8.503747672954688;1.00439453125;-0.0224609375;-0.251953125;-1.25;25.0;6.6875;
1441975337261314;-0.78338623046875;0.093017578125;-0.60870361328125;-0.0849609375;1.4205064281833688;17.767748393253093;8.503678266599973;0.98583984375;-0.037109375;-0.2607421875;2.6875;18.125;2.1875;
1441975337275315;-0.7833251953125;0.09124755859375;-0.60919189453125;-0.083984375;1.4157357300832323;17.760807422354365;8.52196242180498;0.9736328125;-0.02587890625;-0.25244140625;7.0625;10.75;-2.125;
1441975337299316;-0.783935546875;0.088623046875;-0.60882568359375;-0.08331298828125;1.4231831874847487;17.734968499397624;8.561277117412674;0.9599609375;0.0029296875;-0.2529296875;10.5;4.0;-5.75;
1441975337312317;-0.78533935546875;0.08575439453125;-0.6075439453125;-0.08306884765625;1.4445484924015073;17.697729634163768;8.611192641374444;0.95556640625;0.041015625;-0.25634765625;12.5625;-2.125;-8.625;
1441975337335318;-0.787353515625;0.08331298828125;-0.605224609375;-0.08343505859375;1.4797801983468566;17.656674018762967;8.660514217887199;0.9423828125;0.0712890625;-0.25341796875;11.8125;-8.6875;-10.0;
1441975337358320;-0.78973388671875;0.08184814453125;-0.60211181640625;-0.08465576171875;1.5248756485836978;17.61604544474403;8.701777687931738;0.9404296875;0.103515625;-0.2646484375;7.75;-14.875;-9.5;
1441975337381321;-0.79254150390625;0.08148193359375;-0.59814453125;-0.08660888671875;1.5806937479918919;17.57987007744985;8.730944804520556;0.92919921875;0.11962890625;-0.26708984375;0.875;-20.1875;-7.6875;
1441975337395322;-0.7955322265625;0.0821533203125;-0.59375;-0.0889892578125;1.6414920577253678;17.55184646668761;8.745877743291715;0.912109375;0.12353515625;-0.28515625;-6.5625;-24.4375;-5.625;
1441975337418323;-0.79852294921875;0.0836181640625;-0.589111328125;-0.09161376953125;1.7042780549715058;17.530808008381115;8.749464463743658;0.8935546875;0.12158203125;-0.28759765625;-12.25;-27.5625;-3.3125;
1441975337432324;-0.801513671875;0.0858154296875;-0.5843505859375;-0.093994140625;1.767812219489023;17.52252996274151;8.738213143286057;0.86962890625;0.12255859375;-0.2919921875;-16.1875;-29.0;-0.625;
1441975337455325;-0.8043212890625;0.08831787109375;-0.57977294921875;-0.0960693359375;1.8282206542177506;17.52173657962964;8.719444535491323;0.8681640625;0.11767578125;-0.3212890625;-17.75;-28.3125;2.8125;
1441975337486327;-0.806884765625;0.0909423828125;-0.5755615234375;-0.09759521484375;1.8834998966440895;17.529328222023004;8.694064869586548;0.85400390625;0.12646484375;-0.33740234375;-17.25;-26.8125;5.9375;
1441975337493327;-0.8092041015625;0.093505859375;-0.5716552734375;-0.0986328125;1.9343736695703369;17.54210373811389;8.665744498399507;0.8369140625;0.11767578125;-0.33984375;-15.0;-24.9375;8.0625;
1441975337516329;-0.811279296875;0.09600830078125;-0.5682373046875;-0.09918212890625;1.979205211949718;17.55992003524622;8.634736991367925;0.81591796875;0.11328125;-0.330078125;-12.5;-23.3125;9.4375;
1441975337546330;-0.81292724609375;0.098388671875;-0.5654296875;-0.09912109375;2.0157563744855613;17.58379175584946;8.600747300783947;0.796875;0.09765625;-0.322265625;-10.375;-21.4375;10.375;
1441975337552331;-0.8138427734375;0.10076904296875;-0.5638427734375;-0.0982666015625;2.0364451088772317;17.617639852035094;8.56029003495726;0.81689453125;0.10107421875;-0.32177734375;-7.0;-18.25;12.5625;
1441975337575332;-0.81365966796875;0.1031494140625;-0.56396484375;-0.09674072265625;2.0344784133669482;17.660718349848054;8.513694728534114;0.9345703125;0.13427734375;-0.34765625;-1.875;-11.875;18.1875;
1441975337598333;-0.81231689453125;0.10650634765625;-0.5654296875;-0.0958251953125;2.012595901242266;17.70613498357042;8.458409082608219;1.18212890625;0.24853515625;-0.43701171875;4.3125;-0.875;29.5625;
1441975337612334;-0.8109130859375;0.111572265625;-0.566162109375;-0.097412109375;1.9965250883081975;17.734091894609563;8.402974205030903;1.49072265625;0.35400390625;-0.546875;0.8125;8.8125;40.1875;
1441975337635335;-0.81024169921875;0.117919921875;-0.56524658203125;-0.1007080078125;2.000149315759295;17.749364687924377;8.347498572316658;1.41455078125;0.2822265625;-0.48828125;-18.25;4.625;35.3125;
1441975337658337;-0.81011962890625;0.12530517578125;-0.5628662109375;-0.1060791015625;2.0198811405994404;17.74401644722529;8.299387306797422;1.0205078125;0.02978515625;-0.29833984375;-36.9375;-8.25;18.625;
1441975337672337;-0.81005859375;0.13348388671875;-0.55975341796875;-0.1129150390625;2.0457828140865533;17.725026598792375;8.255253598041225;0.7265625;-0.1572265625;-0.2041015625;-54.75;-15.25;3.875;
1441975337695339;-0.81048583984375;0.14093017578125;-0.55633544921875;-0.11749267578125;2.0794087021795025;17.728120571385144;8.201234741239853;0.63671875;-0.22119140625;-0.185546875;-66.1875;-18.0625;-2.125;
1441975337718340;-0.811767578125;0.144775390625;-0.55340576171875;-0.11798095703125;2.1165997786663033;17.751318277621007;8.159226447379599;0.6796875;-0.27978515625;-0.23193359375;-54.875;-20.3125;-2.375;
1441975337732341;-0.8140869140625;0.14349365234375;-0.55096435546875;-0.114990234375;2.1571115989350225;17.77300602498081;8.154745849481555;0.76123046875;-0.26318359375;-0.2373046875;-23.0;-23.6875;-5.75;
1441975337756342;-0.817138671875;0.1390380859375;-0.54827880859375;-0.11138916015625;2.2035035558729685;17.77392894018724;8.186776433608074;0.86474609375;-0.138671875;-0.25146484375;13.5;-26.125;-11.0;
1441975337778344;-0.8206787109375;0.13421630859375;-0.54443359375;-0.11016845703125;2.2614055330791003;17.741276532387424;8.243756192397363;0.97802734375;0.0146484375;-0.31982421875;30.25;-27.25;-14.875;
1441975337792344;-0.82421875;0.13134765625;-0.539306640625;-0.11236572265625;2.329655031337402;17.683886387715344;8.302723301975004;1.07080078125;0.16015625;-0.40380859375;23.1875;-29.8125;-16.25;
1441975337815346;-0.82757568359375;0.13140869140625;-0.5330810546875;-0.1173095703125;2.4065249743559805;17.619104380848967;8.345006415655439;1.0703125;0.19384765625;-0.44287109375;0.875;-32.4375;-16.6875;
1441975337837347;-0.83038330078125;0.133544921875;-0.52679443359375;-0.123291015625;2.4805613106208533;17.560919227305213;8.367472641995624;0.9755859375;0.123046875;-0.45361328125;-24.4375;-34.625;-17.3125;
1441975337854348;-0.83270263671875;0.13623046875;-0.521240234375;-0.12835693359375;2.5452649613387717;17.519535026563155;8.374726448373346;0.89990234375;0.01611328125;-0.4375;-39.1875;-33.9375;-17.625;
1441975337875349;-0.83465576171875;0.13848876953125;-0.5167236328125;-0.13153076171875;2.5988214371712046;17.4977123945917;8.372339456423212;0.8310546875;-0.0673828125;-0.42236328125;-38.9375;-29.4375;-16.75;
1441975337897350;-0.83642578125;0.13995361328125;-0.5130615234375;-0.13287353515625;2.6440908188126437;17.491240425573952;8.365811043485069;0.7880859375;-0.0869140625;-0.40625;-28.8125;-24.875;-13.3125;
1441975337912351;-0.837890625;0.14080810546875;-0.51043701171875;-0.1328125;2.6783197551334763;17.496364960241223;8.356490664451742;0.7861328125;-0.052734375;-0.41064453125;-15.9375;-21.0625;-8.875;
1441975337935353;-0.8389892578125;0.14166259765625;-0.50860595703125;-0.1319580078125;2.703113267398976;17.5102496933409;8.341998996773336;0.82373046875;-0.001953125;-0.41162109375;-5.8125;-17.6875;-3.4375;
1441975337958354;-0.8397216796875;0.14288330078125;-0.50732421875;-0.131103515625;2.7203833367847756;17.526630978381654;8.323666240914031;0.8740234375;0.0283203125;-0.42578125;-0.375;-14.25;1.3125;
1441975337972355;-0.840087890625;0.14471435546875;-0.50634765625;-0.130615234375;2.732286999412469;17.543105468315336;8.301198742601716;0.91748046875;0.0419921875;-0.42724609375;-0.6875;-12.3125;4.5625;
1441975338003356;-0.8399658203125;0.14776611328125;-0.50555419921875;-0.13067626953125;2.739181122478887;17.56168676567462;8.269135678237546;0.94189453125;0.0322265625;-0.42138671875;-4.6875;-11.25;6.4375;
1441975338034358;-0.83935546875;0.15203857421875;-0.505126953125;-0.13140869140625;2.7392968749962194;17.58135626767447;8.228152545970048;0.9580078125;4.8828125E-4;-0.43212890625;-12.0;-9.4375;9.1875;
1441975338041359;-0.838134765625;0.1571044921875;-0.50531005859375;-0.1326904296875;2.7296851162496205;17.60112961021761;8.181592886889971;0.98388671875;-0.02099609375;-0.4697265625;-19.5;-5.0;12.75;
1441975338056359;-0.8365478515625;0.16278076171875;-0.5057373046875;-0.13421630859375;2.7157042753487013;17.62293428331614;8.12942726257007;0.9833984375;-0.04150390625;-0.48193359375;-25.375;0.1875;14.9375;
1441975338077361;-0.834716796875;0.16851806640625;-0.50640869140625;-0.13568115234375;2.698358286888481;17.64659203867884;8.075427262221789;0.9638671875;-0.0498046875;-0.50390625;-28.375;4.5;17.1875;
1441975338101362;-0.832763671875;0.174072265625;-0.507568359375;-0.13665771484375;2.6765314954047015;17.675541374911948;8.019224562805029;0.94921875;-0.068359375;-0.4833984375;-28.375;5.75;17.625;
1441975338115363;-0.83062744140625;0.17919921875;-0.5091552734375;-0.13726806640625;2.6502908855543463;17.707064394074703;7.963923596957452;0.92236328125;-0.07763671875;-0.4658203125;-25.375;7.8125;18.0625;
1441975338137364;-0.82830810546875;0.1839599609375;-0.51116943359375;-0.13726806640625;2.6201039652104505;17.744482485778413;7.906941530922396;0.88525390625;-0.06201171875;-0.455078125;-21.125;11.3125;19.4375;
1441975338161365;-0.82574462890625;0.1885986328125;-0.5137939453125;-0.1368408203125;2.583914288822535;17.788256052564332;7.846205473872645;0.86572265625;-0.02783203125;-0.4658203125;-15.9375;15.3125;22.6875;
1441975338175366;-0.822998046875;0.1932373046875;-0.51654052734375;-0.13623046875;2.54663688673197;17.835983667600146;7.78221919498444;0.8603515625;-0.001953125;-0.47900390625;-12.0;19.6875;26.0;
1441975338197368;-0.8199462890625;0.19805908203125;-0.51971435546875;-0.1357421875;2.504388673014918;17.886727881688955;7.714132402462811;0.8525390625;0.01708984375;-0.5087890625;-10.4375;23.5625;28.4375;
1441975338221369;-0.81640625;0.20294189453125;-0.5235595703125;-0.13519287109375;2.4541647880930073;17.943166864809175;7.64056588229343;0.8466796875;0.0205078125;-0.515625;-10.8125;27.3125;30.125;
1441975338235370;-0.8125;0.2080078125;-0.52777099609375;-0.13458251953125;2.40000814189993;0.006087687225058204;7.560061257029704;0.84814453125;0.01318359375;-0.51513671875;-10.5625;32.1875;32.0;
1441975338258371;-0.80816650390625;0.2125244140625;-0.53289794921875;-0.13348388671875;2.3366330798239763;0.07767486529726277;7.475587533440752;0.8671875;-0.00390625;-0.5126953125;-10.375;35.0625;32.9375;
1441975338289373;-0.8035888671875;0.21685791015625;-0.53839111328125;-0.132080078125;2.270713217796783;0.157638995922327;7.384846630869254;0.92626953125;-9.765625E-4;-0.5087890625;-5.4375;39.125;34.5;
1441975338295373;-0.79949951171875;0.22100830078125;-0.54296875;-0.1312255859375;2.215958195144705;0.2293842391594509;7.300440339581804;0.99755859375;0.00537109375;-0.5185546875;-2.5625;41.0;35.625;
1441975338319375;-0.7960205078125;0.22491455078125;-0.54669189453125;-0.1304931640625;2.1731447976656444;0.2957984978469875;7.221617932829972;0.98974609375;-0.02099609375;-0.47607421875;-6.0625;34.4375;31.0;
1441975338349376;-0.7933349609375;0.228271484375;-0.5494384765625;-0.12945556640625;2.1446576687124757;0.35689730208171927;7.151338890371703;0.92529296875;-0.0771484375;-0.373046875;-7.625;24.1875;24.9375;
1441975338355377;-0.7913818359375;0.2308349609375;-0.55133056640625;-0.12860107421875;2.1262522692581913;0.4041000334846533;7.097264327684752;0.87158203125;-0.13134765625;-0.306640625;-6.875;14.8125;18.375;
1441975338377378;-0.79034423828125;0.23211669921875;-0.5523681640625;-0.12823486328125;2.1159189802494;0.42797659822752315;7.069742911092818;0.83984375;-0.154296875;-0.27001953125;-5.875;8.0;11.25;
1441975338401379;-0.79010009765625;0.23248291015625;-0.5526123046875;-0.1278076171875;2.114919584717601;0.43828128958247203;7.059681171180759;0.8154296875;-0.10205078125;-0.255859375;-3.5625;3.0625;5.5;
1441975338415380;-0.79058837890625;0.23223876953125;-0.5521240234375;-0.12774658203125;2.1215711413188063;0.4327111279419298;7.066466172953129;0.81689453125;-0.05419921875;-0.28271484375;0.75;-1.0625;3.0625;
1441975338437381;-0.79156494140625;0.2313232421875;-0.5509033203125;-0.1282958984375;2.1334854772678704;0.4089768485144889;7.091398051533096;0.8505859375;-0.00732421875;-0.31005859375;1.75;-4.625;0.75;
1441975338452382;-0.79302978515625;0.23040771484375;-0.54888916015625;-0.129638671875;2.1526836886183642;0.370462800630857;7.1276240552676855;0.9052734375;0.060546875;-0.3447265625;2.125;-7.625;-0.75;
1441975338475383;-0.79461669921875;0.23004150390625;-0.5460205078125;-0.13250732421875;2.1768592955601496;0.3144752611478603;7.172269930670129;0.97119140625;0.10693359375;-0.39697265625;-0.6875;-10.25;-1.5;
1441975338497385;-0.79608154296875;0.230712890625;-0.54254150390625;-0.136962890625;2.203809940179836;0.24670317798729133;7.217444838296131;1.02001953125;0.1328125;-0.421875;-9.9375;-12.9375;-3.4375;
1441975338521386;-0.79730224609375;0.2325439453125;-0.53857421875;-0.1424560546875;2.233869402429678;0.1758836664007742;7.2560958065140975;1.029296875;0.1220703125;-0.4140625;-21.6875;-15.0625;-5.0625;
1441975338543387;-0.7982177734375;0.23468017578125;-0.53472900390625;-0.1480712890625;2.2619521075322715;0.1087233604503865;7.289151420353543;1.0009765625;0.05224609375;-0.39892578125;-32.875;-16.875;-8.25;
1441975338558388;-0.79913330078125;0.2362060546875;-0.5313720703125;-0.1527099609375;2.287738421784848;0.05125281084590036;7.319346168830211;0.96240234375;-0.02734375;-0.36279296875;-37.0625;-17.1875;-12.625;
1441975338581389;-0.8004150390625;0.236083984375;-0.52862548828125;-0.15582275390625;2.3117933047816273;0.0011255026550329023;7.355904005957978;0.93603515625;-0.0966796875;-0.3486328125;-32.1875;-16.3125;-17.5625;
1441975338596390;-0.8021240234375;0.23406982421875;-0.5263671875;-0.15753173828125;2.3349278262976423;17.954415700771456;7.403181992260626;0.9091796875;-0.12939453125;-0.341796875;-20.125;-15.25;-22.4375;
1441975338626392;-0.80426025390625;0.23040771484375;-0.5245361328125;-0.15802001953125;2.3577911199664214;17.910719808757314;7.459834414277137;0.89892578125;-0.10595703125;-0.3515625;-6.5;-13.75;-25.875;
1441975338641393;-0.806884765625;0.22540283203125;-0.5228271484375;-0.15771484375;2.3831535079078763;17.86651230847235;7.526208475836352;0.91259765625;-0.060546875;-0.37548828125;6.4375;-12.3125;-27.75;
1441975338655394;-0.8095703125;0.219970703125;-0.5211181640625;-0.1572265625;2.4095658879442157;17.82229479178848;7.595112785301229;0.92724609375;-0.02099609375;-0.412109375;15.25;-11.625;-29.5;
1441975338687396;-0.81201171875;0.2147216796875;-0.51959228515625;-0.15679931640625;2.433682599060667;17.780743038672245;7.660332841624638;0.92626953125;0.00634765625;-0.43212890625;18.1875;-10.5;-29.875;
1441975338709397;-0.81414794921875;0.2099609375;-0.518310546875;-0.1566162109375;2.4543916016692426;17.741965776867946;7.71980521813467;0.921875;0.02587890625;-0.44482421875;17.6875;-8.25;-28.125;
1441975338715397;-0.8157958984375;0.20599365234375;-0.51727294921875;-0.15655517578125;2.4708895809022158;17.70944665028029;7.769104363617686;0.9140625;0.0419921875;-0.4580078125;15.5;-5.5625;-25.0625;
1441975338737398;-0.81707763671875;0.20294189453125;-0.51641845703125;-0.15667724609375;2.4842367005323363;17.682767438499344;7.8079764074127045;0.904296875;0.04150390625;-0.4599609375;12.1875;-3.25;-21.3125;
1441975338760400;-0.81805419921875;0.20050048828125;-0.51593017578125;-0.15643310546875;2.4935154190451905;17.665942931903356;7.836086762135782;0.89013671875;0.041015625;-0.45654296875;8.375;-2.0625;-17.25;
1441975338775401;-0.818603515625;0.19879150390625;-0.51580810546875;-0.15606689453125;2.4974780149642575;17.656975548073405;7.853830779946327;0.87646484375;0.0244140625;-0.44189453125;7.625;-0.75;-13.4375;
1441975338797402;-0.81890869140625;0.1971435546875;-0.516357421875;-0.1549072265625;2.49484046551298;17.658845916485696;7.864129600664559;0.8837890625;-0.00146484375;-0.4072265625;5.75;-1.3125;-10.8125;
1441975338821403;-0.81903076171875;0.19561767578125;-0.5172119140625;-0.15325927734375;2.4889923876533855;17.66781678695587;7.8689239797598916;0.9013671875;-0.001953125;-0.39013671875;9.75;0.1875;-7.625;
1441975338835404;-0.819091796875;0.1944580078125;-0.51812744140625;-0.15142822265625;2.482706616584604;17.681714352057845;7.868053434917568;0.912109375;0.00927734375;-0.3896484375;12.3125;1.125;-4.1875;
1441975338859405;-0.81890869140625;0.193603515625;-0.51910400390625;-0.14996337890625;2.473983468646374;17.69404832883876;7.865856763399704;0.93603515625;0.01171875;-0.39111328125;11.875;0.5;-1.875;
1441975338880407;-0.8187255859375;0.193115234375;-0.5198974609375;-0.14874267578125;2.466889303926062;17.70600230421283;7.861396956481686;0.9521484375;0.021484375;-0.38623046875;9.875;1.0;0.0;
1441975338903408;-0.818603515625;0.19293212890625;-0.52044677734375;-0.14788818359375;2.4621478641895242;17.7155520828235;7.856454288934229;0.96240234375;0.0185546875;-0.39111328125;7.25;0.125;0.375;
1441975338917409;-0.81842041015625;0.19287109375;-0.52093505859375;-0.147216796875;2.4574216657335506;17.723878768780796;7.851382710654959;0.9599609375;0.01123046875;-0.3876953125;4.0;-1.0;0.25;
1441975338940410;-0.81817626953125;0.19268798828125;-0.5216064453125;-0.14642333984375;2.450697237619498;17.733142236087442;7.846479236288216;0.94873046875;-0.001953125;-0.373046875;2.625;-1.5625;-0.5;
1441975338955411;-0.81805419921875;0.19219970703125;-0.522216796875;-0.1456298828125;2.4450676402300355;17.739930223606596;7.845338637232913;0.94287109375;-0.009765625;-0.3583984375;3.625;-1.6875;-1.0625;
1441975338986413;-0.81793212890625;0.19158935546875;-0.5228271484375;-0.14483642578125;2.4393398067600716;17.74582493515375;7.8455807491345935;0.93798828125;0.00634765625;-0.3603515625;5.125;-1.25;-1.25;
1441975339000413;-0.81787109375;0.1910400390625;-0.52337646484375;-0.14410400390625;2.434515690586615;17.75130217672337;7.8457483312041685;0.93798828125;0.01953125;-0.36767578125;5.75;-0.9375;-0.8125;
1441975339015414;-0.8177490234375;0.1905517578125;-0.52386474609375;-0.1435546875;2.4296401215082066;17.75507681848377;7.8465132289440644;0.93701171875;0.033203125;-0.37646484375;5.5;-0.3125;-0.3125;
1441975339037416;-0.81756591796875;0.190185546875;-0.52447509765625;-0.14312744140625;2.4231305130768925;17.758676656199267;7.846531371211316;0.931640625;0.03515625;-0.38037109375;4.5;-0.0625;-0.125;
1441975339060417;-0.81719970703125;0.19000244140625;-0.52520751953125;-0.1427001953125;2.4144917401237533;17.76410785385228;7.843919873273438;0.92919921875;0.03173828125;-0.3837890625;3.6875;1.0;0.3125;
1441975339075418;-0.816650390625;0.18994140625;-0.526123046875;-0.142333984375;2.402996732359087;17.770360008483905;7.839750320066516;0.927734375;0.03076171875;-0.38671875;2.9375;2.3125;1.3125;
1441975339106420;-0.81610107421875;0.18988037109375;-0.52716064453125;-0.14190673828125;2.3904587592748396;17.7776289301583;7.834929850501722;0.9267578125;0.0341796875;-0.38720703125;2.5625;4.0;2.0625;
1441975339120420;-0.81549072265625;0.18988037109375;-0.5281982421875;-0.14154052734375;2.377504387997998;17.784783665768042;7.829671139070522;0.91455078125;0.03125;-0.3857421875;2.5625;4.875;2.4375;
1441975339135421;-0.81475830078125;0.18994140625;-0.5294189453125;-0.14129638671875;2.3619225278077765;17.79157946456597;7.824095050147884;0.90625;0.03515625;-0.38623046875;2.875;5.75;2.8125;
1441975339157422;-0.81390380859375;0.19000244140625;-0.53070068359375;-0.14105224609375;2.345018461046295;17.798735987836682;7.818097106826918;0.91064453125;0.037109375;-0.3798828125;1.875;6.25;3.3125;
1441975339181424;-0.81298828125;0.19012451171875;-0.5321044921875;-0.14068603515625;2.3268722682456437;17.808268704626002;7.810027810574204;0.90869140625;0.03515625;-0.3740234375;1.75;6.9375;3.6875;
1441975339195425;-0.8121337890625;0.19036865234375;-0.53338623046875;-0.14044189453125;2.3101791799720726;17.817090694495104;7.801627750932092;0.93115234375;0.0380859375;-0.37841796875;2.5625;7.4375;4.5;
1441975339217426;-0.81121826171875;0.1907958984375;-0.53466796875;-0.14031982421875;2.2930949868902206;17.826116863646668;7.791737951357577;0.93310546875;0.0439453125;-0.39208984375;1.6875;7.6875;5.125;
1441975339240427;-0.810302734375;0.1915283203125;-0.53582763671875;-0.1405029296875;2.276944964884908;17.833769229270864;7.780652760754205;0.9326171875;0.04833984375;-0.38671875;0.5625;7.9375;5.8125;
1441975339263429;-0.809326171875;0.1925048828125;-0.5367431640625;-0.14111328125;2.2621933571360318;17.837846254121196;7.7701497564454165;0.93505859375;0.04052734375;-0.3896484375;-2.25;7.5625;5.875;
1441975339278429;-0.80841064453125;0.19378662109375;-0.53753662109375;-0.1417236328125;2.2493154636811017;17.844133504457453;7.756155418392558;0.9296875;0.0400390625;-0.38134765625;-5.0;6.5;5.8125;
1441975339300431;-0.8074951171875;0.195068359375;-0.53826904296875;-0.14227294921875;2.237147689565396;17.851131866207485;7.741636934311916;0.9306640625;0.021484375;-0.37451171875;-6.6875;5.625;5.6875;
1441975339315431;-0.8067626953125;0.19622802734375;-0.53887939453125;-0.14263916015625;2.2275051116409714;17.858889654723637;7.7276453632893825;0.9296875;0.00830078125;-0.3740234375;-6.6875;5.125;5.1875;
1441975339337433;-0.80609130859375;0.1971435546875;-0.5394287109375;-0.1429443359375;2.218669038782794;17.865206409252785;7.716318527977281;0.93408203125;0.0087890625;-0.38330078125;-5.5;4.75;4.75;
1441975339361434;-0.8056640625;0.1978759765625;-0.53973388671875;-0.14324951171875;2.2134309509734127;17.86902588472828;7.708222932832808;0.939453125;0.0126953125;-0.3857421875;-4.125;4.25;4.125;
1441975339378435;-0.8052978515625;0.19866943359375;-0.53985595703125;-0.143798828125;2.209873707884205;17.869781709102217;7.701846808754332;0.93212890625;0.02197265625;-0.39013671875;-3.75;3.375;3.625;
1441975339399436;-0.8050537109375;0.19964599609375;-0.5396728515625;-0.14453125;2.2097787867548275;17.86880369141674;7.69555358012307;0.93310546875;0.02978515625;-0.39404296875;-4.8125;2.3125;3.25;
1441975339429438;-0.80474853515625;0.2008056640625;-0.5394287109375;-0.14532470703125;2.2099698043250875;17.868538098936043;7.687446480095592;0.92041015625;0.02587890625;-0.392578125;-6.6875;1.375;3.0;
1441975339435438;-0.8045654296875;0.20196533203125;-0.53912353515625;-0.14599609375;2.2117409947733764;17.86941035643188;7.678751963914898;0.91748046875;0.02197265625;-0.3876953125;-7.75;0.5;3.0;
1441975339457440;-0.80438232421875;0.202880859375;-0.53900146484375;-0.14630126953125;2.2122555481173865;17.873251696688303;7.669716824600009;0.91943359375;0.0146484375;-0.38916015625;-7.0625;0.1875;3.25;
1441975339480441;-0.80426025390625;0.20361328125;-0.538818359375;-0.14642333984375;2.2138718028105804;17.877549897863293;7.6616877062449955;0.912109375;0.0146484375;-0.38330078125;-4.8125;0.375;3.25;
1441975339495442;-0.80426025390625;0.2042236328125;-0.53857421875;-0.146484375;2.216796905534074;17.881198085427908;7.655103234604539;0.916015625;0.0224609375;-0.39111328125;-2.9375;0.0625;3.125;
1441975339517443;-0.80426025390625;0.204833984375;-0.538330078125;-0.14666748046875;2.219472496386602;17.88333414587882;7.649543072543971;0.91845703125;0.02978515625;-0.39208984375;-2.0;-0.1875;3.375;
1441975339540444;-0.80419921875;0.2054443359375;-0.5380859375;-0.14703369140625;2.221384189943513;17.883320867786185;7.645336910288111;0.92333984375;0.03173828125;-0.39501953125;-2.5;-0.25;3.3125;
1441975339557445;-0.80413818359375;0.2061767578125;-0.537841796875;-0.14727783203125;2.2237142209102423;17.88580832210584;7.638629728981467;0.921875;0.03662109375;-0.38134765625;-3.5;-0.8125;3.0;
1441975339577446;-0.80401611328125;0.206787109375;-0.53765869140625;-0.1474609375;2.2250689507900887;17.888304886474824;7.632644116771854;0.92626953125;0.02587890625;-0.37939453125;-3.5;-1.1875;3.0625;
1441975339600448;-0.8040771484375;0.207275390625;-0.53741455078125;-0.14752197265625;2.228234748448394;17.89078811543757;7.627774861797036;0.93359375;0.02099609375;-0.37255859375;-3.0625;-1.5625;2.625;
1441975339616449;-0.80419921875;0.20758056640625;-0.53704833984375;-0.14764404296875;2.232539372507254;17.89055881320312;7.626040740595642;0.9267578125;0.0205078125;-0.3779296875;-1.8125;-1.8125;2.0625;
1441975339637450;-0.80438232421875;0.20794677734375;-0.53662109375;-0.14794921875;2.237479986635791;17.88831647237649;7.625344776276402;0.9287109375;0.02685546875;-0.376953125;-1.4375;-2.375;1.4375;
1441975339677452;-0.80450439453125;0.2083740234375;-0.5361328125;-0.14837646484375;2.242425599600965;17.885026729198408;7.6248355399622865;0.92578125;0.03271484375;-0.3779296875;-2.375;-2.6875;1.375;
1441975339679452;-0.80462646484375;0.20880126953125;-0.53558349609375;-0.14892578125;2.247676771378707;17.88009009627537;7.625420294497311;0.92919921875;0.02880859375;-0.37451171875;-3.4375;-3.0;1.0625;
1441975339706454;-0.8048095703125;0.20916748046875;-0.5350341796875;-0.14935302734375;2.2534890605122153;17.87604439228711;7.625908986735076;0.92822265625;0.03466796875;-0.3779296875;-3.8125;-3.1875;0.6875;
1441975339720455;-0.804931640625;0.20953369140625;-0.53460693359375;-0.14984130859375;2.257658050266581;17.871712651123133;7.626504744676225;0.93017578125;0.02880859375;-0.37744140625;-3.625;-3.25;0.625;
1441975339736456;-0.8050537109375;0.2099609375;-0.53411865234375;-0.15032958984375;2.262473827011335;17.867715464127958;7.626456539244062;0.9306640625;0.0302734375;-0.37744140625;-3.3125;-2.9375;0.5;
1441975339757457;-0.80517578125;0.21044921875;-0.5335693359375;-0.15087890625;2.2678063787706266;17.863315140892922;7.626258124859898;0.923828125;0.03271484375;-0.37744140625;-3.625;-2.875;0.625;
1441975339797459;-0.80535888671875;0.2109375;-0.53302001953125;-0.15142822265625;2.273518366531403;17.8588230650929;7.626216435710178;0.927734375;0.0302734375;-0.38427734375;-4.1875;-2.875;0.75;
1441975339799459;-0.8055419921875;0.211181640625;-0.53253173828125;-0.15191650390625;2.278480891028682;17.853281944366305;7.628506415832827;0.92626953125;0.025390625;-0.3876953125;-4.5;-2.8125;0.25;
1441975339817460;-0.8057861328125;0.21124267578125;-0.53192138671875;-0.1522216796875;2.285116884314939;17.848059961740347;7.63187116801574;0.91796875;0.021484375;-0.3828125;-3.25;-2.8125;-0.75;
1441975339840462;-0.80609130859375;0.2113037109375;-0.53143310546875;-0.15252685546875;2.291000181390578;17.8430911806992;7.635180717584461;0.90771484375;0.01611328125;-0.3818359375;-2.5;-3.0625;-1.75;
1441975339856462;-0.80645751953125;0.21099853515625;-0.5308837890625;-0.15277099609375;2.2975143021350606;17.835701444649498;7.6426152405081975;0.91796875;0.02099609375;-0.38330078125;-1.5625;-3.3125;-1.5625;
1441975339877464;-0.806884765625;0.21026611328125;-0.53045654296875;-0.15313720703125;2.3025261782115627;17.8237297643538;7.656047892815491;0.92919921875;0.02783203125;-0.3818359375;-0.6875;-3.625;-2.6875;
1441975339900465;-0.807373046875;0.2095947265625;-0.52978515625;-0.15374755859375;2.3098259239472014;17.808677845973534;7.671144816812716;0.92578125;0.0478515625;-0.3828125;1.125;-2.9375;-3.6875;
1441975339916466;-0.8079833984375;0.20916748046875;-0.5286865234375;-0.15484619140625;2.3212623397125505;17.78861786498605;7.687995676073651;0.9189453125;0.05908203125;-0.40576171875;-0.0625;-2.625;-4.25;
1441975339948468;-0.808837890625;0.208740234375;-0.52728271484375;-0.15570068359375;2.3376347654381764;17.770575084582518;7.703735874090439;0.90869140625;0.05126953125;-0.40283203125;-4.125;-4.1875;-5.3125;
1441975339969469;-0.80999755859375;0.207763671875;-0.52569580078125;-0.15625;2.3577264846550126;17.75128600064917;7.724265557984115;0.90380859375;0.0341796875;-0.40478515625;-3.8125;-6.75;-6.75;
1441975339985470;-0.8114013671875;0.206298828125;-0.5240478515625;-0.15673828125;2.3796788226788377;17.728876670145457;7.750309941134236;0.8994140625;0.046875;-0.4091796875;-0.125;-8.125;-8.1875;
1441975339997470;-0.81292724609375;0.20465087890625;-0.52227783203125;-0.156982421875;2.403966331035169;17.70796478816802;7.776567403710936;0.89892578125;0.0634765625;-0.4130859375;2.25;-8.875;-9.6875;
1441975340020472;-0.814453125;0.202880859375;-0.52032470703125;-0.15740966796875;2.4297428813532758;17.684127713750403;7.805312817218629;0.892578125;0.0654296875;-0.4248046875;3.6875;-9.25;-10.3125;
1441975340042473;-0.81610107421875;0.201171875;-0.51837158203125;-0.15789794921875;2.4564141695593618;17.660489903637192;7.8335071202250735;0.900390625;0.078125;-0.427734375;3.1875;-10.125;-10.875;
1441975340057474;-0.81756591796875;0.199462890625;-0.51654052734375;-0.15838623046875;2.4809812157389532;17.637763486228156;7.860728478448787;0.90234375;0.07861328125;-0.4326171875;2.625;-10.5;-11.125;
1441975340080475;-0.8189697265625;0.19757080078125;-0.51495361328125;-0.1585693359375;2.503365464921438;17.618092670534782;7.887052440729078;0.90234375;0.0693359375;-0.4228515625;2.625;-10.3125;-11.75;
1441975340096476;-0.8203125;0.1953125;-0.5137939453125;-0.15826416015625;2.521944472022966;17.602401759751096;7.913221231387025;0.888671875;0.05908203125;-0.41748046875;4.4375;-9.5;-12.125;
1441975340117477;-0.82147216796875;0.19281005859375;-0.51300048828125;-0.15771484375;2.536234560816032;17.588666504785433;7.93959604304541;0.890625;0.0576171875;-0.41015625;8.0;-7.9375;-12.375;
1441975340140479;-0.82257080078125;0.1904296875;-0.5123291015625;-0.1571044921875;2.549214442946287;17.576915435292797;7.963812908406587;0.8994140625;0.06689453125;-0.40576171875;10.4375;-6.5;-11.8125;
1441975340156480;-0.823486328125;0.18829345703125;-0.51177978515625;-0.15673828125;2.559766524644774;17.5646145935121;7.986558105445293;0.912109375;0.0703125;-0.40625;10.125;-6.375;-10.75;
1441975340177481;-0.82421875;0.18634033203125;-0.5113525390625;-0.15655517578125;2.5679445264490908;17.551953194653528;8.00813098298929;0.912109375;0.06787109375;-0.39306640625;8.625;-6.25;-10.375;
1441975340200482;-0.8248291015625;0.1846923828125;-0.510986328125;-0.156494140625;2.574809117781501;17.540314926295768;8.02690062962677;0.91015625;0.064453125;-0.3896484375;6.875;-5.5;-10.1875;
1441975340218483;-0.82550048828125;0.18316650390625;-0.5106201171875;-0.15625;2.5823441154361775;17.53162170845569;8.043035487518756;0.90576171875;0.05322265625;-0.40234375;4.75;-4.0625;-9.6875;
1441975340237484;-0.826171875;0.1815185546875;-0.51019287109375;-0.1556396484375;2.590882258769441;17.526108870180416;8.057897353367172;0.892578125;0.0302734375;-0.404296875;4.6875;-3.9375;-10.0;
1441975340260486;-0.82684326171875;0.179931640625;-0.5098876953125;-0.1549072265625;2.5984099684228266;17.522578377895638;8.07115067702636;0.8955078125;0.03173828125;-0.41259765625;6.625;-4.125;-9.625;
1441975340276486;-0.827392578125;0.1783447265625;-0.50982666015625;-0.15411376953125;2.6029164283292756;17.52007858278846;8.083745031288359;0.904296875;0.03564453125;-0.42138671875;7.5;-3.5625;-8.75;
1441975340300488;-0.82794189453125;0.1767578125;-0.509765625;-0.1533203125;2.607432309245973;17.517605460555213;8.096314184795554;0.908203125;0.05126953125;-0.42138671875;8.0625;-2.4375;-7.5625;
1441975340328489;-0.8282470703125;0.17529296875;-0.50994873046875;-0.15252685546875;2.6081284900207855;17.516316117400812;8.107207895305402;0.90966796875;0.05810546875;-0.4375;8.4375;-1.25;-6.75;
1441975340336490;-0.82843017578125;0.174072265625;-0.51025390625;-0.15185546875;2.6068150635467697;17.51553573742667;8.116113754186975;0.9150390625;0.0595703125;-0.43701171875;7.9375;-0.0625;-5.8125;
1441975340360491;-0.82843017578125;0.17315673828125;-0.51080322265625;-0.15118408203125;2.6020644690181776;17.517164370451166;8.121436625098122;0.90478515625;0.05517578125;-0.4365234375;6.75;1.3125;-4.875;
1441975340380492;-0.8282470703125;0.1724853515625;-0.51153564453125;-0.1505126953125;2.594455358270483;17.520716080019458;8.123848042673528;0.880859375;0.04296875;-0.42919921875;5.4375;2.9375;-3.875;
1441975340396493;-0.82781982421875;0.17193603515625;-0.51263427734375;-0.14971923828125;2.5819549520623353;17.52692165709918;8.123722092877395;0.865234375;0.03125;-0.42431640625;4.25;4.4375;-2.75;
1441975340417495;-0.82733154296875;0.17120361328125;-0.513916015625;-0.14898681640625;2.5672310837013352;17.53140030614109;8.12593123918798;0.86669921875;0.02197265625;-0.412109375;4.6875;5.9375;-2.125;
1441975340448496;-0.82672119140625;0.17022705078125;-0.5155029296875;-0.14794921875;2.5490796250748327;17.53792543069428;8.128485362751416;0.87255859375;0.02197265625;-0.4052734375;5.25;6.9375;-2.4375;
1441975340456497;-0.82598876953125;0.169189453125;-0.517333984375;-0.14697265625;2.52775501165105;17.543650758120325;8.131949012140916;0.8564453125;0.0234375;-0.39892578125;7.375;8.875;-2.375;
1441975340486498;-0.82513427734375;0.16815185546875;-0.519287109375;-0.1461181640625;2.5043811484935663;17.54817146833062;8.136115897950402;0.85546875;0.0390625;-0.40380859375;8.375;11.0625;-1.375;
1441975340501499;-0.8240966796875;0.167236328125;-0.52130126953125;-0.14556884765625;2.479009999564802;17.55021322904116;8.140912875496447;0.83984375;0.05810546875;-0.40185546875;7.875;12.75;-0.25;
1441975340518500;-0.8228759765625;0.16656494140625;-0.5235595703125;-0.145263671875;2.449967959103424;17.551555318719213;8.14448820489511;0.83203125;0.06298828125;-0.3984375;6.375;13.75;0.4375;
1441975340539501;-0.8214111328125;0.16619873046875;-0.5260009765625;-0.1451416015625;2.417532428820996;17.553323817872847;8.145603425817672;0.84716796875;0.06298828125;-0.39208984375;4.75;15.375;0.8125;
1441975340568503;-0.81982421875;0.16607666015625;-0.52850341796875;-0.1453857421875;2.3834496645798753;17.55277323839492;8.146514959637338;0.86279296875;0.0537109375;-0.39892578125;2.625;17.3125;1.6875;
1441975340576504;-0.81817626953125;0.16595458984375;-0.53094482421875;-0.145751953125;2.3494522837280596;17.550687191772095;8.148355664796386;0.85498046875;0.0576171875;-0.39111328125;0.0625;17.9375;2.1875;
1441975340600505;-0.816650390625;0.1658935546875;-0.533203125;-0.146240234375;2.3178672724479976;17.547319431865407;8.150683761337291;0.85595703125;0.0625;-0.37939453125;-0.4375;17.5625;2.375;
1441975340628507;-0.815185546875;0.16571044921875;-0.5352783203125;-0.1468505859375;2.2882799054244503;17.541160732641778;8.155690248698193;0.86279296875;0.05029296875;-0.37353515625;-1.5;16.3125;1.125;
1441975340637507;-0.81378173828125;0.1654052734375;-0.537353515625;-0.14739990234375;2.2591232629999864;17.53458395836574;8.161909812844652;0.8603515625;0.03857421875;-0.35595703125;-2.1875;14.75;-1.0625;
1441975340659508;-0.81243896484375;0.1649169921875;-0.53936767578125;-0.1480712890625;2.2308174019180886;17.524695704739337;8.171686751640012;0.873046875;0.0322265625;-0.36572265625;-1.4375;15.1875;-1.875;
1441975340680510;-0.81109619140625;0.16424560546875;-0.541259765625;-0.1490478515625;2.2034274300341274;17.509014014009626;8.186652731676062;0.8896484375;0.02734375;-0.37841796875;-1.875;15.9375;-3.4375;
1441975340704511;-0.8099365234375;0.16351318359375;-0.54290771484375;-0.15020751953125;2.179445263773073;17.489832462397477;8.204571712107054;0.88525390625;0.02783203125;-0.38427734375;-2.875;16.1875;-5.4375;
1441975340719512;-0.80877685546875;0.16265869140625;-0.54443359375;-0.1519775390625;2.156294657956119;17.461226428726185;8.229840837869201;0.90087890625;0.0263671875;-0.38916015625;-3.875;15.375;-6.8125;
1441975340740513;-0.8077392578125;0.1614990234375;-0.5457763671875;-0.15380859375;2.1358480448403543;17.42840538770143;8.260250789312902;0.90380859375;0.037109375;-0.3818359375;-5.6875;15.0625;-9.125;
1441975340756514;-0.8067626953125;0.16009521484375;-0.54718017578125;-0.1553955078125;2.115647727829634;17.396021312872463;8.292299397104522;0.89599609375;0.033203125;-0.38720703125;-5.75;15.0;-11.3125;
1441975340786516;-0.8057861328125;0.1585693359375;-0.54864501953125;-0.1568603515625;2.0952217177091814;17.363550453592527;8.325471692464978;0.892578125;0.02880859375;-0.39599609375;-4.0625;15.875;-12.1875;
1441975340800516;-0.80474853515625;0.156982421875;-0.55029296875;-0.15826416015625;2.072991155389792;17.330733029191904;8.359593695862547;0.900390625;0.0341796875;-0.3974609375;-2.875;16.5625;-12.125;
1441975340824518;-0.80364990234375;0.1552734375;-0.55181884765625;-0.15997314453125;2.051789887083089;17.291905761654547;8.398819551241637;0.89697265625;0.02587890625;-0.39306640625;-2.625;17.75;-12.75;
1441975340840519;-0.80255126953125;0.15362548828125;-0.55340576171875;-0.1617431640625;2.0303566504754094;17.25203786269539;8.438653341142492;0.87939453125;0.04736328125;-0.38330078125;-3.25;17.875;-13.25;
1441975340863520;-0.8013916015625;0.15216064453125;-0.55487060546875;-0.16363525390625;2.0099354794112165;17.211382933475218;8.477880521573798;0.89208984375;0.05712890625;-0.38330078125;-3.6875;17.875;-12.5625;
1441975340882521;-0.80029296875;0.150390625;-0.55645751953125;-0.16558837890625;1.9894248086693003;17.16616707124327;8.522818331105094;0.90380859375;0.05224609375;-0.38671875;-5.375;18.0;-12.875;
1441975340899522;-0.799072265625;0.1484375;-0.55810546875;-0.16741943359375;1.9681683234839815;17.119730353185357;8.57014236813126;0.90087890625;0.0498046875;-0.38330078125;-4.3125;18.875;-14.75;
1441975340920523;-0.79791259765625;0.146484375;-0.5596923828125;-0.16949462890625;1.9485190784044066;17.069030116178713;8.620751977848165;0.87841796875;0.0361328125;-0.37646484375;-3.75;19.8125;-16.1875;
1441975340942525;-0.79669189453125;0.1446533203125;-0.561279296875;-0.171630859375;1.928964791568108;17.01758105017049;8.671320782134377;0.8505859375;0.03125;-0.36669921875;-5.25;20.1875;-17.125;
1441975340959526;-0.79541015625;0.14251708984375;-0.5628662109375;-0.17401123046875;1.9102224442423448;16.958463926989243;8.729745464687857;0.837890625;0.02099609375;-0.36572265625;-6.0625;20.625;-18.0;
1441975340982527;-0.794189453125;0.14013671875;-0.56463623046875;-0.1759033203125;1.8909232605872663;16.90253585113343;8.788138571130935;0.82080078125;0.033203125;-0.34765625;-6.0;20.9375;-19.3125;
1441975341002528;-0.79290771484375;0.13739013671875;-0.566650390625;-0.17730712890625;1.8698259031655113;16.84809597068298;8.848629431446962;0.80615234375;0.02490234375;-0.34765625;-3.375;21.8125;-19.4375;
1441975341019529;-0.79156494140625;0.13336181640625;-0.5692138671875;-0.17816162109375;1.8457555746062355;16.7856944860065;8.924851673457697;0.7890625;0.0078125;-0.333984375;0.0;23.125;-20.5625;
1441975341043530;-0.79034423828125;0.12841796875;-0.57208251953125;-0.17816162109375;1.8214098948800537;16.723969284299333;9.007857996556298;0.76953125;0.0263671875;-0.3115234375;7.5625;25.75;-22.375;
1441975341062531;-0.78857421875;0.12359619140625;-0.57537841796875;-0.17852783203125;1.7911467612968308;16.653091321572195;9.097937714012057;0.755859375;0.046875;-0.31787109375;14.8125;28.25;-22.625;
1441975341079532;-0.78631591796875;0.1197509765625;-0.57879638671875;-0.18023681640625;1.7582518213091918;16.5678109827989;9.192796030629282;0.7470703125;0.07421875;-0.30615234375;13.4375;31.9375;-20.6875;
1441975341100534;-0.78375244140625;0.116455078125;-0.58209228515625;-0.18280029296875;1.7266411377138753;16.4715434776019;9.292638996610696;0.72802734375;0.11474609375;-0.27685546875;4.25;33.1875;-17.75;
1441975341122535;-0.781005859375;0.1136474609375;-0.58551025390625;-0.185302734375;1.693241786871447;16.376522516418618;9.38946954016327;0.73046875;0.13134765625;-0.259765625;-1.375;32.4375;-17.1875;
1441975341139536;-0.77801513671875;0.11114501953125;-0.589111328125;-0.18798828125;1.6581925809281608;16.276108825342916;9.489684935204588;0.75;0.11376953125;-0.248046875;-3.3125;33.125;-16.0625;
1441975341160537;-0.77447509765625;0.110107421875;-0.5928955078125;-0.19146728515625;1.6175235831479342;16.171344741679597;9.584903489649431;0.76806640625;0.14501953125;-0.24658203125;-4.9375;34.25;-13.3125;
1441975341182538;-0.77081298828125;0.1094970703125;-0.5966796875;-0.19476318359375;1.5759312982235043;16.068357870999368;9.677272206653747;0.80029296875;0.17919921875;-0.23974609375;-13.125;35.8125;-7.4375;
1441975341199539;-0.76727294921875;0.10968017578125;-0.60028076171875;-0.19757080078125;1.5335721117323833;15.978948332565519;9.754802392671525;0.80712890625;0.1845703125;-0.2060546875;-14.0;33.875;-4.4375;
1441975341223541;-0.76348876953125;0.11090087890625;-0.60394287109375;-0.200439453125;1.4865097156206486;15.893594030389485;9.823746742873642;0.79443359375;0.13818359375;-0.1904296875;-14.875;31.25;-2.8125;
1441975341250542;-0.75958251953125;0.1131591796875;-0.60711669921875;-0.2042236328125;1.4427519576515362;15.80386188539147;9.8887554338268;0.78515625;0.1416015625;-0.14990234375;-18.9375;28.9375;2.125;
1441975341259543;-0.7559814453125;0.11761474609375;-0.6092529296875;-0.20867919921875;1.4027307765593358;15.736663229081694;9.919170568356595;0.79931640625;0.2060546875;-0.123046875;-25.8125;25.625;7.375;
1441975341280544;-0.7528076171875;0.1236572265625;-0.61083984375;-0.21197509765625;1.3579019713838067;15.714353195179122;9.902919347157338;0.85986328125;0.2431640625;-0.099609375;-36.0;16.0625;14.9375;
1441975341302545;-0.7498779296875;0.129150390625;-0.61279296875;-0.21356201171875;1.30722772391964;15.71298571810639;9.8753013233854;0.9453125;0.1416015625;-0.07568359375;-37.4375;7.1875;17.125;
1441975341319546;-0.74700927734375;0.13409423828125;-0.61517333984375;-0.213623046875;1.2499926866128916;15.729005583053969;9.839014715751448;0.99560546875;0.125;-0.04248046875;-27.375;4.75;19.8125;
1441975341340547;-0.7442626953125;0.1402587890625;-0.616943359375;-0.21417236328125;1.1950049667031624;15.763431616845132;9.777106313735084;1.0341796875;0.17041015625;0.00439453125;-17.375;2.875;26.5;
1441975341372549;-0.7410888671875;0.1488037109375;-0.6175537109375;-0.21771240234375;1.1480301864172895;15.78749230777554;9.702797756231954;1.08203125;0.22509765625;0.0;-23.8125;-1.0625;33.25;
1441975341379550;-0.7373046875;0.15966796875;-0.61737060546875;-0.22332763671875;1.101843834335525;15.812720420411363;9.608606629980251;1.083984375;0.2353515625;0.02587890625;-45.6875;-6.5;33.0;
1441975341400551;-0.7330322265625;0.17132568359375;-0.6173095703125;-0.22869873046875;1.0480254951005261;15.856365758698377;9.493497905597982;1.0595703125;0.13720703125;0.05712890625;-65.375;-10.3125;29.1875;
1441975341430552;-0.72900390625;0.18218994140625;-0.617431640625;-0.23284912109375;0.9940853869513988;15.922386921199662;9.36442046601238;1.05078125;0.00439453125;0.0947265625;-68.4375;-11.9375;25.3125;
1441975341439553;-0.72540283203125;0.19097900390625;-0.61767578125;-0.236328125;0.9481405632956339;15.976098632320376;9.259028660821096;1.05322265625;-0.060546875;0.10107421875;-61.0625;-12.25;22.5;
1441975341463554;-0.72283935546875;0.19720458984375;-0.617919921875;-0.2384033203125;0.9142874201659272;16.02813754145402;9.171983006676912;1.04248046875;-0.0283203125;0.14697265625;-48.9375;-13.5625;18.8125;
1441975341492556;-0.72137451171875;0.2015380859375;-0.6177978515625;-0.2396240234375;0.8950741817301088;16.078887867537023;9.097774338485808;1.0234375;-0.01806640625;0.1298828125;-33.0625;-14.1875;13.375;
1441975341499556;-0.72027587890625;0.204345703125;-0.61785888671875;-0.240234375;0.8802030479400375;16.115509101393613;9.046642773307877;0.96923828125;-0.0146484375;0.07666015625;-22.3125;-13.3125;7.625;
1441975341523558;-0.71942138671875;0.2061767578125;-0.61834716796875;-0.24005126953125;0.8645571756553327;16.151248675794708;9.0040801787493;0.92822265625;0.04541015625;0.0712890625;-12.9375;-12.0625;7.9375;
1441975341542559;-0.71783447265625;0.2080078125;-0.6197509765625;-0.23968505859375;0.8358778659347348;16.17980013721043;8.969648853582706;0.98681640625;0.13720703125;0.0322265625;-4.8125;-8.4375;13.0625;
1441975341559560;-0.7161865234375;0.20928955078125;-0.62158203125;-0.23876953125;0.8035394234164613;16.208751929539645;8.9395227309401;1.03515625;0.19482421875;0.0673828125;-3.625;-4.8125;19.9375;
1441975341581561;-0.714111328125;0.21087646484375;-0.62371826171875;-0.23785400390625;0.7649241562835355;16.242005406706124;8.903762985557064;1.0341796875;0.25537109375;0.06884765625;1.625;-2.5;24.875;
1441975341612563;-0.71112060546875;0.2135009765625;-0.62646484375;-0.23724365234375;0.7128734284334014;16.28551288463141;8.852188817630418;1.04541015625;0.2490234375;0.0751953125;0.125;-0.375;26.875;
1441975341619563;-0.7066650390625;0.21844482421875;-0.62908935546875;-0.23931884765625;0.6512534644780095;16.30114916339505;8.807189630315872;1.07373046875;0.22900390625;0.0615234375;-5.6875;5.4375;31.125;
1441975341643565;-0.700927734375;0.2252197265625;-0.63165283203125;-0.242919921875;0.5795984867248506;16.31553326064028;8.748813543175487;1.0849609375;0.2587890625;0.126953125;-26.8125;6.5;35.0625;
1441975341662566;-0.6947021484375;0.23309326171875;-0.6339111328125;-0.24755859375;0.5064801278909588;16.336334872722748;8.674806912531668;1.091796875;0.21240234375;0.19873046875;-41.375;5.9375;35.9375;
1441975341679567;-0.68896484375;0.23919677734375;-0.63629150390625;-0.25152587890625;0.4384424880362976;16.325363390654115;8.642752654823754;1.06689453125;0.109375;0.18310546875;-51.5625;8.3125;30.1875;
1441975341702568;-0.68389892578125;0.24346923828125;-0.63885498046875;-0.2548828125;0.37656858379212976;16.256857830267055;8.678734991868646;1.08642578125;0.04638671875;0.1455078125;-42.0625;11.6875;21.0;
1441975341722569;-0.67950439453125;0.24542236328125;-0.64141845703125;-0.25823974609375;0.32564531183530665;16.02641518934085;8.886421777944161;1.10400390625;0.05224609375;0.11083984375;-32.1875;15.0625;16.1875;
1441975341740570;-0.6754150390625;0.2470703125;-0.6435546875;-0.2620849609375;0.285408732832491;15.682966716362516;9.206249848683361;1.1455078125;0.142578125;0.10546875;-22.6875;16.8125;12.3125;
1441975341761571;-0.67218017578125;0.248779296875;-0.64447021484375;-0.2664794921875;0.26644169651128113;15.302924860759498;9.559832653130728;1.15478515625;0.14013671875;0.07080078125;-23.3125;18.625;8.0625;
1441975341782573;-0.66949462890625;0.25103759765625;-0.6441650390625;-0.2718505859375;0.2656522795322609;14.944300406808141;9.88524962239916;1.169921875;0.17138671875;0.02197265625;-26.625;15.4375;5.375;
1441975341799574;-0.66717529296875;0.255126953125;-0.64202880859375;-0.2786865234375;0.2792297105165133;14.734174247319002;10.047562282986705;1.2236328125;0.2099609375;0.0244140625;-33.0;8.9375;3.625;
1441975341821575;-0.66510009765625;0.262451171875;-0.636962890625;-0.28839111328125;0.31011260915982164;14.719790194903055;9.987113663700075;1.28466796875;0.23583984375;-0.033203125;-47.875;4.5;3.0625;
1441975341842576;-0.66278076171875;0.27142333984375;-0.62982177734375;-0.30084228515625;0.3580091697166884;14.718401681131676;9.893588136186928;1.35107421875;0.208984375;-0.11279296875;-74.875;-3.125;-2.8125;
1441975341859577;-0.6605224609375;0.27960205078125;-0.62213134765625;-0.3140869140625;0.41820627666242655;14.661533503902866;9.854714064445568;1.412109375;0.17431640625;-0.09619140625;-94.75;-10.6875;-12.875;
1441975341881578;-0.6595458984375;0.28436279296875;-0.61700439453125;-0.32177734375;0.4591556298577308;14.66346448976468;9.796573996532189;1.51220703125;0.181640625;-0.05419921875;-95.5625;-13.625;-20.6875;
1441975341902579;-0.66265869140625;0.2891845703125;-0.61029052734375;-0.3238525390625;0.5090352155338411;15.039017277043241;9.389491766663909;1.4140625;0.09033203125;-0.26123046875;-57.125;3.3125;-18.1875;
1441975341926581;-0.65350341796875;0.286376953125;-0.62139892578125;-0.32379150390625;0.39954479266803106;14.25281430041096;10.189607313471788;1.86474609375;-0.15625;-0.35693359375;-32.5625;-22.5;-28.25;
1441975341949582;-0.66278076171875;0.25335693359375;-0.63763427734375;-0.29998779296875;0.429373618668972;13.76430460036538;10.930652508654182;2.041015625;-1.23779296875;0.91064453125;11.375;79.125;25.4375;
1441975341962583;-0.66351318359375;0.25921630859375;-0.62554931640625;-0.318359375;0.5696651189340497;13.928058909920225;10.658422971393556;1.03466796875;1.38525390625;-1.3564453125;250.9375;49.875;-24.125;
1441975341979584;-0.66314697265625;0.263916015625;-0.61944580078125;-0.3270263671875;0.6222893032209867;13.998173987907606;10.52808239240948;1.39794921875;0.8837890625;0.107421875;-107.5;-34.0625;-53.6875;
1441975342001585;-0.66949462890625;0.2532958984375;-0.61541748046875;-0.330078125;0.7615040621132613;14.036890863520352;10.521215818594426;1.45654296875;-0.27392578125;-0.20947265625;-61.25;-5.0;-54.4375;
1441975342022586;-0.6751708984375;0.2386474609375;-0.6153564453125;-0.32952880859375;0.8824252721729514;13.979450470680826;10.644319776137106;1.32080078125;0.349609375;-0.2626953125;30.3125;2.8125;-55.8125;
1441975342039587;-0.68145751953125;0.2274169921875;-0.6119384765625;-0.33099365234375;1.0120303426213;14.025855682175136;10.63896592442619;1.388671875;0.283203125;-0.203125;62.8125;18.0625;-57.6875;
1441975342070589;-0.68719482421875;0.21759033203125;-0.6077880859375;-0.33319091796875;1.1382595966344886;14.072221004746897;10.623680314128164;1.353515625;0.4306640625;-0.35595703125;37.9375;9.8125;-49.875;
1441975342099591;-0.6915283203125;0.208740234375;-0.6044921875;-0.3360595703125;1.2520736937336596;14.07782977322151;10.64215915050747;1.35546875;0.38330078125;-0.27001953125;28.6875;0.0625;-53.125;
1441975342102591;-0.69488525390625;0.20074462890625;-0.60205078125;-0.3382568359375;1.3474568973846708;14.072785214886489;10.670457141883693;1.34814453125;0.30615234375;-0.21044921875;21.5625;2.9375;-55.875;
1441975342123592;-0.697509765625;0.1939697265625;-0.60101318359375;-0.33868408203125;1.4129086348216768;14.069610836570398;10.700046460815898;1.2978515625;0.26171875;-0.15234375;20.875;3.0625;-50.75;
1441975342142593;-0.699462890625;0.18896484375;-0.601318359375;-0.33697509765625;1.4427538831254967;14.07666484786543;10.721857763720763;1.2509765625;0.212890625;-0.1025390625;24.5625;3.25;-40.0625;
1441975342159594;-0.70172119140625;0.18426513671875;-0.60235595703125;-0.3330078125;1.4532571564155021;14.105406428609358;10.730977535156919;1.2158203125;0.142578125;-0.11083984375;26.75;5.4375;-26.75;
1441975342187596;-0.70465087890625;0.1788330078125;-0.6033935546875;-0.327880859375;1.4639523193465191;14.150757855883043;10.73169123944702;1.18017578125;0.14306640625;-0.1572265625;35.4375;7.5625;-16.5;
1441975342202597;-0.70758056640625;0.17333984375;-0.60430908203125;-0.32269287109375;1.4753609554531255;14.197519219475964;10.73129259671877;1.169921875;0.16455078125;-0.181640625;43.5625;6.75;-14.4375;
1441975342219598;-0.71002197265625;0.168701171875;-0.60540771484375;-0.31781005859375;1.479938143818468;14.237823214828769;10.73248708234725;1.13134765625;0.18359375;-0.15869140625;44.3125;4.5;-12.5625;
1441975342241599;-0.71136474609375;0.165283203125;-0.6077880859375;-0.31201171875;1.4591544390064581;14.26637141283782;10.74451854439014;1.08642578125;0.1845703125;-0.1103515625;40.375;2.4375;-8.5625;
1441975342270601;-0.71185302734375;0.16192626953125;-0.612548828125;-0.3031005859375;1.4020358115741183;14.2887920803756;10.776477401754917;1.06201171875;0.0927734375;-0.0595703125;39.625;4.8125;-2.6875;
1441975342280601;-0.71307373046875;0.157470703125;-0.6181640625;-0.291015625;1.3304631752284823;14.339141615627877;10.799020979966103;1.044921875;0.017578125;0.0029296875;53.3125;10.125;9.4375;
1441975342301602;-0.7152099609375;0.15179443359375;-0.62286376953125;-0.27850341796875;1.273001715243012;14.412900563655056;10.804423810112612;1.0166015625;-0.033203125;0.01025390625;72.25;9.875;14.6875;
1441975342322603;-0.7169189453125;0.14794921875;-0.62713623046875;-0.26641845703125;1.2066068364200049;14.501128067552905;10.785436542968052;0.94580078125;0.09765625;0.01171875;79.5625;4.5;19.75;
1441975342339604;-0.71783447265625;0.14654541015625;-0.63128662109375;-0.2545166015625;1.1230122137785357;14.607954319870426;10.736447968081944;0.92626953125;0.15283203125;0.06591796875;71.5625;-2.125;30.4375;
1441975342361606;-0.71844482421875;0.145751953125;-0.6356201171875;-0.2423095703125;1.0321186579094062;14.731519559276386;10.669302925547944;0.9541015625;0.078125;0.11181640625;60.625;-6.75;35.75;
1441975342382607;-0.71875;0.1441650390625;-0.640625;-0.2286376953125;0.9333288722330345;14.87141498861465;10.594978678229278;0.95849609375;0.07958984375;0.12548828125;59.6875;-7.0625;40.9375;
1441975342406608;-0.71832275390625;0.14190673828125;-0.6466064453125;-0.21417236328125;0.8256367804206757;15.008005820308517;10.52986506209409;0.96875;0.087890625;0.1123046875;68.4375;-2.6875;46.0625;
1441975342421609;-0.71734619140625;0.13970947265625;-0.65301513671875;-0.19891357421875;0.7088302553424409;15.174825223669286;10.437172798090279;0.9755859375;0.1279296875;0.1083984375;73.875;4.8125;52.375;
1441975342443610;-0.7164306640625;0.1383056640625;-0.65869140625;-0.18377685546875;0.5957687829863318;15.429819247709574;10.251955909589812;0.9609375;0.18359375;0.1181640625;76.75;7.0625;61.6875;
1441975342465612;-0.7149658203125;0.13739013671875;-0.66436767578125;-0.16925048828125;0.48462151305983964;15.7634396681865;9.983196367091788;0.9296875;0.1845703125;0.08984375;72.375;5.625;65.75;
1441975342489613;-0.712646484375;0.13592529296875;-0.67059326171875;-0.15509033203125;0.3745183388545257;16.180933479721638;9.630965222374545;0.9365234375;0.1865234375;0.09716796875;67.25;7.5625;67.1875;
1441975342503614;-0.70965576171875;0.134033203125;-0.6771240234375;-0.1417236328125;0.2708687862630851;16.772659395210482;9.102701533999236;0.92724609375;0.21044921875;0.10791015625;67.5;13.5;67.8125;
1441975342542616;-0.70587158203125;0.1326904296875;-0.68377685546875;-0.12921142578125;0.18123374821957972;17.91375566128366;8.018931463805385;0.8662109375;0.22900390625;0.10400390625;65.3125;19.125;66.625;
1441975342545616;-0.70159912109375;0.13214111328125;-0.690185546875;-0.118408203125;0.1446883940380852;2.0032279911332926;5.976262682864117;0.8974609375;0.271484375;0.12744140625;58.9375;22.25;70.4375;
1441975342563617;-0.697021484375;0.133544921875;-0.69610595703125;-0.10888671875;0.19994015982783664;3.9000959465621805;4.112730128747347;0.93603515625;0.35107421875;0.12890625;48.0;24.0625;73.625;
1441975342585619;-0.69207763671875;0.1370849609375;-0.7015380859375;-0.10089111328125;0.30314648852139153;4.747897565385473;3.283057263607012;0.88427734375;0.3349609375;0.111328125;34.1875;25.5;76.125;
1441975342600619;-0.68719482421875;0.1414794921875;-0.7064208984375;-0.09375;0.41701904908860293;5.117976828113153;2.9239536693160453;0.84033203125;0.298828125;0.13916015625;18.625;23.3125;77.125;
1441975342623621;-0.6826171875;0.14569091796875;-0.7108154296875;-0.0872802734375;0.5257248414966867;5.3138852908212835;2.7369525283874054;0.81201171875;0.24853515625;0.138671875;10.8125;22.0;74.375;
1441975342645622;-0.6785888671875;0.14898681640625;-0.7147216796875;-0.0814208984375;0.6211076378307796;5.43735310889124;2.6236609584453863;0.8095703125;0.205078125;0.1337890625;8.6875;20.5;68.25;
1441975342660623;-0.67523193359375;0.15240478515625;-0.71759033203125;-0.07720947265625;0.6997298311224757;5.501587528302933;2.562280575456456;0.7958984375;0.1884765625;0.13037109375;9.125;17.875;60.8125;
1441975342684624;-0.6732177734375;0.15704345703125;-0.71881103515625;-0.0743408203125;0.7657451475428224;5.471505261912085;2.5847477393392957;0.78515625;0.1953125;0.14404296875;1.625;11.875;54.625;
1441975342714626;-0.67230224609375;0.16339111328125;-0.71832275390625;-0.0736083984375;0.8181544811603968;5.373340478800722;2.6594794891121247;0.7890625;0.18505859375;0.13720703125;-9.3125;1.5625;51.875;
1441975342720626;-0.6728515625;0.1715087890625;-0.7158203125;-0.0745849609375;0.8598363831884486;5.192977769249801;2.8020873719377124;0.76025390625;0.13720703125;0.1337890625;-26.0;-8.8125;44.875;
1441975342743628;-0.6746826171875;0.18133544921875;-0.71136474609375;-0.0771484375;0.8958881291536772;4.9416195890947066;3.00200658660648;0.6923828125;0.10302734375;0.11669921875;-40.8125;-20.375;39.8125;
1441975342765629;-0.677490234375;0.1915283203125;-0.70550537109375;-0.08111572265625;0.9240099089102523;4.654249307894248;3.2305212613181378;0.67822265625;0.0673828125;0.06005859375;-54.375;-29.375;35.5625;
1441975342780630;-0.6812744140625;0.20068359375;-0.69891357421875;-0.0848388671875;0.9505397955408181;4.348482213547279;3.4827149245021;0.75390625;0.0078125;0.0595703125;-62.75;-38.125;26.8125;
1441975342803631;-0.68682861328125;0.20941162109375;-0.69036865234375;-0.08880615234375;0.9788182040487966;3.973155314895731;3.805027716391523;0.72998046875;-0.0185546875;0.005859375;-57.0;-41.8125;20.5625;
1441975342834633;-0.69384765625;0.217529296875;-0.68017578125;-0.09344482421875;1.0127821765288596;3.5479922858083053;4.176752414029316;0.68896484375;-0.03662109375;-0.07421875;-56.6875;-51.75;13.125;
1441975342840633;-0.7017822265625;0.224609375;-0.66888427734375;-0.0985107421875;1.0574272943452285;3.1056652213346716;4.567865513836522;0.72265625;-0.04541015625;-0.1162109375;-58.1875;-61.375;5.25;
1441975342863634;-0.71014404296875;0.23040771484375;-0.65716552734375;-0.1038818359375;1.1131870092210423;2.6770772065475357;4.949065350403906;0.77880859375;-0.06689453125;-0.15673828125;-56.0625;-67.0;-3.375;
1441975342895636;-0.7186279296875;0.23553466796875;-0.64501953125;-0.1102294921875;1.179573720582707;2.2670325421449578;5.310170834188353;0.83251953125;-0.0673828125;-0.21533203125;-52.75;-67.6875;-10.3125;
1441975342900637;-0.72637939453125;0.24053955078125;-0.6329345703125;-0.11798095703125;1.2512770720452997;1.8950470321030068;5.6274186432874576;0.87060546875;-0.04736328125;-0.296875;-53.4375;-64.125;-15.875;
1441975342923638;-0.73309326171875;0.246337890625;-0.62109375;-0.12738037109375;1.3267887728416528;1.5648791462919516;5.892317206062221;0.90185546875;-0.048828125;-0.37841796875;-59.0625;-56.0625;-21.25;
1441975342945639;-0.73822021484375;0.2525634765625;-0.61053466796875;-0.1363525390625;1.4023963618420834;1.3110686365941162;6.080429740362623;0.91064453125;-0.08154296875;-0.443359375;-69.1875;-46.5625;-25.4375;
1441975342968640;-0.7423095703125;0.25811767578125;-0.60137939453125;-0.14404296875;1.4731653448733528;1.1162955345847128;6.2174816740757395;0.89501953125;-0.21875;-0.51611328125;-70.375;-33.3125;-28.875;
1441975342983641;-0.7459716796875;0.26153564453125;-0.59405517578125;-0.1494140625;1.5344168003317655;0.968986753623319;6.326078344398348;0.86865234375;-0.3251953125;-0.5546875;-63.625;-22.9375;-33.125;
1441975343005643;-0.74981689453125;0.26251220703125;-0.588134765625;-0.1517333984375;1.5931742360876773;0.8607202785919366;6.418965603531605;0.828125;-0.35107421875;-0.544921875;-44.9375;-16.4375;-34.25;
1441975343020643;-0.75372314453125;0.2620849609375;-0.58282470703125;-0.15350341796875;1.6462542033358822;0.757874143543596;6.514861378428366;0.814453125;-0.34228515625;-0.56298828125;-21.875;-12.875;-33.1875;
1441975343043645;-0.75726318359375;0.26080322265625;-0.57843017578125;-0.1552734375;1.6885130566296094;0.6621412504799771;6.60764561981156;0.81689453125;-0.2841796875;-0.55908203125;-13.125;-10.875;-33.375;
1441975343065646;-0.7603759765625;0.25897216796875;-0.57470703125;-0.1568603515625;1.7233340867941667;0.5754664665048735;6.6945317000076265;0.822265625;-0.2177734375;-0.54150390625;-8.4375;-7.125;-31.3125;
1441975343081647;-0.76348876953125;0.2568359375;-0.571044921875;-0.158447265625;1.7581421798528147;0.4896794374300265;6.7817990820254;0.83056640625;-0.1904296875;-0.5419921875;-5.1875;-2.875;-30.8125;
1441975343103648;-0.76654052734375;0.255126953125;-0.567138671875;-0.16058349609375;1.7953746529249446;0.40274605214386566;6.86601794968255;0.8193359375;-0.15234375;-0.5576171875;-3.625;-1.6875;-29.3125;
1441975343125649;-0.76922607421875;0.2540283203125;-0.56317138671875;-0.1632080078125;1.832378237033039;0.31990456201087586;6.941316130710285;0.814453125;-0.0947265625;-0.5712890625;-6.8125;-1.875;-26.5625;
1441975343140650;-0.771484375;0.2535400390625;-0.5595703125;-0.165771484375;1.8667357468421792;0.2506159882733881;7.000826554238516;0.84814453125;-0.0517578125;-0.599609375;-10.9375;0.0625;-22.25;
1441975343163652;-0.7735595703125;0.25262451171875;-0.556396484375;-0.16802978515625;1.8970643334538337;0.18656984141230132;7.058256167981312;0.83056640625;-0.09228515625;-0.57275390625;-13.8125;0.4375;-21.8125;
1441975343185653;-0.77593994140625;0.25079345703125;-0.5535888671875;-0.1693115234375;1.927818853432561;0.12950806174977392;7.116940677516355;0.77392578125;-0.08642578125;-0.5185546875;-10.6875;0.375;-21.9375;
1441975343200654;-0.77838134765625;0.24822998046875;-0.551025390625;-0.170166015625;1.9572222469879181;0.07400847612763542;7.178988346387243;0.73193359375;-0.060546875;-0.50927734375;-2.875;0.3125;-21.5625;
1441975343223655;-0.7808837890625;0.244873046875;-0.54913330078125;-0.16986083984375;1.9835057886645908;0.030835878407386615;7.237280585207772;0.73974609375;-0.0400390625;-0.50048828125;2.875;0.3125;-22.375;
1441975343245656;-0.7840576171875;0.2396240234375;-0.5472412109375;-0.16864013671875;2.0135012403584227;17.981834832532687;7.31326527159035;0.80224609375;-0.072265625;-0.50390625;10.125;0.5;-23.9375;
1441975343260657;-0.78753662109375;0.23272705078125;-0.5457763671875;-0.166748046875;2.0413135574026797;17.929306058115877;7.402815065685003;0.84375;-0.06689453125;-0.47900390625;20.5;-3.625;-30.3125;
1441975343283658;-0.79132080078125;0.22503662109375;-0.54388427734375;-0.16571044921875;2.0729476812074714;17.858540825774345;7.510250454427547;0.84912109375;-0.02783203125;-0.46142578125;30.625;-3.8125;-33.75;
1441975343305660;-0.79510498046875;0.2174072265625;-0.54132080078125;-0.16619873046875;2.109602271492665;17.769620859451727;7.628826226067607;0.86083984375;0.0283203125;-0.46533203125;29.875;-5.3125;-37.25;
1441975343321661;-0.79901123046875;0.21026611328125;-0.5379638671875;-0.1673583984375;2.1562638818098554;17.67809675473348;7.744686249646432;0.873046875;0.09033203125;-0.46923828125;23.375;-7.125;-39.25;
1441975343343662;-0.8028564453125;0.20306396484375;-0.53436279296875;-0.16925048828125;2.206351594724405;17.580970551872785;7.863179485474767;0.90625;0.08203125;-0.47265625;17.0625;-11.3125;-41.625;
1441975343365663;-0.80682373046875;0.194580078125;-0.5311279296875;-0.17083740234375;2.256625417386408;17.48231055197067;7.990098855478976;0.935546875;0.041015625;-0.4111328125;12.3125;-16.875;-47.6875;
1441975343388664;-0.81103515625;0.1846923828125;-0.52783203125;-0.17193603515625;2.3126793988949004;17.383185745024978;8.125282097001055;0.921875;0.0380859375;-0.38720703125;18.0;-16.25;-53.4375;
1441975343403665;-0.81549072265625;0.17401123046875;-0.52410888671875;-0.173583984375;2.3779046463329583;17.276893496215525;8.268492361545166;0.90673828125;0.0634765625;-0.392578125;24.6875;-16.25;-58.25;
1441975343425667;-0.82012939453125;0.16339111328125;-0.5196533203125;-0.17529296875;2.4552714100241984;17.177254372600597;8.404084341513082;0.890625;0.1240234375;-0.3935546875;25.75;-17.8125;-61.5625;
1441975343440667;-0.82452392578125;0.15350341796875;-0.51483154296875;-0.17779541015625;2.5377071675214564;17.08106643384969;8.529571046525739;0.91943359375;0.13818359375;-0.40673828125;24.5;-22.1875;-62.375;
1441975343463669;-0.82891845703125;0.14361572265625;-0.5098876953125;-0.17974853515625;2.6244330509705;16.99798173906175;8.644149260580349;0.96728515625;0.1396484375;-0.39013671875;17.9375;-26.5625;-63.375;
1441975343485670;-0.8331298828125;0.13446044921875;-0.5047607421875;-0.18218994140625;2.7137634147609466;16.92070614557427;8.747726558764143;0.9755859375;0.13330078125;-0.3916015625;19.625;-28.125;-63.375;
1441975343502671;-0.83709716796875;0.1253662109375;-0.49951171875;-0.18463134765625;2.8050986407249066;16.849259592594137;8.844974597964754;0.9521484375;0.14599609375;-0.375;15.1875;-30.3125;-61.5;
1441975343523672;-0.84130859375;0.11590576171875;-0.4942626953125;-0.185791015625;2.899272742597399;16.794270773286822;8.932819503717703;0.927734375;0.15478515625;-0.361328125;14.8125;-30.9375;-61.4375;
1441975343545673;-0.84521484375;0.1068115234375;-0.48931884765625;-0.1865234375;2.9889646572515463;16.748942003478838;9.011390955794083;0.91064453125;0.14453125;-0.369140625;21.5;-32.0;-60.8125;
1441975343562674;-0.848876953125;0.0975341796875;-0.4849853515625;-0.18646240234375;3.07186029089649;16.712381055913372;9.085665301174515;0.9140625;0.15625;-0.37158203125;22.5625;-31.1875;-57.9375;
1441975343583676;-0.852294921875;0.08843994140625;-0.48089599609375;-0.18603515625;3.150961112899158;16.68217100528421;9.154487798443379;0.94189453125;0.21630859375;-0.39990234375;28.3125;-27.625;-53.375;
1441975343613677;-0.85516357421875;0.0806884765625;-0.47711181640625;-0.1861572265625;3.222404399371116;16.65429472007885;9.21309681571752;0.96484375;0.2578125;-0.443359375;29.75;-25.1875;-49.6875;
1441975343622678;-0.85723876953125;0.07464599609375;-0.47418212890625;-0.1866455078125;3.278143066505898;16.629937306287452;9.259743169631651;1.001953125;0.2861328125;-0.45654296875;23.375;-24.5625;-43.5625;
1441975343645679;-0.85888671875;0.0701904296875;-0.47161865234375;-0.18707275390625;3.3241504736831446;16.613100609951935;9.292547410079983;1.0234375;0.29736328125;-0.44970703125;17.1875;-21.4375;-35.3125;
1441975343665680;-0.86041259765625;0.067626953125;-0.46929931640625;-0.1871337890625;3.3615384169501046;16.608162888348676;9.307245217547292;0.97705078125;0.287109375;-0.44580078125;12.5625;-19.3125;-27.125;
1441975343689682;-0.8612060546875;0.0667724609375;-0.4677734375;-0.1875;3.383412212524052;16.605477768943114;9.311377419978706;0.89990234375;0.2607421875;-0.43359375;8.4375;-18.375;-17.1875;
1441975343703682;-0.862060546875;0.06646728515625;-0.46624755859375;-0.1873779296875;3.4032158704836886;16.609721351005085;9.308377190274678;0.86181640625;0.24365234375;-0.3984375;1.875;-15.125;-8.75;
1441975343725684;-0.86273193359375;0.06707763671875;-0.46478271484375;-0.18756103515625;3.419582416264808;16.614869293371555;9.29929445956887;0.81787109375;0.22314453125;-0.4208984375;1.625;-13.875;-5.0625;
1441975343742685;-0.86309814453125;0.06842041015625;-0.4638671875;-0.18798828125;3.4275304127817265;16.619541752164867;9.286813853838149;0.8037109375;0.2177734375;-0.4033203125;-2.1875;-14.0;-1.5;
1441975343763686;-0.86328125;0.0703125;-0.463134765625;-0.18804931640625;3.430690726716427;16.629106971316396;9.268676086126359;0.80859375;0.21875;-0.36865234375;-4.625;-13.6875;2.1875;
1441975343785687;-0.86383056640625;0.072265625;-0.46197509765625;-0.187744140625;3.439189596754516;16.643578794152777;9.246849688127467;0.79541015625;0.232421875;-0.38330078125;-4.0625;-12.0625;7.5;
1441975343802688;-0.86419677734375;0.0745849609375;-0.46099853515625;-0.1875;3.4442469534661253;16.658405510709844;9.222887520965132;0.80078125;0.26025390625;-0.40185546875;-1.625;-14.5;9.5625;
1441975343823689;-0.86407470703125;0.076904296875;-0.46112060546875;-0.1868896484375;3.435585550559983;16.673748621176458;9.2004353677566;0.8134765625;0.2509765625;-0.39208984375;-3.375;-14.375;10.8125;
1441975343846691;-0.86383056640625;0.07952880859375;-0.46142578125;-0.18603515625;3.423514819507323;16.692197399569192;9.174678191254927;0.859375;0.2578125;-0.39013671875;-0.9375;-10.0;13.0625;
1441975343869692;-0.863525390625;0.0828857421875;-0.46136474609375;-0.1861572265625;3.4145808882046946;16.70596211606903;9.14615165574031;0.92041015625;0.28662109375;-0.44970703125;-0.375;-7.5625;16.3125;
1441975343898694;-0.8631591796875;0.0869140625;-0.460693359375;-0.18780517578125;3.4120400628309357;16.710180880184378;9.11748471568322;0.93994140625;0.341796875;-0.49267578125;-6.25;-7.5625;20.0;
1441975343905694;-0.86248779296875;0.091796875;-0.46014404296875;-0.19000244140625;3.4055031394496695;16.71278328075891;9.084459781209054;0.92626953125;0.32568359375;-0.48291015625;-16.1875;-10.875;18.375;
1441975343929695;-0.86175537109375;0.096435546875;-0.459716796875;-0.1920166015625;3.3978044409597126;16.715663784536588;9.052992685036765;0.87744140625;0.2568359375;-0.4482421875;-23.3125;-10.125;18.125;
1441975343943696;-0.861328125;0.1004638671875;-0.45880126953125;-0.19390869140625;3.3977862517320085;16.717997084577554;9.024943594759161;0.859375;0.228515625;-0.47119140625;-23.1875;-7.125;16.0625;
1441975343965697;-0.86102294921875;0.1043701171875;-0.457275390625;-0.19677734375;3.4058948912068354;16.712044109754917;9.001190446081035;0.82275390625;0.20849609375;-0.4775390625;-21.75;-8.3125;12.25;
1441975343982698;-0.86102294921875;0.1080322265625;-0.45489501953125;-0.20013427734375;3.425100630104886;16.702115717278136;8.979862394341332;0.7666015625;0.20556640625;-0.44580078125;-25.75;-10.6875;8.9375;
1441975344003700;-0.86163330078125;0.1112060546875;-0.45172119140625;-0.20306396484375;3.455866780692334;16.69560013797052;8.95868423135684;0.7099609375;0.15771484375;-0.4453125;-29.8125;-13.1875;3.625;
1441975344026701;-0.8626708984375;0.112548828125;-0.44854736328125;-0.20489501953125;3.4917009710567557;16.6909907415703;8.94807319627005;0.66455078125;0.10107421875;-0.466796875;-28.375;-15.875;-1.75;
1441975344042702;-0.86376953125;0.11187744140625;-0.44580078125;-0.2066650390625;3.5281013661487437;16.67756291804846;8.955313182819665;0.72216796875;0.14990234375;-0.529296875;-17.375;-14.375;-6.9375;
1441975344063703;-0.86456298828125;0.1107177734375;-0.44305419921875;-0.2099609375;3.5658947801100753;16.648596962488973;8.973481297900628;0.80517578125;0.25;-0.61767578125;-9.625;-8.3125;-11.875;
1441975344093705;-0.86468505859375;0.1103515625;-0.4404296875;-0.2149658203125;3.5994629745351467;16.60758191460845;8.992766393318018;0.8427734375;0.31591796875;-0.66650390625;-15.125;-4.8125;-15.625;
1441975344102705;-0.86456298828125;0.11083984375;-0.437744140625;-0.22076416015625;3.6315901305733815;16.56360836127763;9.007837306486975;0.814453125;0.3046875;-0.66943359375;-27.0;-1.4375;-15.9375;
1441975344123706;-0.86456298828125;0.1114501953125;-0.4345703125;-0.22662353515625;3.669179747936779;16.52093785324155;9.020405114036272;0.76611328125;0.2734375;-0.666015625;-35.375;-0.25;-15.4375;
1441975344145708;-0.8648681640625;0.11199951171875;-0.4310302734375;-0.23187255859375;3.711424457078527;16.48464454082352;9.029236761937131;0.693359375;0.27978515625;-0.65576171875;-35.8125;-0.9375;-14.375;
1441975344162709;-0.8656005859375;0.11212158203125;-0.42669677734375;-0.237060546875;3.7648278151327212;16.44949993501645;9.038460580473343;0.61181640625;0.2509765625;-0.64111328125;-33.8125;-2.375;-14.3125;
1441975344183710;-0.86688232421875;0.11138916015625;-0.4212646484375;-0.242431640625;3.834579989874729;16.41270555589003;9.051404661908782;0.54248046875;0.28515625;-0.6328125;-31.125;-4.75;-14.8125;
1441975344205711;-0.8680419921875;0.11102294921875;-0.41510009765625;-0.2490234375;3.9119498802689123;16.36906499918659;9.06353662277266;0.5302734375;0.3671875;-0.67236328125;-28.625;-8.3125;-16.9375;
1441975344229713;-0.869384765625;0.1103515625;-0.4083251953125;-0.25567626953125;3.9974553854045203;16.325988955352187;9.075459753140882;0.5361328125;0.3583984375;-0.67041015625;-36.6875;-12.125;-20.5;
1441975344243713;-0.8707275390625;0.10919189453125;-0.40185546875;-0.26171875;4.080723936916616;16.286527308879865;9.088528615508583;0.50830078125;0.3212890625;-0.64208984375;-37.625;-16.0625;-24.875;
1441975344265715;-0.8719482421875;0.107666015625;-0.39599609375;-0.26727294921875;4.158008597031979;16.24941202346953;9.10326062449719;0.53759765625;0.337890625;-0.65185546875;-33.5625;-15.75;-26.4375;
1441975344281716;-0.87274169921875;0.10577392578125;-0.39093017578125;-0.27264404296875;4.22669542730257;16.211311549855495;9.12160799358544;0.60009765625;0.34326171875;-0.65625;-30.25;-14.5;-28.0;
1441975344303717;-0.87322998046875;0.1036376953125;-0.38702392578125;-0.27764892578125;4.283091292445113;16.173742714528988;9.142951549836525;0.6357421875;0.3388671875;-0.6337890625;-29.125;-12.625;-29.875;
1441975344327718;-0.8734130859375;0.101318359375;-0.3843994140625;-0.281494140625;4.324470592950436;16.14231509596221;9.164933597623087;0.69677734375;0.37744140625;-0.62548828125;-25.125;-8.6875;-28.9375;
1441975344341719;-0.87347412109375;0.099609375;-0.3828125;-0.28411865234375;4.351050657400418;16.120327327577474;9.18116319846897;0.77880859375;0.4287109375;-0.62841796875;-17.125;-5.125;-24.8125;
1441975344364720;-0.87371826171875;0.0977783203125;-0.3817138671875;-0.28533935546875;4.371622709827339;16.108086600672724;9.194862355901693;0.765625;0.357421875;-0.53466796875;-12.125;-6.0625;-21.5625;
1441975344385721;-0.87396240234375;0.09619140625;-0.38189697265625;-0.28485107421875;4.3755911498890905;16.107229099372717;9.20492956098127;0.65673828125;0.2861328125;-0.41162109375;-3.6875;-6.75;-18.75;
1441975344408723;-0.8739013671875;0.09552001953125;-0.38336181640625;-0.28338623046875;4.3605530054619654;16.113639493537654;9.20921716660087;0.69091796875;0.3251953125;-0.39794921875;7.125;-3.5;-10.875;
1441975344426724;-0.873046875;0.0955810546875;-0.38592529296875;-0.282470703125;4.329729516652811;16.114792581461955;9.213779583599678;0.791015625;0.37646484375;-0.439453125;10.5;-0.3125;-2.0;
1441975344445725;-0.87164306640625;0.095947265625;-0.389404296875;-0.28192138671875;4.287148949421007;16.11151635813885;9.220416637431219;0.837890625;0.384765625;-0.41650390625;7.0;3.625;1.75;
1441975344462726;-0.86932373046875;0.09747314453125;-0.3939208984375;-0.2823486328125;4.228185380020226;16.100765471278102;9.225780523847309;0.87890625;0.3935546875;-0.3720703125;5.8125;5.125;3.9375;
1441975344486727;-0.86614990234375;0.10015869140625;-0.39898681640625;-0.283935546875;4.158264540781774;16.081881419243416;9.229294844706866;0.96435546875;0.41357421875;-0.3984375;-3.0625;10.375;8.875;
1441975344505728;-0.86236572265625;0.10406494140625;-0.40472412109375;-0.28594970703125;4.075572127212288;16.060831734622475;9.228313567301328;1.0166015625;0.43212890625;-0.40380859375;-12.375;12.8125;13.0625;
1441975344521729;-0.8582763671875;0.1082763671875;-0.4112548828125;-0.28741455078125;3.98160264115935;16.042541481467378;9.226323253446012;1.0078125;0.35498046875;-0.341796875;-18.5625;13.6875;16.125;
1441975344545731;-0.85455322265625;0.11175537109375;-0.41729736328125;-0.28839111328125;3.8956839540157433;16.0269281405901;9.226622946905925;0.986328125;0.326171875;-0.33154296875;-18.125;19.1875;19.9375;
1441975344565732;-0.8511962890625;0.114501953125;-0.422607421875;-0.28961181640625;3.8216999492760104;16.008739331625907;9.231099525992901;0.9697265625;0.33642578125;-0.3701171875;-14.1875;20.5625;18.25;
1441975344581733;-0.847900390625;0.116455078125;-0.42742919921875;-0.2913818359375;3.756854357208579;15.983885756209915;9.24274159263751;0.962890625;0.376953125;-0.3896484375;-13.0625;19.4375;15.375;
1441975344610734;-0.84503173828125;0.11724853515625;-0.43194580078125;-0.292724609375;3.700467243450977;15.959267011447462;9.26081226554894;0.9541015625;0.400390625;-0.38037109375;-12.875;19.4375;11.5;
1441975344625735;-0.842529296875;0.11773681640625;-0.435546875;-0.29443359375;3.656657435446012;15.93285751729787;9.279728522313631;0.91650390625;0.40966796875;-0.39013671875;-8.0625;20.8125;7.8125;
1441975344641736;-0.840576171875;0.11773681640625;-0.43817138671875;-0.296142578125;3.6267306360652283;15.907762620626766;9.29876827289073;0.84033203125;0.44091796875;-0.37939453125;-8.0;19.0625;7.3125;
1441975344664737;-0.83892822265625;0.11700439453125;-0.44024658203125;-0.2979736328125;3.6067742616240555;15.880608623640857;9.322029483448794;0.77978515625;0.47900390625;-0.400390625;-5.875;17.3125;7.0;
1441975344685739;-0.83782958984375;0.11578369140625;-0.44134521484375;-0.2999267578125;3.6010260993752023;15.854233970356855;9.345436412684807;0.77685546875;0.53759765625;-0.44140625;-4.125;17.9375;5.4375;
1441975344701740;-0.83697509765625;0.11474609375;-0.44146728515625;-0.302490234375;3.606569481330487;15.826597191115793;9.365925983328047;0.77099609375;0.5693359375;-0.47802734375;-3.9375;15.125;2.3125;
1441975344724741;-0.8365478515625;0.11346435546875;-0.44122314453125;-0.30450439453125;3.6172965011037164;15.804729881620647;9.3839381213581;0.7294921875;0.52685546875;-0.45361328125;-7.9375;10.125;-1.4375;
1441975344745742;-0.8370361328125;0.11187744140625;-0.43975830078125;-0.30584716796875;3.6432129328150067;15.792991039092218;9.395371721705189;0.70068359375;0.46533203125;-0.4365234375;-6.3125;7.1875;-5.0625;
1441975344761743;-0.83782958984375;0.11004638671875;-0.43719482421875;-0.30804443359375;3.6840438411178726;15.777309112090638;9.407217308436232;0.703125;0.48828125;-0.482421875;-1.6875;1.6875;-6.75;
1441975344792745;-0.8388671875;0.10845947265625;-0.433837890625;-0.3104248046875;3.7328725395878406;15.763963409657654;9.414248615260616;0.70947265625;0.54833984375;-0.45751953125;-3.1875;-5.5;-9.5;
1441975344805746;-0.84014892578125;0.10687255859375;-0.42987060546875;-0.31304931640625;3.7891461980888184;15.751154331612202;9.419239843154164;0.72216796875;0.52685546875;-0.45361328125;-5.3125;-10.75;-12.125;
1441975344821746;-0.84185791015625;0.10504150390625;-0.425048828125;-0.31561279296875;3.8561652042876586;15.741465978417171;9.42174931094128;0.7138671875;0.5205078125;-0.4462890625;-6.5625;-14.9375;-15.0625;
1441975344844748;-0.8438720703125;0.10357666015625;-0.4188232421875;-0.3192138671875;3.9387673459361823;15.729403529528197;9.419378110817009;0.6884765625;0.5166015625;-0.45166015625;-6.125;-19.0;-17.9375;
1441975344873749;-0.84600830078125;0.10369873046875;-0.41156005859375;-0.32281494140625;4.024751599361175;15.725046077703539;9.401478963871856;0.62109375;0.54931640625;-0.421875;-10.0625;-26.6875;-18.125;
1441975344881750;-0.84820556640625;0.1043701171875;-0.40386962890625;-0.32659912109375;4.1130764195704375;15.72174935593138;9.378884062994516;0.61279296875;0.50537109375;-0.451171875;-16.5;-33.8125;-15.4375;
1441975344904751;-0.850830078125;0.1051025390625;-0.396240234375;-0.328857421875;4.198580768514549;15.730297401814472;9.350996981844798;0.669921875;0.53662109375;-0.4794921875;-19.125;-37.4375;-15.0;
1441975344925752;-0.85302734375;0.10675048828125;-0.38983154296875;-0.3302001953125;4.264767092558716;15.743841863197208;9.319148674351636;0.74462890625;0.5498046875;-0.52880859375;-11.875;-40.5;-13.5;
1441975344941753;-0.85479736328125;0.109619140625;-0.3848876953125;-0.33050537109375;4.307903019025289;15.763862887762244;9.281501821245955;0.88623046875;0.568359375;-0.5419921875;-9.25;-40.125;-8.8125;
1441975344964755;-0.85546875;0.11297607421875;-0.38067626953125;-0.33258056640625;4.3416453377080115;15.767847830237473;9.250030897985724;0.96826171875;0.46337890625;-0.505859375;-8.8125;-40.625;-6.4375;
1441975344987756;-0.85491943359375;0.116943359375;-0.37738037109375;-0.33636474609375;4.362724246808611;15.756283809013498;9.22408452052088;0.84619140625;0.34619140625;-0.38427734375;-20.0;-36.625;-7.5625;
1441975345017758;-0.853515625;0.12255859375;-0.37689208984375;-0.33843994140625;4.34268766262827;15.75464211214681;9.191404352531217;0.74853515625;0.2578125;-0.35400390625;-33.5625;-28.0;-7.0;
1441975345024758;-0.8515625;0.12884521484375;-0.38037109375;-0.33721923828125;4.272648298080194;15.771051948368868;9.156687465398413;0.73095703125;0.126953125;-0.408203125;-35.1875;-13.1875;4.5625;
1441975345045759;-0.84906005859375;0.1343994140625;-0.38885498046875;-0.3316650390625;4.146661437668476;15.808340663981552;9.128566549198952;0.70751953125;0.01611328125;-0.328125;-19.0;1.1875;18.6875;
1441975345061760;-0.84564208984375;0.13946533203125;-0.4017333984375;-0.32275390625;3.9701909942822047;15.861602856758479;9.105161291948209;0.75439453125;-0.0107421875;-0.27099609375;7.25;20.875;32.6875;
1441975345084761;-0.84039306640625;0.14556884765625;-0.41705322265625;-0.314208984375;3.759273275161946;15.909758848089755;9.081776986089046;0.916015625;0.04541015625;-0.27587890625;28.5;38.625;46.25;
1441975345107763;-0.8330078125;0.15374755859375;-0.43414306640625;-0.306640625;3.51607521073026;15.952988570376592;9.050274210186634;0.99462890625;0.0634765625;-0.23095703125;25.1875;49.3125;56.8125;
1441975345121764;-0.82415771484375;0.16357421875;-0.45233154296875;-0.29913330078125;3.250110364801729;16.002226976119612;9.005293654029364;0.98828125;0.0146484375;-0.18017578125;13.625;59.0625;69.0;
1441975345144765;-0.8145751953125;0.1739501953125;-0.47088623046875;-0.2908935546875;2.9747419229694625;16.066391869459203;8.945526709976644;0.96923828125;-0.06396484375;-0.17236328125;5.625;66.8125;78.0625;
1441975345165766;-0.80450439453125;0.18402099609375;-0.48968505859375;-0.2813720703125;2.6948114352044796;16.151911122169114;8.870220434658117;0.904296875;-0.0986328125;-0.16015625;6.8125;72.3125;85.625;
1441975345189767;-0.79449462890625;0.19378662109375;-0.50726318359375;-0.27203369140625;2.4302717872767636;16.253607603433846;8.777471030153858;0.85498046875;-0.03662109375;-0.15966796875;15.125;76.75;95.375;
1441975345204768;-0.7830810546875;0.20513916015625;-0.5255126953125;-0.26177978515625;2.14949757836464;16.398043427675912;8.638267254129802;0.880859375;0.095703125;-0.19921875;17.625;81.4375;108.0;
1441975345225770;-0.77020263671875;0.21881103515625;-0.54400634765625;-0.25128173828125;1.859610871420992;16.60744015668122;8.424346002402459;1.0263671875;0.22900390625;-0.27392578125;16.5625;86.1875;122.9375;
1441975345241770;-0.75531005859375;0.2357177734375;-0.561767578125;-0.2418212890625;1.5738769422534278;16.913218301005404;8.093845223643042;1.20458984375;0.314453125;-0.35791015625;9.0625;88.8125;137.875;
1441975345264772;-0.73828125;0.2552490234375;-0.5789794921875;-0.2337646484375;1.3052560621996232;17.365709946217272;7.59761976459084;1.28662109375;0.33349609375;-0.38818359375;-9.4375;89.5625;151.8125;
1441975345285773;-0.7191162109375;0.2763671875;-0.5960693359375;-0.2264404296875;1.077521651317389;0.058136565287844395;6.849631601076882;1.267578125;0.29638671875;-0.361328125;-27.375;92.5625;161.125;
1441975345301774;-0.6978759765625;0.29949951171875;-0.6124267578125;-0.21966552734375;0.9486085825120855;1.0719935768422424;5.766572052484269;1.1796875;0.2568359375;-0.35888671875;-39.0;99.25;169.25;
1441975345324775;-0.67510986328125;0.32415771484375;-0.62762451171875;-0.2127685546875;0.9823466754625964;2.225610631259121;4.534472425588773;1.07763671875;0.28369140625;-0.3466796875;-51.625;102.5;179.1875;
1441975345345776;-0.6512451171875;0.34893798828125;-0.64190673828125;-0.2052001953125;1.1691509737259838;3.154342181768934;3.5260598757697763;1.02001953125;0.27783203125;-0.35888671875;-60.25;101.8125;188.0625;
1441975345361777;-0.626708984375;0.37249755859375;-0.6556396484375;-0.1966552734375;1.4477873221969464;3.7704785951717437;2.8361829778317045;0.99609375;0.23974609375;-0.34033203125;-61.0625;101.1875;191.75;
1441975345383779;-0.60223388671875;0.39453125;-0.66839599609375;-0.18707275390625;1.7713877502342827;4.154672263456264;2.385833909155205;0.966796875;0.20703125;-0.3154296875;-54.875;100.9375;192.125;
1441975345407780;-0.57806396484375;0.41595458984375;-0.67950439453125;-0.176513671875;2.1190791805180282;4.38670218780251;2.0906816595738413;0.9189453125;0.22216796875;-0.283203125;-46.9375;96.75;190.25;
1441975345428781;-0.55413818359375;0.437744140625;-0.6883544921875;-0.16595458984375;2.4752882661077904;4.518361409805656;1.8902330782958148;0.9033203125;0.25927734375;-0.23583984375;-45.0625;87.875;190.9375;
1441975345443782;-0.53125;0.45758056640625;-0.69586181640625;-0.15545654296875;2.816115061909475;4.601901070700566;1.7435320219123427;0.9306640625;0.21826171875;-0.1982421875;-51.5625;78.75;189.4375;
1441975345467783;-0.5101318359375;0.47320556640625;-0.7034912109375;-0.14495849609375;3.125392896904892;4.67543521641167;1.6253435461885954;0.9541015625;0.13134765625;-0.14892578125;-46.625;71.5;178.5625;
1441975345488785;-0.49090576171875;0.4853515625;-0.71087646484375;-0.13482666015625;3.4028576400930444;4.740712289137093;1.5296937001673903;0.94921875;0.09814453125;-0.14501953125;-28.0625;68.75;161.625;
1441975345503785;-0.47308349609375;0.49664306640625;-0.716796875;-0.12554931640625;3.659229028154969;4.784471367281267;1.4550069445937077;0.85888671875;0.197265625;-0.130859375;-13.875;63.9375;145.625;
1441975345527787;-0.45672607421875;0.5093994140625;-0.719482421875;-0.119384765625;3.8844927801745373;4.792009008127193;1.3951589533470017;0.7373046875;0.30517578125;-0.13623046875;-16.375;57.375;135.375;
1441975345548788;-0.445068359375;0.51824951171875;-0.7208251953125;-0.11737060546875;4.024736934097051;4.796253004716651;1.3439200609757784;0.68310546875;0.16552734375;-0.138671875;-38.3125;50.4375;118.0625;
1441975345564789;-0.4356689453125;0.52191162109375;-0.72430419921875;-0.1148681640625;4.132223796273018;4.828773123539298;1.2947208544045696;0.666015625;0.01611328125;-0.0927734375;-31.125;48.0;97.0;
1441975345602791;-0.4281005859375;0.52154541015625;-0.7293701171875;-0.1129150390625;4.2075663066657505;4.883551652838822;1.243540398830805;0.57958984375;-0.03662109375;-0.0888671875;-0.5;45.3125;74.4375;
1441975345615792;-0.42303466796875;0.52117919921875;-0.73291015625;-0.11102294921875;4.262790049917635;4.919820368555723;1.2126939640090018;0.40966796875;0.19970703125;-0.06689453125;18.6875;44.5;62.0;
1441975345632793;-0.41912841796875;0.52069091796875;-0.73541259765625;-0.1114501953125;4.2903847823987755;4.949850708663005;1.1799646071018164;0.36669921875;0.169921875;-0.21533203125;22.0625;37.6875;49.9375;
1441975345653794;-0.4180908203125;0.51416015625;-0.7406005859375;-0.11151123046875;4.278701716343337;5.016274016386965;1.1469054769099227;0.392578125;-0.0556640625;-0.103515625;11.3125;32.1875;26.0;
1441975345667795;-0.421875;0.5047607421875;-0.7445068359375;-0.1138916015625;4.200074818587863;5.079769585671165;1.1260694003100158;0.39208984375;-0.05810546875;-0.10205078125;47.5625;29.4375;5.5625;
1441975345683796;-0.42926025390625;0.49945068359375;-0.74310302734375;-0.118896484375;4.082636385116338;5.085178886988638;1.1339411301815816;0.43359375;0.28369140625;-0.0869140625;49.375;14.5625;-6.9375;
1441975345707797;-0.43896484375;0.4937744140625;-0.739990234375;-0.12640380859375;3.9245927440341872;5.079258897613752;1.1461219336068436;0.54443359375;0.11181640625;-0.1171875;15.375;-6.0;-26.75;
1441975345728798;-0.4541015625;0.4813232421875;-0.73748779296875;-0.135009765625;3.6892957380924;5.097180980433803;1.1678553934093139;0.58251953125;-0.1494140625;0.00439453125;4.625;-18.5625;-58.5;
1441975345743799;-0.4725341796875;0.4674072265625;-0.73297119140625;-0.14495849609375;3.408547479949858;5.099894650010475;1.207165535055045;0.63720703125;-0.1533203125;9.765625E-4;36.3125;-31.9375;-94.875;
1441975345767801;-0.49530029296875;0.4561767578125;-0.72210693359375;-0.15869140625;3.067589905701706;5.026283936802015;1.294047825750402;0.705078125;0.0947265625;-0.0498046875;34.8125;-49.375;-124.6875;
1441975345789802;-0.52105712890625;0.44769287109375;-0.7044677734375;-0.17840576171875;2.6639098320136445;4.859849416826004;1.4339833966472835;0.9345703125;0.25830078125;-0.13720703125;0.5;-75.4375;-146.3125;
1441975345803803;-0.5498046875;0.4320068359375;-0.68658447265625;-0.19921875;2.2012653319049647;4.669559845102693;1.6258291638109132;1.26611328125;0.0302734375;-0.09619140625;-42.8125;-94.6875;-178.625;
1441975345827804;-0.583740234375;0.4027099609375;-0.671142578125;-0.216064453125;1.6758983692386538;4.442257389254614;1.932982459438062;1.52587890625;-0.13330078125;-0.03857421875;-15.125;-98.9375;-215.625;
1441975345855806;-0.6209716796875;0.36749267578125;-0.65203857421875;-0.2327880859375;1.121933709494807;3.8870538588572674;2.5883506121122153;1.78466796875;-0.138671875;-0.099609375;62.9375;-106.0;-253.875;
1441975345864806;-0.65899658203125;0.3363037109375;-0.6220703125;-0.25628662109375;0.7145275860691779;2.020175989876264;4.497412894050757;1.99267578125;0.2763671875;-0.09423828125;82.0625;-124.9375;-280.8125;
1441975345887807;-0.69549560546875;0.30596923828125;-0.5828857421875;-0.2880859375;0.9248614196140648;17.204983744187835;7.302618771628578;2.29296875;0.55419921875;-0.04931640625;20.25;-158.0625;-319.4375;
1441975345908809;-0.73052978515625;0.27227783203125;-0.5377197265625;-0.3211669921875;1.6170320282366368;16.0347918880368;8.457604300908947;2.55908203125;0.3994140625;-0.08642578125;-33.75;-172.375;-356.625;
1441975345923809;-0.764404296875;0.230712890625;-0.48944091796875;-0.35064697265625;2.449253644880982;15.577934615733074;8.934531039895354;2.51953125;0.4599609375;-0.1552734375;-40.6875;-184.25;-381.8125;
1441975345947811;-0.79583740234375;0.18408203125;-0.4403076171875;-0.37274169921875;3.3068976449322993;15.389917664088472;9.185155538638828;2.60205078125;0.72021484375;-0.24072265625;-8.5;-184.375;-407.8125;
