1441975244185990;-0.8916015625;-0.05877685546875;-0.29522705078125;-0.33843994140625;6.08818564953952;15.653752788521597;10.020323093367276;2.1494140625;-0.6630859375;-0.244140625;222.5;6.5;-205.5;
1441975244201991;-0.91412353515625;-0.11767578125;-0.282958984375;-0.265625;6.295038427147838;16.084225440703246;10.211220277760466;1.7314453125;-0.40576171875;-0.373046875;393.125;27.9375;-207.6875;
1441975244223993;-0.9300537109375;-0.174072265625;-0.26641845703125;-0.1839599609375;6.44391115111021;16.558979362432822;10.393672247071436;1.38427734375;0.13525390625;-0.59033203125;517.5625;27.0625;-208.125;
1441975244245994;-0.9371337890625;-0.21820068359375;-0.24920654296875;-0.11041259765625;6.52384554704299;16.98291738620258;10.536233142552419;1.10107421875;0.72412109375;-0.67333984375;561.875;18.6875;-182.1875;
1441975244261995;-0.9393310546875;-0.24517822265625;-0.23236083984375;-0.05987548828125;6.597380796772155;17.282347543864454;10.616340420054446;0.98095703125;1.1904296875;-0.56982421875;499.875;6.3125;-132.3125;
1441975244283996;-0.93585205078125;-0.25726318359375;-0.23370361328125;-0.05914306640625;6.598692877388198;17.267847323783723;10.693603249942443;0.94970703125;1.74560546875;-0.29443359375;332.8125;-13.3125;-80.875;
1441975244305997;-0.9345703125;-0.25531005859375;-0.23541259765625;-0.0780029296875;6.641269455918067;17.15643224893427;10.705309653711506;0.93896484375;1.35791015625;-0.20166015625;97.4375;-36.5625;-45.125;
1441975244320998;-0.93304443359375;-0.2493896484375;-0.23992919921875;-0.0985107421875;6.651061617231207;17.033794648834814;10.699172821178696;0.962890625;0.34765625;-0.21533203125;-102.3125;-30.875;-18.0;
1441975244343999;-0.9317626953125;-0.24755859375;-0.24542236328125;-0.10205078125;6.59974343667002;17.00264607921248;10.70199329829746;0.8369140625;-0.15966796875;-0.26220703125;-128.9375;-17.0;-1.4375;
1441975244367001;-0.9306640625;-0.2515869140625;-0.24798583984375;-0.09564208984375;6.5579702663254436;17.028888448752017;10.724803064510436;0.75439453125;-0.2900390625;-0.32421875;-54.5625;-11.0625;-18.0;
1441975244381002;-0.92938232421875;-0.26025390625;-0.24853515625;-0.08306884765625;6.524960457444429;17.08972643327905;10.765716348089187;0.70751953125;-0.18701171875;-0.39111328125;16.125;-4.4375;-33.0;
1441975244404003;-0.9268798828125;-0.271240234375;-0.24969482421875;-0.0714111328125;6.490741539762832;17.139999814369897;10.823912069733709;0.6201171875;-0.08056640625;-0.45068359375;63.6875;3.8125;-44.8125;
1441975244436005;-0.923583984375;-0.2801513671875;-0.25408935546875;-0.06353759765625;6.42970079797805;17.1624085584127;10.879804645595208;0.65087890625;0.16259765625;-0.50830078125;74.8125;8.0625;-52.875;
1441975244441005;-0.9202880859375;-0.286865234375;-0.259765625;-0.05859375;6.361234446373426;17.16691036718421;10.927906163276578;0.67333984375;0.25048828125;-0.51611328125;52.125;19.0;-44.1875;
1441975244464006;-0.91705322265625;-0.2918701171875;-0.2664794921875;-0.05450439453125;6.281508793980045;17.165457726522956;10.968603598105263;0.6357421875;0.2158203125;-0.56884765625;28.0;24.4375;-36.5;
1441975244488008;-0.91363525390625;-0.2960205078125;-0.27447509765625;-0.04852294921875;6.178446446407622;17.171996814903412;11.004714538609154;0.623046875;0.18115234375;-0.544921875;17.9375;28.75;-28.8125;
1441975244502008;-0.90997314453125;-0.30010986328125;-0.28350830078125;-0.0404052734375;6.055054271346163;17.18750130480864;11.040131673612652;0.666015625;0.15185546875;-0.53515625;22.5625;36.875;-22.625;
1441975244525010;-0.9061279296875;-0.30322265625;-0.29315185546875;-0.0333251953125;5.926784458699997;17.195729032623408;11.072579920706442;0.693359375;0.205078125;-0.56005859375;35.125;46.625;-17.4375;
1441975244546011;-0.90228271484375;-0.30487060546875;-0.30364990234375;-0.02825927734375;5.79477539435987;17.19117567455512;11.100701653708391;0.6806640625;0.24169921875;-0.57470703125;28.8125;50.5625;-11.8125;
1441975244561012;-0.89849853515625;-0.305419921875;-0.3143310546875;-0.02593994140625;5.670327227230487;17.170655435184734;11.126995085852833;0.66650390625;0.16015625;-0.591796875;9.4375;53.875;-9.875;
1441975244584013;-0.89471435546875;-0.30462646484375;-0.32574462890625;-0.02593994140625;5.545594213730908;17.135324858255895;11.150945954882799;0.66259765625;0.12890625;-0.56494140625;-8.625;50.375;-9.875;
1441975244606014;-0.8905029296875;-0.30389404296875;-0.33782958984375;-0.025390625;5.411405131957427;17.09941112335427;11.178074177427474;0.66796875;0.11669921875;-0.529296875;-24.875;49.75;-7.4375;
1441975244629016;-0.88543701171875;-0.3033447265625;-0.35150146484375;-0.02447509765625;5.259008247277015;17.05781860710736;11.212681730121872;0.72265625;0.10498046875;-0.46728515625;-22.8125;50.9375;-9.125;
1441975244644017;-0.87896728515625;-0.3028564453125;-0.36798095703125;-0.02044677734375;5.0623254772823385;17.021969737984403;11.254140848770778;0.7451171875;0.1181640625;-0.38037109375;-21.6875;57.625;-10.5;
1441975244667018;-0.8712158203125;-0.30218505859375;-0.38671875;-0.01519775390625;4.8350702612273295;16.981185965587695;11.30397394184314;0.84228515625;0.0859375;-0.40625;-13.3125;78.6875;-9.9375;
1441975244682019;-0.86376953125;-0.30010986328125;-0.40484619140625;-0.0091552734375;4.606914501448214;16.9470768834991;11.344651543679285;0.8828125;0.1982421875;-0.47802734375;-7.5625;98.6875;-3.4375;
1441975244704020;-0.856201171875;-0.29656982421875;-0.4232177734375;-0.00384521484375;4.375354180190634;16.90666313994476;11.382054120316898;0.880859375;0.185546875;-0.486328125;-6.5625;99.0;5.3125;
1441975244728021;-0.8485107421875;-0.2938232421875;-0.44024658203125;1.8310546875E-4;4.165795823383259;16.856291702286956;11.428813641272772;0.92822265625;0.162109375;-0.43505859375;-14.75;97.5625;9.1875;
1441975244743022;-0.83917236328125;-0.2913818359375;-0.459228515625;0.0054931640625;3.9292947161259955;16.795973620911415;11.491936069037516;0.99267578125;0.13623046875;-0.33935546875;-16.0625;102.875;8.0;
1441975244764023;-0.82818603515625;-0.28961181640625;-0.47967529296875;0.01318359375;3.6665677784520208;16.730751624749164;11.572790796754875;1.1025390625;0.14208984375;-0.33837890625;-12.4375;118.3125;6.25;
1441975244787025;-0.81640625;-0.2869873046875;-0.500732421875;0.0224609375;3.3860571525027274;16.662957887129366;11.65917013604283;1.23388671875;0.22509765625;-0.384765625;-1.0;133.9375;7.5;
1441975244809026;-0.80419921875;-0.28179931640625;-0.52239990234375;0.03179931640625;3.0896344010208114;16.586106309745077;11.74390959845062;1.279296875;0.240234375;-0.423828125;2.75;142.875;14.5625;
1441975244824027;-0.79144287109375;-0.27398681640625;-0.544921875;0.04156494140625;2.772126706862617;16.49859567097593;11.829977041845748;1.283203125;0.21630859375;-0.396484375;-5.25;148.4375;26.1875;
1441975244846028;-0.7779541015625;-0.2642822265625;-0.56781005859375;0.0513916015625;2.442176896849928;16.391456298669198;11.928655459696097;1.34716796875;0.2216796875;-0.41064453125;-12.4375;155.9375;38.375;
1441975244863029;-0.76336669921875;-0.25439453125;-0.59051513671875;0.06231689453125;2.1055799117785514;16.257527384895074;12.059107914410951;1.4140625;0.181640625;-0.3662109375;-19.1875;160.6875;45.625;
1441975244884030;-0.74749755859375;-0.245361328125;-0.61285400390625;0.07470703125;1.7682523311500977;16.075641549172044;12.248353128226645;1.47216796875;0.12451171875;-0.31005859375;-13.875;165.8125;47.5625;
1441975244914032;-0.7310791015625;-0.2362060546875;-0.63421630859375;0.0870361328125;1.4449413427735787;15.815868144989187;12.516119050808284;1.50732421875;0.13525390625;-0.28857421875;-3.9375;171.25;47.6875;
1441975244924033;-0.71502685546875;-0.22589111328125;-0.654296875;0.0985107421875;1.1452952745033567;15.440900606553344;12.891902518566082;1.5224609375;0.14892578125;-0.265625;-2.625;170.375;48.0625;
1441975244944034;-0.69940185546875;-0.21240234375;-0.67376708984375;0.10894775390625;0.8644001962931291;14.854412465537582;13.462724722207453;1.49609375;0.15478515625;-0.24072265625;-9.25;163.875;51.875;
1441975244967035;-0.68426513671875;-0.1966552734375;-0.6922607421875;0.11822509765625;0.6391027418131634;13.853189456254379;14.435283302913094;1.46484375;0.166015625;-0.26171875;-24.625;162.375;62.8125;
1441975244983036;-0.669677734375;-0.18048095703125;-0.70916748046875;0.12677001953125;0.5403732406546584;12.311888126807359;15.944322123345007;1.47705078125;0.15087890625;-0.21044921875;-37.0625;156.6875;68.625;
1441975245004037;-0.65576171875;-0.16534423828125;-0.72418212890625;0.13525390625;0.6058987790853999;10.801409327164215;17.42748766630552;1.47607421875;0.10888671875;-0.2001953125;-40.375;149.25;69.0625;
1441975245034039;-0.64178466796875;-0.153564453125;-0.73724365234375;0.14520263671875;0.777014982246997;9.86151662302488;0.36090683109470134;1.4736328125;-0.00830078125;-0.16015625;-34.6875;139.0;65.375;
1441975245043039;-0.62689208984375;-0.14642333984375;-0.74896240234375;0.15704345703125;0.994079402167257;9.373306848563113;0.8705281630220126;1.50341796875;-0.078125;-0.08154296875;-12.8125;130.25;59.8125;
1441975245064041;-0.61212158203125;-0.14251708984375;-0.75921630859375;0.16937255859375;1.2137952930287703;9.123319997231821;1.1579883439499759;1.4853515625;-0.04541015625;-0.0556640625;15.1875;127.6875;52.1875;
1441975245086042;-0.59832763671875;-0.14141845703125;-0.76776123046875;0.18060302734375;1.4126569482354647;9.012108540431212;1.3142832304982166;1.3828125;-0.01171875;-0.0048828125;32.375;119.125;44.8125;
1441975245103043;-0.58624267578125;-0.1444091796875;-0.774169921875;0.19024658203125;1.5722628193575656;9.005636114658985;1.3763750533532426;1.3486328125;-0.06005859375;0.0615234375;40.9375;105.0;32.0;
1441975245124044;-0.57489013671875;-0.14874267578125;-0.78009033203125;0.1971435546875;1.714698870986838;9.052411424890554;1.3795976546072892;1.24755859375;0.021484375;0.11669921875;53.0625;95.75;17.5;
1441975245146045;-0.56591796875;-0.15045166015625;-0.78546142578125;0.200439453125;1.832231191666467;9.086433191682385;1.3691315552006305;1.12744140625;0.19970703125;0.14404296875;45.9375;84.9375;13.1875;
1441975245163046;-0.5601806640625;-0.1475830078125;-0.7901611328125;0.200439453125;1.920955531966181;9.075437834465221;1.3697899693217923;1.041015625;0.32470703125;0.17529296875;17.375;70.0;16.75;
1441975245184047;-0.55755615234375;-0.14031982421875;-0.794189453125;0.19708251953125;1.981521479931177;9.026295520929127;1.3751981018734312;0.94189453125;0.30908203125;0.19384765625;-17.5;53.1875;18.875;
1441975245206049;-0.55804443359375;-0.12994384765625;-0.79681396484375;0.1920166015625;2.009219357208285;8.939745856363263;1.3970028496798652;0.86669921875;0.2919921875;0.181640625;-50.8125;39.0625;20.1875;
1441975245223050;-0.56207275390625;-0.1168212890625;-0.797607421875;0.18505859375;1.9970779515507515;8.818047918958534;1.4337435009321093;0.79833984375;0.27099609375;0.2001953125;-72.625;19.9375;25.875;
1441975245244051;-0.569091796875;-0.10076904296875;-0.7965087890625;0.17791748046875;1.9552463825461568;8.639772084450946;1.5136598776830936;0.77783203125;0.2333984375;0.21484375;-93.125;-1.9375;28.8125;
1441975245267052;-0.578369140625;-0.083984375;-0.79364013671875;0.16912841796875;1.884237194691994;8.443639437925121;1.601619583572124;0.74853515625;0.18115234375;0.20703125;-104.5;-22.25;28.375;
1441975245283053;-0.59002685546875;-0.06683349609375;-0.788818359375;0.15869140625;1.781584469642825;8.224414686335905;1.704494009304527;0.67236328125;0.14306640625;0.19482421875;-114.0625;-39.25;25.875;
1441975245304054;-0.6036376953125;-0.05010986328125;-0.7821044921875;0.146728515625;1.650018653451261;7.982710942230977;1.8257411573512266;0.62744140625;0.115234375;0.2041015625;-122.375;-57.625;22.5625;
1441975245326056;-0.618896484375;-0.0352783203125;-0.7733154296875;0.1331787109375;1.4856430773539189;7.72624250545977;1.9636799335086983;0.61572265625;0.02294921875;0.19091796875;-126.5625;-73.9375;15.3125;
1441975245343057;-0.63494873046875;-0.02337646484375;-0.76300048828125;0.11895751953125;1.2975108994972744;7.453751160573091;2.127609753454201;0.6376953125;-0.080078125;0.1904296875;-123.5;-90.8125;2.125;
1441975245364058;-0.65167236328125;-0.013671875;-0.75115966796875;0.10479736328125;1.094798330546988;7.116951147356984;2.3657666333781493;0.6767578125;-0.0576171875;0.1669921875;-113.5625;-102.0625;-9.375;
1441975245386059;-0.66912841796875;-0.00469970703125;-0.73785400390625;0.089111328125;0.8828207561215892;6.648304452217782;2.7331525212559566;0.72265625;0.02294921875;0.1171875;-104.125;-111.5625;-14.5625;
1441975245410060;-0.68719482421875;0.00506591796875;-0.7230224609375;0.07086181640625;0.6806688811771552;5.8966134734545665;3.3705152495817616;0.7392578125;0.03271484375;0.07275390625;-107.25;-120.5625;-22.625;
1441975245424061;-0.7056884765625;0.01605224609375;-0.70654296875;0.05078125;0.541778019995573;4.607060937133313;4.533810050389877;0.70849609375;0.0615234375;0.041015625;-120.25;-128.875;-29.25;
1441975245448063;-0.724365234375;0.02838134765625;-0.68829345703125;0.028564453125;0.5463929763792541;2.8827800143384943;6.117962639960821;0.69677734375;0.09130859375;-0.03125;-132.625;-135.9375;-31.125;
1441975245463063;-0.742431640625;0.04058837890625;-0.66876220703125;0.00494384765625;0.7021417414988242;1.5135856847122267;7.341724976116372;0.7265625;0.0625;-0.10498046875;-147.0;-142.4375;-34.6875;
1441975245484065;-0.75927734375;0.05084228515625;-0.6485595703125;-0.0181884765625;0.9363525699263276;0.6812567054609443;8.038028527032772;0.76806640625;0.021484375;-0.1650390625;-152.1875;-145.4375;-41.0625;
1441975245506066;-0.774658203125;0.0582275390625;-0.6285400390625;-0.03955078125;1.1957071021582815;0.16489777471631326;8.436495409274627;0.80810546875;-0.0087890625;-0.20751953125;-142.625;-143.5;-48.0625;
1441975245523067;-0.78826904296875;0.0625;-0.60943603515625;-0.05828857421875;1.4532899271937323;17.82049260238121;8.685588909396134;0.83349609375;-0.04541015625;-0.25244140625;-125.0625;-137.625;-54.375;
1441975245544068;-0.80010986328125;0.0640869140625;-0.5919189453125;-0.07342529296875;1.6947712942235815;17.58950201092404;8.846329399775264;0.83984375;-0.0400390625;-0.29638671875;-102.0;-127.5;-58.5;
1441975245574070;-0.8109130859375;0.0643310546875;-0.57550048828125;-0.08489990234375;1.923680176563322;17.443149275258012;8.942495047706457;0.849609375;0.0087890625;-0.36181640625;-76.6875;-113.75;-56.4375;
1441975245583070;-0.8199462890625;0.06427001953125;-0.56121826171875;-0.0933837890625;2.1216291155427;17.353391823660676;8.995420654662123;0.8740234375;0.083984375;-0.4384765625;-54.875;-98.5625;-47.1875;
1441975245604071;-0.8272705078125;0.0645751953125;-0.5491943359375;-0.09967041015625;2.2861092175960596;17.300114467200082;9.019425418222587;0.9208984375;0.1220703125;-0.48095703125;-39.8125;-84.375;-35.5;
1441975245627073;-0.83282470703125;0.06524658203125;-0.539794921875;-0.10406494140625;2.412833750072311;17.27109799257434;9.025715170343409;0.95751953125;0.16650390625;-0.478515625;-30.0;-72.0625;-23.5;
1441975245642074;-0.83642578125;0.066650390625;-0.53338623046875;-0.10723876953125;2.497061451023744;17.25683476869328;9.019700345279654;0.97119140625;0.21044921875;-0.50830078125;-20.875;-55.3125;-11.6875;
1441975245665075;-0.83795166015625;0.069091796875;-0.53021240234375;-0.10986328125;2.5358340082572406;17.250052496118133;9.004752483727389;0.96484375;0.23828125;-0.54345703125;-17.125;-34.25;-0.5;
1441975245686076;-0.83746337890625;0.07275390625;-0.530029296875;-0.11187744140625;2.5316175904717904;17.252917773301846;8.978155825974682;0.9453125;0.25;-0.5615234375;-17.375;-12.1875;9.8125;
1441975245702077;-0.83526611328125;0.07781982421875;-0.532470703125;-0.11322021484375;2.4896709966013812;17.269015427820484;8.935844181865278;0.9189453125;0.2265625;-0.54638671875;-19.125;7.375;18.9375;
1441975245731079;-0.83160400390625;0.08428955078125;-0.5369873046875;-0.1141357421875;2.41727756983367;17.298291397009375;8.876753717590148;0.89794921875;0.197265625;-0.5283203125;-20.5;23.5625;28.5625;
1441975245755080;-0.82684326171875;0.09185791015625;-0.54296875;-0.11474609375;2.3234401696070006;17.340663133935486;8.801629360640751;0.89453125;0.18310546875;-0.509765625;-22.75;36.5625;38.125;
1441975245762081;-0.82135009765625;0.10003662109375;-0.54986572265625;-0.11431884765625;2.2165863631284224;17.405185222482416;8.706328755239735;0.8701171875;0.15283203125;-0.4541015625;-25.375;44.3125;44.8125;
1441975245785082;-0.815673828125;0.10784912109375;-0.55718994140625;-0.1123046875;2.1065822112181274;17.49510147257836;8.593854193421489;0.84228515625;0.0908203125;-0.37744140625;-22.75;47.0;48.6875;
1441975245806083;-0.81024169921875;0.1148681640625;-0.5643310546875;-0.109375;2.003141308387086;17.600712139039018;8.47274582692866;0.84326171875;0.0390625;-0.3154296875;-15.375;45.5625;50.125;
1441975245822084;-0.80517578125;0.1209716796875;-0.57086181640625;-0.106201171875;1.911126925059612;17.71162385167747;8.350924282851816;0.85986328125;0.0166015625;-0.25927734375;-8.25;41.25;48.0625;
1441975245847085;-0.800537109375;0.1265869140625;-0.57659912109375;-0.10345458984375;1.8319351253899874;17.820714709617327;8.230953071287427;0.845703125;0.0107421875;-0.22119140625;-4.125;36.125;44.9375;
1441975245867087;-0.7962646484375;0.13214111328125;-0.58154296875;-0.101806640625;1.7640437246186937;17.92022059009257;8.116104728780632;0.82275390625;0.02099609375;-0.19970703125;-4.125;31.125;41.8125;
1441975245890088;-0.7923583984375;0.13818359375;-0.58544921875;-0.10198974609375;1.7082634070442813;0.0016976726559042171;8.009483106745158;0.826171875;0.04443359375;-0.189453125;-8.875;27.4375;39.3125;
1441975245905089;-0.788818359375;0.14544677734375;-0.5880126953125;-0.10430908203125;1.6667373911607999;0.06480029865318543;7.907039771327279;0.859375;0.08740234375;-0.20751953125;-18.75;23.5625;38.3125;
1441975245926090;-0.785888671875;0.15411376953125;-0.58905029296875;-0.10845947265625;1.642816574759993;0.11232675577341289;7.806508826622738;0.888671875;0.1162109375;-0.2265625;-32.4375;18.5625;37.75;
1441975245942091;-0.783447265625;0.16363525390625;-0.58868408203125;-0.11407470703125;1.6338551545777786;0.1417544524019026;7.714074122682581;0.88623046875;0.11279296875;-0.24755859375;-46.1875;12.125;36.375;
1441975245965092;-0.78143310546875;0.17364501953125;-0.587158203125;-0.12054443359375;1.6374269370348773;0.1577763643933778;7.629066420449613;0.87646484375;0.11376953125;-0.25341796875;-57.125;5.375;34.375;
1441975245988093;-0.77972412109375;0.18341064453125;-0.5850830078125;-0.12713623046875;1.647331197024787;0.1653402468797835;7.552782429914923;0.88720703125;0.10791015625;-0.27880859375;-62.9375;0.5625;32.1875;
1441975246003094;-0.77825927734375;0.1925048828125;-0.58270263671875;-0.13336181640625;1.661199173651533;0.16809073137666514;7.485378190596722;0.90087890625;0.1005859375;-0.2978515625;-63.1875;-1.5;29.5625;
1441975246025096;-0.77703857421875;0.20068359375;-0.580322265625;-0.13885498046875;1.6767178267200167;0.17019945469539635;7.425388161049675;0.8837890625;0.0869140625;-0.306640625;-60.0625;-2.5625;26.5625;
1441975246054097;-0.77606201171875;0.207763671875;-0.5780029296875;-0.1434326171875;1.6934498049340085;0.17270391770798915;7.373285927506846;0.85986328125;0.07861328125;-0.3056640625;-53.3125;-3.6875;23.75;
1441975246064098;-0.77520751953125;0.21368408203125;-0.5760498046875;-0.14697265625;1.708155203816018;0.1787525056287269;7.3268333280635805;0.85009765625;0.0625;-0.302734375;-45.75;-4.25;20.9375;
1441975246093099;-0.774658203125;0.21820068359375;-0.574462890625;-0.14947509765625;1.7214945037988056;0.18511904479211772;7.290421929056241;0.8486328125;0.04833984375;-0.302734375;-37.1875;-3.875;18.25;
1441975246106100;-0.7744140625;0.22149658203125;-0.5731201171875;-0.1510009765625;1.73476414359097;0.19242677571271588;7.262338838372647;0.84521484375;0.0517578125;-0.3095703125;-26.8125;-2.875;15.9375;
1441975246130102;-0.7744140625;0.2239990234375;-0.57183837890625;-0.152099609375;1.7485165685723314;0.19662458709154917;7.242513969956932;0.837890625;0.052734375;-0.3173828125;-18.25;-2.125;13.375;
1441975246145102;-0.774658203125;0.22625732421875;-0.5704345703125;-0.15301513671875;1.7648787709379474;0.19914967821687657;7.226177570231455;0.8291015625;0.0625;-0.3125;-12.75;-3.0;11.75;
1441975246167104;-0.77496337890625;0.2286376953125;-0.56890869140625;-0.15350341796875;1.7843061023765716;0.20799851875500983;7.2046475829341645;0.84033203125;0.06201171875;-0.3115234375;-11.3125;-5.0625;10.8125;
1441975246183105;-0.7752685546875;0.23089599609375;-0.567626953125;-0.15338134765625;1.8032626013470234;0.22511579475587587;7.178006096256633;0.8935546875;0.052734375;-0.31103515625;-10.0625;-7.625;12.0;
1441975246206106;-0.77545166015625;0.2322998046875;-0.56695556640625;-0.15289306640625;1.815278805977033;0.24195862099543494;7.15700106992962;0.974609375;0.03271484375;-0.33837890625;-6.8125;-7.375;12.875;
1441975246234108;-0.77557373046875;0.23291015625;-0.56658935546875;-0.15240478515625;1.8223284744215962;0.2524900030236281;7.145711945459768;1.03857421875;0.03564453125;-0.361328125;-1.875;-4.0625;11.5625;
1441975246242108;-0.77545166015625;0.2333984375;-0.5667724609375;-0.151611328125;1.8237995131279527;0.26981617064085894;7.129658479773896;1.09228515625;0.0498046875;-0.38916015625;1.75;-0.9375;9.0625;
1441975246266109;-0.7742919921875;0.23443603515625;-0.5684814453125;-0.149658203125;1.8110724057903633;0.3212444602971247;7.0824618498279674;1.115234375;0.0185546875;-0.4365234375;3.25;4.375;8.625;
1441975246286111;-0.772216796875;0.2337646484375;-0.572265625;-0.14691162109375;1.7734587139295088;0.38349085749489037;7.035617108330545;1.10888671875;-0.12060546875;-0.404296875;4.9375;10.6875;8.5;
1441975246302111;-0.77191162109375;0.23199462890625;-0.5743408203125;-0.14312744140625;1.7622958829244486;0.4324061380502441;7.010588449591173;1.05419921875;-0.205078125;-0.34912109375;14.1875;21.5625;1.375;
1441975246325113;-0.7724609375;0.23126220703125;-0.57366943359375;-0.1444091796875;1.764657742706066;0.40038361722952354;7.040307263810449;0.9091796875;-0.22314453125;-0.45556640625;21.875;17.9375;-5.1875;
1441975246346114;-0.77386474609375;0.22918701171875;-0.572021484375;-0.14666748046875;1.7738831176159957;0.3316595596743067;7.108039099457632;0.7939453125;-0.115234375;-0.3896484375;-4.9375;6.75;-14.25;
1441975246362115;-0.77716064453125;0.22210693359375;-0.570556640625;-0.145751953125;1.79196376701062;0.2507954280997106;7.222507144504269;0.76708984375;-0.154296875;-0.35693359375;-6.6875;0.4375;-28.25;
1441975246385116;-0.7813720703125;0.20989990234375;-0.57073974609375;-0.1405029296875;1.8043380900907893;0.18533880548824927;7.36179015402352;0.7724609375;-0.20703125;-0.32763671875;24.3125;-7.125;-46.0625;
1441975246406117;-0.78521728515625;0.19378662109375;-0.5733642578125;-0.13116455078125;1.79733411049405;0.15078670771420216;7.504060671004808;0.80712890625;-0.17138671875;-0.3330078125;63.875;-4.75;-52.8125;
1441975246429119;-0.79052734375;0.17926025390625;-0.57275390625;-0.1224365234375;1.831356082890097;0.10727958904102577;7.644865346028113;0.86669921875;-0.09228515625;-0.34521484375;99.125;5.1875;-49.375;
1441975246445120;-0.7930908203125;0.170654296875;-0.5728759765625;-0.117431640625;1.8435991141616588;0.08388454743130526;7.725185400840651;0.9091796875;-0.0166015625;-0.41455078125;90.3125;-11.3125;-43.1875;
1441975246467121;-0.79437255859375;0.1666259765625;-0.5726318359375;-0.11578369140625;1.8513015513632478;0.062071486562177064;7.770675086321718;1.015625;-0.02392578125;-0.3916015625;52.4375;-3.3125;-26.0;
1441975246489122;-0.7958984375;0.165771484375;-0.5709228515625;-0.11474609375;1.8775803209663575;0.05903830453151074;7.781164985690907;1.0517578125;-0.00341796875;-0.37109375;21.5625;-2.9375;-14.0625;
1441975246513123;-0.79730224609375;0.17059326171875;-0.56744384765625;-0.115234375;1.9247377318100716;0.08561647920580434;7.731498242265905;0.97705078125;-0.0947265625;-0.44580078125;5.0625;-5.75;-8.75;
1441975246526124;-0.7969970703125;0.17755126953125;-0.5655517578125;-0.1163330078125;1.9491371602398504;0.13220876480661092;7.650640605580259;0.9267578125;-0.259765625;-0.474609375;-25.9375;-13.3125;0.0;
1441975246549126;-0.7960205078125;0.1812744140625;-0.5660400390625;-0.114990234375;1.9486001695675637;0.19032376360680084;7.582538010173306;0.927734375;-0.28759765625;-0.33544921875;-36.4375;-10.75;9.1875;
1441975246565126;-0.79681396484375;0.18145751953125;-0.56536865234375;-0.1123046875;1.9668385764880845;0.22328414008950895;7.559738391800229;0.89111328125;-0.22509765625;-0.28271484375;-10.875;-0.625;9.25;
1441975246588128;-0.7989501953125;0.1810302734375;-0.56280517578125;-0.11041259765625;2.007389403574946;0.2284381159929325;7.563541901833748;0.8349609375;-0.1005859375;-0.38818359375;9.75;-2.5;3.0;
1441975246609129;-0.80047607421875;0.181884765625;-0.560546875;-0.10955810546875;2.0412390344333047;0.2344462018669542;7.5569028410890935;0.8193359375;-0.00830078125;-0.4306640625;9.3125;-11.75;1.25;
1441975246625130;-0.80096435546875;0.1842041015625;-0.5592041015625;-0.10943603515625;2.06142510786655;0.2501340525013439;7.53163149065723;0.8642578125;-0.0078125;-0.34716796875;0.375;-15.1875;5.125;
1441975246646131;-0.80133056640625;0.18731689453125;-0.55743408203125;-0.11029052734375;2.0838158751463696;0.25863284180323765;7.5059387624564815;0.88427734375;-0.0068359375;-0.3076171875;-7.5;-10.6875;10.8125;
1441975246669132;-0.8023681640625;0.18994140625;-0.5548095703125;-0.11126708984375;2.116737296340899;0.2558521064496354;7.49282233818996;0.890625;-0.01025390625;-0.369140625;-14.75;-8.125;11.5;
1441975246685133;-0.8035888671875;0.1920166015625;-0.55206298828125;-0.11285400390625;2.1490644142001805;0.2398008443135096;7.492768510868741;0.90185546875;-0.029296875;-0.408203125;-14.9375;-12.375;6.1875;
1441975246708135;-0.80450439453125;0.19403076171875;-0.54949951171875;-0.1151123046875;2.1759238914924235;0.2167486028552883;7.497132859420011;0.9228515625;-0.029296875;-0.38427734375;-16.125;-14.625;1.8125;
1441975246729136;-0.805419921875;0.1962890625;-0.546875;-0.11749267578125;2.2035205624254197;0.1943021998512451;7.499344415397836;0.93017578125;-0.02294921875;-0.369140625;-18.875;-13.3125;-0.125;
1441975246745137;-0.806640625;0.19830322265625;-0.5439453125;-0.119384765625;2.23659605287428;0.17423009969146538;7.502107581744824;0.92626953125;-0.05810546875;-0.3818359375;-21.4375;-13.5625;-2.125;
1441975246775138;-0.807861328125;0.1998291015625;-0.54119873046875;-0.12060546875;2.2688473238352427;0.15923934223845565;7.504606921866052;0.92724609375;-0.10400390625;-0.3798828125;-19.6875;-16.6875;-5.5625;
1441975246805140;-0.80908203125;0.200927734375;-0.538818359375;-0.12158203125;2.297588973858716;0.14527153793948533;7.5091200761924135;0.93701171875;-0.1328125;-0.359375;-15.6875;-18.25;-7.0625;
1441975246808140;-0.8106689453125;0.2012939453125;-0.535888671875;-0.12322998046875;2.330567799416508;0.11547976466075716;7.529516373713983;0.93505859375;-0.12744140625;-0.34765625;-12.875;-17.375;-8.0;
1441975246835142;-0.81298828125;0.200927734375;-0.531982421875;-0.12554931640625;2.374289655583108;0.06858885180733466;7.567007626628348;0.9169921875;-0.09814453125;-0.36767578125;-13.1875;-18.875;-12.625;
1441975246849143;-0.8155517578125;0.20025634765625;-0.527587890625;-0.12835693359375;2.4229094076669586;0.013557311906882802;7.611647551981151;0.8974609375;-0.08251953125;-0.38720703125;-14.6875;-22.9375;-18.8125;
1441975246865144;-0.81829833984375;0.19927978515625;-0.52294921875;-0.13140869140625;2.4746503181367774;17.954582448501313;7.660396861217341;0.888671875;-0.0751953125;-0.37646484375;-16.4375;-26.125;-22.75;
1441975246903146;-0.8211669921875;0.19775390625;-0.518310546875;-0.13421630859375;2.527770598053719;17.896451526101686;7.711601699200489;0.87841796875;-0.07275390625;-0.37646484375;-16.6875;-27.5625;-25.3125;
1441975246909146;-0.823974609375;0.19561767578125;-0.51397705078125;-0.1368408203125;2.5781852949885984;17.839083061812758;7.765474972658399;0.8564453125;-0.06884765625;-0.38232421875;-14.5;-27.1875;-27.5625;
1441975246933148;-0.82666015625;0.1929931640625;-0.510009765625;-0.13897705078125;2.6256999094518605;17.78665539620692;7.818588135698412;0.8349609375;-0.052734375;-0.37548828125;-10.6875;-26.25;-29.1875;
1441975246948148;-0.8291015625;0.19049072265625;-0.50634765625;-0.1412353515625;2.6695435465046695;17.73634963952443;7.868655353757916;0.83837890625;-0.03271484375;-0.37451171875;-6.6875;-24.5625;-28.75;
1441975246969150;-0.8311767578125;0.188232421875;-0.50323486328125;-0.14361572265625;2.70662908221153;17.689112457245166;7.91435662067082;0.861328125;-4.8828125E-4;-0.38720703125;-6.5625;-22.625;-26.625;
1441975246986151;-0.832763671875;0.1864013671875;-0.50048828125;-0.14605712890625;2.738045066126263;17.646058962438133;7.953773337573848;0.89208984375;0.0166015625;-0.38671875;-7.4375;-20.6875;-24.375;
1441975247015152;-0.83392333984375;0.18505859375;-0.49835205078125;-0.1485595703125;2.7616382819229113;17.60745012843029;7.986702316733179;0.9033203125;0.01806640625;-0.40185546875;-9.1875;-17.625;-22.125;
1441975247029153;-0.83441162109375;0.18414306640625;-0.4970703125;-0.1510009765625;2.7735422185850034;17.574136497817886;8.013034873167577;0.93310546875;0.0302734375;-0.4140625;-10.1875;-14.0625;-18.9375;
1441975247045154;-0.83416748046875;0.1837158203125;-0.49688720703125;-0.15350341796875;2.770727125061199;17.545104297753873;8.033234644097638;0.9853515625;0.05859375;-0.43310546875;-10.3125;-8.9375;-14.1875;
1441975247068155;-0.83319091796875;0.18402099609375;-0.49761962890625;-0.1561279296875;2.754820214456553;17.520699703836165;8.045542978204775;1.052734375;0.08642578125;-0.45751953125;-10.625;-2.875;-9.1875;
1441975247089156;-0.8316650390625;0.18463134765625;-0.49908447265625;-0.15887451171875;2.7285176525229797;17.497733206859042;8.054887687636072;1.1005859375;0.087890625;-0.48193359375;-13.375;3.625;-4.5;
1441975247105157;-0.8299560546875;0.1851806640625;-0.5009765625;-0.16119384765625;2.6974837140110592;17.47913060988526;8.062108986147996;1.08837890625;0.07861328125;-0.4853515625;-14.8125;9.375;-3.4375;
1441975247128159;-0.82794189453125;0.1859130859375;-0.50341796875;-0.16314697265625;2.6597176521913886;17.466077134601953;8.064791253115633;1.01220703125;0.03759765625;-0.46728515625;-14.0;13.0625;-3.9375;
1441975247149160;-0.8258056640625;0.186279296875;-0.50640869140625;-0.1641845703125;2.616814712718341;17.460921423634225;8.065200378843478;0.94189453125;-0.021484375;-0.41845703125;-13.625;15.875;-4.6875;
1441975247165161;-0.8238525390625;0.18572998046875;-0.50994873046875;-0.16387939453125;2.571016142427015;17.46471108706985;8.066522182588322;0.87451171875;-0.052734375;-0.37744140625;-8.5625;18.3125;-4.6875;
1441975247188162;-0.82196044921875;0.18426513671875;-0.51385498046875;-0.1627197265625;2.5228373153179646;17.471951745191895;8.071941067714256;0.8310546875;-0.048828125;-0.3671875;1.1875;21.0;-4.0625;
1441975247209163;-0.82012939453125;0.182373046875;-0.5179443359375;-0.16107177734375;2.4737015758524827;17.481837025691203;8.078621405985164;0.837890625;0.0029296875;-0.36767578125;10.125;22.625;-2.1875;
1441975247225164;-0.8182373046875;0.18048095703125;-0.52203369140625;-0.15972900390625;2.4238676741573015;17.48823142914533;8.087473424443663;0.8740234375;0.06591796875;-0.38232421875;15.8125;23.8125;1.0;
1441975247248166;-0.816162109375;0.17901611328125;-0.52593994140625;-0.1590576171875;2.37403242456244;17.48977179979664;8.096369739283997;0.91357421875;0.119140625;-0.39013671875;15.8125;24.375;3.875;
1441975247276167;-0.8138427734375;0.178466796875;-0.5296630859375;-0.15911865234375;2.323830155037086;17.48950540861801;8.10001280409372;0.955078125;0.15380859375;-0.39892578125;12.0625;24.125;6.0625;
1441975247285168;-0.81121826171875;0.17913818359375;-0.53326416015625;-0.1597900390625;2.2724568290000415;17.491654436054315;8.093465775025054;0.9931640625;0.15673828125;-0.40185546875;5.3125;23.625;8.4375;
1441975247308169;-0.808349609375;0.1806640625;-0.5367431640625;-0.160888671875;2.220428007877689;17.495829648683923;8.079399687056199;1.01513671875;0.13232421875;-0.39013671875;-2.25;23.1875;10.625;
1441975247329170;-0.8055419921875;0.182373046875;-0.5401611328125;-0.1617431640625;2.169668278434563;17.505052813238933;8.060547187023873;0.99853515625;0.0966796875;-0.37451171875;-7.9375;22.5625;11.375;
1441975247345171;-0.8028564453125;0.1837158203125;-0.54351806640625;-0.162109375;2.1207222286923626;17.517856855962563;8.04160428320389;0.95849609375;0.0595703125;-0.345703125;-8.3125;21.875;10.875;
1441975247374173;-0.8004150390625;0.184326171875;-0.54705810546875;-0.16180419921875;2.0721864143167608;17.533680337049745;8.025689118438107;0.9248046875;0.04443359375;-0.3291015625;-5.125;21.375;10.0;
1441975247389174;-0.7982177734375;0.18408203125;-0.5506591796875;-0.16070556640625;2.0252898641310364;17.55279606641226;8.013362951670086;0.90087890625;0.0546875;-0.3232421875;0.875;22.125;9.6875;
1441975247405175;-0.79620361328125;0.18280029296875;-0.55450439453125;-0.158935546875;1.9776880911461296;17.57203922132357;8.008143488086485;0.896484375;0.064453125;-0.34228515625;8.0;23.4375;9.0625;
1441975247428176;-0.79449462890625;0.18035888671875;-0.5584716796875;-0.15643310546875;1.9312801461415245;17.59049402338739;8.011660723536522;0.89599609375;0.0771484375;-0.341796875;15.0625;24.6875;7.1875;
1441975247449177;-0.7930908203125;0.17718505859375;-0.56219482421875;-0.15362548828125;1.8891260737217197;17.605448871331426;8.022845259244637;0.890625;0.0908203125;-0.3388671875;22.4375;25.125;5.1875;
1441975247479179;-0.79193115234375;0.17364501953125;-0.56573486328125;-0.1507568359375;1.850136810173257;17.616979889053876;8.039186200687501;0.89111328125;0.10791015625;-0.34814453125;26.875;24.25;3.8125;
1441975247488179;-0.79095458984375;0.169921875;-0.56903076171875;-0.147705078125;1.8146924340697155;17.62854720637433;8.056863823576476;0.88330078125;0.11328125;-0.333984375;28.5;22.875;2.5;
1441975247510181;-0.79022216796875;0.16595458984375;-0.572021484375;-0.14447021484375;1.7837267445602294;17.639304473161914;8.07697394295652;0.86962890625;0.11279296875;-0.31982421875;30.0;20.5625;1.8125;
1441975247525181;-0.78973388671875;0.16156005859375;-0.57476806640625;-0.14111328125;1.7565212917308037;17.64632986386342;8.102987600323805;0.85498046875;0.10693359375;-0.3046875;31.3125;18.25;0.6875;
1441975247547183;-0.78955078125;0.15679931640625;-0.57720947265625;-0.1376953125;1.734036151607682;17.649069940210342;8.134973188734637;0.85693359375;0.11474609375;-0.2919921875;33.375;16.0625;-0.625;
1441975247569184;-0.78961181640625;0.15203857421875;-0.57916259765625;-0.13427734375;1.7176718235904271;17.650477247536944;8.168062694799794;0.88134765625;0.1396484375;-0.298828125;35.3125;13.8125;-1.0625;
1441975247585185;-0.78985595703125;0.14739990234375;-0.580810546875;-0.13092041015625;1.705337637163644;17.65146506901593;8.200722482141385;0.923828125;0.16259765625;-0.31201171875;35.625;11.0;-0.1875;
1441975247607186;-0.79022216796875;0.14300537109375;-0.58209228515625;-0.12786865234375;1.6970244555607596;17.649692923781792;8.23372869441053;0.970703125;0.173828125;-0.30224609375;35.0;7.8125;0.5;
1441975247632187;-0.7906494140625;0.1390380859375;-0.5830078125;-0.1253662109375;1.6922136035143058;17.64359829944427;8.266885907522077;1.02880859375;0.1875;-0.3046875;33.0;4.75;1.0625;
1441975247644188;-0.79119873046875;0.135498046875;-0.58343505859375;-0.12371826171875;1.6922766604890254;17.628307438831087;8.303799245307276;1.0615234375;0.19091796875;-0.29931640625;28.5625;1.9375;0.6875;
1441975247667189;-0.791748046875;0.132568359375;-0.5836181640625;-0.12274169921875;1.6943936465364697;17.609350524153857;8.339034534648077;1.068359375;0.18994140625;-0.2978515625;23.125;-0.25;-0.4375;
1441975247690191;-0.79229736328125;0.1300048828125;-0.58349609375;-0.1224365234375;1.6991349586300222;17.58392255166369;8.37633507203036;1.1005859375;0.17578125;-0.30615234375;17.4375;-1.5;-1.625;
1441975247704192;-0.79302978515625;0.12762451171875;-0.58294677734375;-0.122802734375;1.7089686132319508;17.54999491584719;8.418514031853835;1.09716796875;0.1640625;-0.30517578125;12.5625;-2.5625;-3.375;
1441975247741194;-0.7940673828125;0.12548828125;-0.58184814453125;-0.12347412109375;1.7261057740707053;17.514373515527986;8.459996064994497;1.05615234375;0.14892578125;-0.29541015625;8.625;-4.9375;-6.0625;
1441975247758195;-0.79522705078125;0.123291015625;-0.58050537109375;-0.12445068359375;1.746583743973588;17.474107730184365;8.505051710469466;1.01416015625;0.125;-0.2861328125;5.6875;-8.0625;-8.8125;
1441975247790197;-0.796630859375;0.12054443359375;-0.57904052734375;-0.125;1.7704489407461632;17.43533709526639;8.552644457458404;0.96044921875;0.095703125;-0.25830078125;3.6875;-10.5625;-12.375;
1441975247796197;-0.79840087890625;0.11676025390625;-0.57733154296875;-0.1251220703125;1.7999244655341982;17.393099288300718;8.60971391016184;0.931640625;0.06591796875;-0.2509765625;6.625;-11.9375;-16.0;
1441975247810198;-0.800537109375;0.112060546875;-0.575439453125;-0.12469482421875;1.834540892591126;17.351227904205786;8.672480486231953;0.90380859375;0.05810546875;-0.25244140625;12.125;-13.1875;-20.125;
1441975247840199;-0.80279541015625;0.1068115234375;-0.57342529296875;-0.1240234375;1.872010246323026;17.30934617145061;8.738488919675179;0.8955078125;0.07470703125;-0.26708984375;18.0625;-13.875;-22.375;
1441975247855200;-0.80523681640625;0.10125732421875;-0.57110595703125;-0.123779296875;1.9146437588343166;17.26097569386277;8.810435833395491;0.89697265625;0.09814453125;-0.2744140625;21.375;-14.8125;-23.3125;
1441975247870201;-0.80755615234375;0.09613037109375;-0.5687255859375;-0.12359619140625;1.9573567529482854;17.21844396195835;8.874470827663947;0.89599609375;0.14111328125;-0.28564453125;21.3125;-16.0;-23.5;
1441975247899203;-0.80975341796875;0.0916748046875;-0.56634521484375;-0.1236572265625;1.9992366190277813;17.18105106316399;8.929596193909553;0.90576171875;0.16259765625;-0.28955078125;19.4375;-16.5;-21.1875;
1441975247915204;-0.81170654296875;0.08795166015625;-0.56414794921875;-0.1236572265625;2.0372418853375427;17.152455215408473;8.97317685660029;0.93017578125;0.17529296875;-0.30615234375;16.5625;-16.375;-18.125;
1441975247930205;-0.8133544921875;0.08489990234375;-0.56231689453125;-0.12322998046875;2.068769526412062;17.135776379423163;9.003901355226517;0.9658203125;0.18896484375;-0.31689453125;14.375;-15.625;-14.3125;
1441975247952206;-0.8145751953125;0.08270263671875;-0.56085205078125;-0.1229248046875;2.09313324107553;17.124459928398228;9.025261113370362;1.0263671875;0.197265625;-0.34033203125;14.125;-13.8125;-9.75;
1441975247975207;-0.8155517578125;0.0814208984375;-0.5595703125;-0.1231689453125;2.1134987467478483;17.11374087250201;9.040023389971942;1.08642578125;0.197265625;-0.35546875;10.9375;-12.125;-5.9375;
1441975247990208;-0.81640625;0.08135986328125;-0.55810546875;-0.1243896484375;2.134029546754507;17.101436079399697;9.047229201613144;1.08544921875;0.17919921875;-0.34912109375;4.5625;-11.4375;-4.625;
1441975248012209;-0.81707763671875;0.08245849609375;-0.5565185546875;-0.1263427734375;2.153563170471485;17.089818316926838;9.045841703066802;1.02392578125;0.1396484375;-0.33203125;-4.6875;-12.25;-4.75;
1441975248037211;-0.8177490234375;0.0838623046875;-0.5548095703125;-0.12841796875;2.1738907281556274;17.079537013225824;9.041290665413442;0.9658203125;0.06298828125;-0.30712890625;-14.0625;-13.1875;-6.5;
1441975248050211;-0.818603515625;0.0845947265625;-0.55322265625;-0.1295166015625;2.194207333827367;17.07607073261656;9.036827650186458;0.9306640625;-9.765625E-4;-0.29833984375;-16.875;-13.6875;-9.0;
1441975248071213;-0.82000732421875;0.08404541015625;-0.55120849609375;-0.129638671875;2.22293646941737;17.075786254044584;9.03846637343608;0.91796875;-0.0380859375;-0.29248046875;-11.1875;-14.1875;-11.8125;
1441975248087214;-0.8218994140625;0.082275390625;-0.54888916015625;-0.12872314453125;2.2583850169131403;17.079701913835994;9.045240947663745;0.908203125;-0.0302734375;-0.2998046875;-2.0;-16.6875;-14.6875;
1441975248110215;-0.82415771484375;0.07952880859375;-0.5462646484375;-0.1270751953125;2.299721564418952;17.08588113373292;9.056787684403433;0.9052734375;-0.017578125;-0.296875;7.1875;-19.8125;-17.125;
1441975248131216;-0.82672119140625;0.0762939453125;-0.54327392578125;-0.1251220703125;2.346823931035225;17.093108736789475;9.070523114158728;0.90771484375;-0.0068359375;-0.30029296875;14.1875;-22.5625;-19.0;
1441975248147217;-0.82928466796875;0.0731201171875;-0.54010009765625;-0.1236572265625;2.396082330368565;17.095497929516714;9.086773074189098;0.9228515625;0.02734375;-0.3251953125;17.6875;-24.0625;-18.875;
1441975248170218;-0.831787109375;0.0704345703125;-0.53680419921875;-0.12286376953125;2.4460921781169462;17.09412411620368;9.10195407500848;0.935546875;0.07080078125;-0.35107421875;16.0625;-24.4375;-17.6875;
1441975248193220;-0.83404541015625;0.0684814453125;-0.5335693359375;-0.12286376953125;2.493763690597537;17.088830178529427;9.114705350977074;0.9619140625;0.10546875;-0.39208984375;11.9375;-23.3125;-15.5625;
1441975248214221;-0.8360595703125;0.06744384765625;-0.53033447265625;-0.12359619140625;2.5393183096076237;17.08166983720913;9.12241838625977;0.97265625;0.123046875;-0.412109375;5.6875;-22.0625;-13.5;
1441975248230222;-0.83782958984375;0.0672607421875;-0.52740478515625;-0.1243896484375;2.579143957249178;17.079068020193162;9.121840649647567;0.95166015625;0.12060546875;-0.427734375;-0.75;-21.125;-11.6875;
1441975248251223;-0.83929443359375;0.06732177734375;-0.52490234375;-0.12481689453125;2.612221406024732;17.08097057752577;9.11732719565048;0.908203125;0.0947265625;-0.40185546875;-4.25;-19.75;-8.9375;
1441975248267224;-0.84063720703125;0.06719970703125;-0.5228271484375;-0.12457275390625;2.6400141765400367;17.088032119289736;9.111349591575872;0.873046875;0.06298828125;-0.384765625;-4.0625;-17.8125;-7.6875;
1441975248291225;-0.84185791015625;0.06671142578125;-0.521240234375;-0.12353515625;2.6621151065918593;17.100215564488586;9.105244126754071;0.83544921875;0.0498046875;-0.36767578125;-0.5625;-15.6875;-7.125;
1441975248311226;-0.8428955078125;0.06585693359375;-0.52001953125;-0.1219482421875;2.6796191655211197;17.114947354957998;9.100476717022879;0.81689453125;0.0419921875;-0.35302734375;4.75;-13.4375;-6.1875;
1441975248327227;-0.84381103515625;0.06475830078125;-0.51898193359375;-0.12054443359375;2.6952438601173156;17.125595622832527;9.100086508371227;0.8291015625;0.05517578125;-0.365234375;8.25;-11.0625;-5.0625;
1441975248350229;-0.8446044921875;0.06365966796875;-0.51800537109375;-0.1195068359375;2.7099549559652583;17.132025106349506;9.102375513497218;0.84033203125;0.07275390625;-0.3828125;8.9375;-9.1875;-5.5625;
1441975248371230;-0.84515380859375;0.062744140625;-0.51739501953125;-0.11895751953125;2.7199294174389657;17.133607959708787;9.106810023273233;0.84716796875;0.0908203125;-0.39990234375;7.625;-7.625;-5.625;
1441975248395231;-0.84539794921875;0.06182861328125;-0.51708984375;-0.11895751953125;2.7257651032965393;17.128523650975826;9.115643764676959;0.8681640625;0.0966796875;-0.40283203125;4.625;-5.75;-5.8125;
1441975248410232;-0.84539794921875;0.060791015625;-0.51727294921875;-0.118896484375;2.725603055732853;17.12230270082044;9.126505064373394;0.89306640625;0.09912109375;-0.41015625;1.5625;-3.1875;-7.0625;
1441975248431233;-0.8450927734375;0.05950927734375;-0.51788330078125;-0.118896484375;2.720029153906836;17.112786560343892;9.141484153072312;0.919921875;0.08837890625;-0.41357421875;2.0625;-0.75;-8.0625;
1441975248456235;-0.8447265625;0.05804443359375;-0.5186767578125;-0.11907958984375;2.712909298386994;17.09975819673419;9.160039925832148;0.93798828125;0.09130859375;-0.42431640625;2.5625;2.25;-9.125;
1441975248470235;-0.84423828125;0.05633544921875;-0.51959228515625;-0.11944580078125;2.7046339540364674;17.082740540001392;9.182835136033086;0.916015625;0.09423828125;-0.4130859375;2.375;4.0625;-10.375;
1441975248491237;-0.84368896484375;0.0545654296875;-0.5205078125;-0.1199951171875;2.696477401681979;17.063150834623524;9.207663589618196;0.89306640625;0.08642578125;-0.40869140625;1.4375;5.4375;-12.0;
1441975248523238;-0.843017578125;0.05242919921875;-0.52166748046875;-0.12042236328125;2.685936727111561;17.0417275516528;9.236405674901508;0.8681640625;0.06982421875;-0.39794921875;0.6875;6.25;-14.1875;
1441975248530239;-0.84246826171875;0.0496826171875;-0.52288818359375;-0.1204833984375;2.676363166433907;17.020203199094443;9.269375805847254;0.8603515625;0.0673828125;-0.39306640625;2.1875;7.75;-15.3125;
1441975248551240;-0.84185791015625;0.04656982421875;-0.52410888671875;-0.12030029296875;2.6670155538614515;16.998569160918436;9.30494149429749;0.86279296875;0.07958984375;-0.40869140625;5.9375;9.4375;-16.3125;
1441975248567241;-0.84124755859375;0.04315185546875;-0.52545166015625;-0.12017822265625;2.6574856578133437;16.9738802534018;9.344627339135524;0.86474609375;0.09228515625;-0.4169921875;8.25;10.4375;-17.4375;
1441975248589242;-0.84039306640625;0.03973388671875;-0.5269775390625;-0.12042236328125;2.64575228535317;16.94411637227544;9.387838199404609;0.8740234375;0.1064453125;-0.427734375;9.125;11.875;-17.8125;
1441975248611243;-0.8394775390625;0.03643798828125;-0.52862548828125;-0.12091064453125;2.633091166852385;16.911817975527626;9.432093008283424;0.88232421875;0.111328125;-0.43017578125;7.25;13.375;-18.75;
1441975248627244;-0.83831787109375;0.03326416015625;-0.53057861328125;-0.12127685546875;2.6160688696723593;16.87992423439936;9.475964578281861;0.87158203125;0.10693359375;-0.4306640625;5.5;14.9375;-19.375;
1441975248649246;-0.83697509765625;0.0299072265625;-0.53277587890625;-0.12164306640625;2.59659599069164;16.845247832315852;9.52339516273042;0.8759765625;0.09912109375;-0.42626953125;5.1875;17.0625;-19.0;
1441975248673247;-0.83563232421875;0.02630615234375;-0.5350341796875;-0.12188720703125;2.5774271952081134;16.809510021487736;9.57341794191135;0.86962890625;0.10498046875;-0.431640625;6.0;19.5625;-19.25;
1441975248687248;-0.834228515625;0.0225830078125;-0.537353515625;-0.1220703125;2.5580830994036963;16.772639999964596;9.62531802238593;0.86376953125;0.12255859375;-0.43994140625;7.1875;21.125;-19.1875;
1441975248709249;-0.83270263671875;0.0186767578125;-0.539794921875;-0.12213134765625;2.53772145421216;16.734461085006078;9.679775926960474;0.85595703125;0.1220703125;-0.43310546875;7.75;22.0625;-19.4375;
1441975248733250;-0.83111572265625;0.0145263671875;-0.5423583984375;-0.12213134765625;2.5170855567038455;16.69400308553444;9.737786393358437;0.8544921875;0.1298828125;-0.41845703125;8.9375;22.4375;-19.8125;
1441975248747251;-0.82952880859375;0.01007080078125;-0.5450439453125;-0.12188720703125;2.496315648625246;16.652960304936546;9.798684684012859;0.8447265625;0.13427734375;-0.40625;10.25;23.1875;-20.5625;
1441975248778253;-0.82781982421875;0.00531005859375;-0.54779052734375;-0.1212158203125;2.474811579133254;16.612994306965877;9.861489233258608;0.84326171875;0.1328125;-0.39306640625;12.4375;23.4375;-21.125;
1441975248793254;-0.8260498046875;3.662109375E-4;-0.5506591796875;-0.12042236328125;2.4528588724940983;16.571557146884224;9.92702976287373;0.8515625;0.14453125;-0.38427734375;15.4375;23.8125;-20.875;
1441975248807255;-0.82421875;-0.0047607421875;-0.55364990234375;-0.11932373046875;2.429952783400131;16.53053004623915;9.994177020430659;0.87109375;0.17236328125;-0.38671875;17.125;25.0;-20.0625;
1441975248829256;-0.82196044921875;-0.009765625;-0.55706787109375;-0.11846923828125;2.4021306221959975;16.483061034518126;10.066229858954774;0.9189453125;0.21044921875;-0.4140625;19.5;27.0;-18.3125;
1441975248853257;-0.819580078125;-0.014404296875;-0.56060791015625;-0.117919921875;2.3732759662968053;16.432280185575426;10.13879818258977;0.9560546875;0.236328125;-0.4111328125;18.25;29.375;-17.125;
1441975248874259;-0.81707763671875;-0.01885986328125;-0.56427001953125;-0.11737060546875;2.3430688159533584;16.38009798668446;10.211988025797192;0.9560546875;0.23193359375;-0.39013671875;15.5;29.5;-17.1875;
1441975248890259;-0.8143310546875;-0.02313232421875;-0.5682373046875;-0.116455078125;2.3079286391367297;16.328798859803854;10.285042917148088;0.9296875;0.20947265625;-0.36083984375;14.25;29.5;-17.125;
1441975248920261;-0.8115234375;-0.02777099609375;-0.57232666015625;-0.11480712890625;2.2711207880556765;16.28016245326568;10.359954402745922;0.89404296875;0.1787109375;-0.31640625;15.0625;30.375;-16.9375;
1441975248934262;-0.80877685546875;-0.03326416015625;-0.57647705078125;-0.112060546875;2.2342834373293505;16.235733018371786;10.43870640628079;0.85693359375;0.16064453125;-0.2978515625;19.375;31.625;-16.625;
1441975248950263;-0.80609130859375;-0.039794921875;-0.58050537109375;-0.10833740234375;2.2001449637702626;16.193945527717883;10.523059363777161;0.85302734375;0.166015625;-0.2880859375;27.3125;32.375;-16.4375;
1441975248980265;-0.8033447265625;-0.046875;-0.58453369140625;-0.10418701171875;2.1672693056598646;16.1507521096242;10.612781084667423;0.8818359375;0.2109375;-0.302734375;36.375;33.5625;-15.875;
1441975248995265;-0.80047607421875;-0.0540771484375;-0.588623046875;-0.0999755859375;2.1346372681487047;16.104204070421765;10.706548790567995;0.91357421875;0.23974609375;-0.3037109375;40.1875;33.9375;-15.5;
1441975249009266;-0.79736328125;-0.06097412109375;-0.5927734375;-0.09600830078125;2.101182742983035;16.05286003111242;10.802773893540081;0.93212890625;0.2578125;-0.29931640625;41.0;34.3125;-15.3125;
1441975249033268;-0.79400634765625;-0.06768798828125;-0.59710693359375;-0.0924072265625;2.0673598623166742;15.993404184251544;10.904795408364437;0.9453125;0.26123046875;-0.2880859375;38.9375;35.25;-14.6875;
1441975249054269;-0.79071044921875;-0.0743408203125;-0.60125732421875;-0.08856201171875;2.0351515399863525;15.936189491347736;11.005275683731265;0.92578125;0.25390625;-0.2607421875;36.6875;35.3125;-15.0625;
1441975249070270;-0.78729248046875;-0.080810546875;-0.60540771484375;-0.08465576171875;2.0025292802219843;15.877401432239246;11.10677936828102;0.87646484375;0.22998046875;-0.23681640625;37.0625;34.9375;-15.375;
1441975249100271;-0.78399658203125;-0.08746337890625;-0.6092529296875;-0.08074951171875;1.9751075248116476;15.818351145134386;11.209258645738835;0.849609375;0.22900390625;-0.20849609375;37.5625;34.125;-13.9375;
1441975249114272;-0.78106689453125;-0.0946044921875;-0.612548828125;-0.07647705078125;1.9552128676361642;15.765637086114856;11.308886134190404;0.83935546875;0.24365234375;-0.1953125;38.125;32.1875;-13.9375;
1441975249129273;-0.77825927734375;-0.1019287109375;-0.61553955078125;-0.07196044921875;1.9387857894000349;15.716561513804878;11.406611956927648;0.8583984375;0.26171875;-0.19970703125;42.125;29.1875;-13.875;
1441975249153274;-0.77545166015625;-0.109375;-0.61822509765625;-0.0672607421875;1.9251492755408575;15.670184059278656;11.50290020609299;0.89306640625;0.28466796875;-0.1943359375;44.5625;27.25;-13.1875;
1441975249175276;-0.77288818359375;-0.1168212890625;-0.62060546875;-0.06256103515625;1.9154760318238564;15.627936970451655;11.595050321040514;0.9130859375;0.314453125;-0.18115234375;46.375;25.0625;-11.8125;
1441975249198277;-0.7703857421875;-0.12353515625;-0.62286376953125;-0.05841064453125;1.9066526892327096;15.585571098223383;11.68205115057274;0.91650390625;0.328125;-0.173828125;46.9375;22.6875;-10.6875;
1441975249214278;-0.76800537109375;-0.12921142578125;-0.62493896484375;-0.05499267578125;1.8984549897287795;15.544273898014342;11.760720616938846;0.9091796875;0.33447265625;-0.15087890625;42.3125;20.0;-9.375;
1441975249234279;-0.7657470703125;-0.1337890625;-0.626953125;-0.05230712890625;1.8895914252861243;15.503230243097946;11.831605278968983;0.91259765625;0.34375;-0.1494140625;35.875;18.4375;-6.75;
1441975249249280;-0.763671875;-0.13751220703125;-0.6287841796875;-0.0506591796875;1.8844444021632647;15.460169628817878;11.896744576202465;0.91064453125;0.333984375;-0.14990234375;28.125;16.8125;-5.3125;
1441975249274281;-0.76177978515625;-0.14068603515625;-0.6304931640625;-0.04949951171875;1.8809258863078326;15.418242573629081;11.956479329862495;0.90869140625;0.3203125;-0.14208984375;20.5;14.125;-5.875;
1441975249295283;-0.75982666015625;-0.14373779296875;-0.63226318359375;-0.04827880859375;1.8762196396296742;15.376013790331214;12.016263213770126;0.9033203125;0.3115234375;-0.12255859375;17.0625;11.625;-6.1875;
1441975249318284;-0.75787353515625;-0.1470947265625;-0.6339111328125;-0.0472412109375;1.8760476227533514;15.331825660828526;12.078539466934826;0.92578125;0.30810546875;-0.10791015625;16.5;10.875;-6.25;
1441975249333285;-0.7559814453125;-0.1500244140625;-0.63555908203125;-0.04638671875;1.8750637468440927;15.28861924449601;12.137315883909057;0.93017578125;0.33837890625;-0.11669921875;17.3125;11.4375;-6.1875;
1441975249354286;-0.7542724609375;-0.15167236328125;-0.63720703125;-0.04632568359375;1.8720001826885935;15.2461509063758;12.186800316612054;0.9375;0.3720703125;-0.12255859375;14.9375;11.0625;-3.125;
1441975249369287;-0.7528076171875;-0.15216064453125;-0.63873291015625;-0.0472412109375;1.869642610589354;15.20425173972569;12.226931391798821;0.9443359375;0.3740234375;-0.11767578125;7.0;9.3125;-0.5;
1441975249393288;-0.7515869140625;-0.15203857421875;-0.64013671875;-0.048583984375;1.8677429720064966;15.165221014051053;12.259908605536928;0.93603515625;0.365234375;-0.1171875;-1.3125;7.1875;0.5625;
1441975249414289;-0.75042724609375;-0.15179443359375;-0.64141845703125;-0.050048828125;1.866930328166986;15.127647567043095;12.290447836496874;0.9453125;0.3408203125;-0.1015625;-5.4375;4.4375;-0.1875;
1441975249429290;-0.74951171875;-0.15142822265625;-0.6424560546875;-0.0516357421875;1.8682146354617544;15.09494437524882;12.315117009954903;0.95263671875;0.3193359375;-0.09814453125;-6.6875;3.625;-1.6875;
1441975249452292;-0.7486572265625;-0.15045166015625;-0.64349365234375;-0.05364990234375;1.8686160188922114;15.061872080917865;12.33588791140309;0.9404296875;0.318359375;-0.11376953125;-8.0;2.625;-1.6875;
1441975249481293;-0.74798583984375;-0.14886474609375;-0.6444091796875;-0.056396484375;1.871178421407441;15.028766347869228;12.351174192937544;0.91455078125;0.2939453125;-0.10302734375;-11.875;1.5;-1.75;
1441975249489294;-0.74755859375;-0.146484375;-0.6451416015625;-0.06005859375;1.8763041591066054;14.996305747226272;12.358795135191768;0.87060546875;0.29443359375;-0.0849609375;-17.0625;-0.75;-0.75;
1441975249512295;-0.7474365234375;-0.14337158203125;-0.6455078125;-0.0645751953125;1.884918386923987;14.96751266203593;12.356254331532256;0.83447265625;0.283203125;-0.087890625;-23.5;-2.8125;-1.0;
1441975249534296;-0.74761962890625;-0.1395263671875;-0.64556884765625;-0.06988525390625;1.8961893522603437;14.942131136853865;12.344034270185508;0.80908203125;0.27880859375;-0.0986328125;-30.125;-5.375;-0.875;
1441975249549297;-0.74822998046875;-0.1348876953125;-0.64532470703125;-0.0751953125;1.9041352373441596;14.927490575870998;12.317783770600222;0.79150390625;0.294921875;-0.09033203125;-35.5625;-8.75;0.8125;
1441975249596300;-0.7490234375;-0.12945556640625;-0.6448974609375;-0.080322265625;1.90632357872811;14.92084236285182;12.28103177234906;0.8056640625;0.2978515625;-0.1044921875;-38.5625;-11.375;4.1875;
1441975249598300;-0.7498779296875;-0.12347412109375;-0.64447021484375;-0.08489990234375;1.9007558093049837;14.920880458996988;12.237586159760415;0.81103515625;0.28662109375;-0.1103515625;-40.4375;-12.4375;7.5625;
1441975249609301;-0.750732421875;-0.11724853515625;-0.64398193359375;-0.08941650390625;1.8933317703454493;14.923065486184042;12.191255148515857;0.81396484375;0.27880859375;-0.11279296875;-40.375;-12.5;11.3125;
1441975249647303;-0.75177001953125;-0.11065673828125;-0.64337158203125;-0.0938720703125;1.8839767731428005;14.930623500096557;12.138304574278372;0.80419921875;0.283203125;-0.10595703125;-40.6875;-13.375;13.125;
1441975249655303;-0.7528076171875;-0.10345458984375;-0.64263916015625;-0.09857177734375;1.8727764280760963;14.940243918658599;12.079804384950513;0.8134765625;0.29736328125;-0.1171875;-41.6875;-13.8125;15.75;
1441975249676304;-0.75372314453125;-0.09478759765625;-0.64202880859375;-0.1041259765625;1.8564771031227196;14.946591521856526;12.015074896433081;0.8447265625;0.32958984375;-0.14453125;-44.875;-13.3125;19.3125;
1441975249692305;-0.75421142578125;-0.08465576171875;-0.641845703125;-0.1102294921875;1.8304712497337445;14.945858140362745;11.949196085888866;0.86083984375;0.34521484375;-0.1513671875;-54.3125;-13.5;23.3125;
1441975249715307;-0.7542724609375;-0.07403564453125;-0.64202880859375;-0.116455078125;1.798766804786659;14.93839725000367;11.887592508561994;0.8525390625;0.30126953125;-0.1181640625;-62.25;-13.1875;25.0;
1441975249729307;-0.75408935546875;-0.0638427734375;-0.64208984375;-0.122802734375;1.7707125462715452;14.927418798573385;11.83076761865543;0.84423828125;0.263671875;-0.09912109375;-65.125;-11.3125;24.875;
1441975249752309;-0.7537841796875;-0.05328369140625;-0.64190673828125;-0.13055419921875;1.7504648488379897;14.907719715247236;11.775393585068048;0.828125;0.25537109375;-0.123046875;-64.9375;-9.0;22.25;
1441975249775310;-0.75323486328125;-0.04193115234375;-0.6416015625;-0.13922119140625;1.7306144946147195;14.882655273468144;11.718352056356835;0.82080078125;0.2783203125;-0.13232421875;-72.125;-9.0625;20.0625;
1441975249796311;-0.751953125;-0.029541015625;-0.64166259765625;-0.1485595703125;1.703599771610622;14.84434484145124;11.667518156652168;0.8583984375;0.283203125;-0.15966796875;-79.75;-8.0625;20.125;
1441975249812312;-0.75006103515625;-0.01812744140625;-0.64239501953125;-0.1566162109375;1.6688980054433047;14.797949891619686;11.63407430090559;0.912109375;0.23681640625;-0.16943359375;-87.8125;-4.25;17.9375;
1441975249835314;-0.748046875;-0.00823974609375;-0.6431884765625;-0.16351318359375;1.6360482186917011;14.751826037749092;11.611340897226833;0.984375;0.2080078125;-0.18701171875;-80.0;2.8125;15.625;
1441975249856315;-0.7457275390625;5.4931640625E-4;-0.64434814453125;-0.1695556640625;1.6020967189025979;14.699050682936354;11.603283652836048;1.04736328125;0.212890625;-0.2314453125;-70.4375;8.0625;13.25;
1441975249886316;-0.7431640625;0.0084228515625;-0.64593505859375;-0.17462158203125;1.5649944177167556;14.641080336357144;11.608246380610803;1.06640625;0.22216796875;-0.2138671875;-62.5625;10.8125;12.4375;
1441975249895317;-0.74041748046875;0.01519775390625;-0.64794921875;-0.17840576171875;1.52435688156645;14.579796336229602;11.626350633260566;1.07080078125;0.19091796875;-0.2001953125;-55.4375;14.375;10.5625;
1441975249916318;-0.73779296875;0.0216064453125;-0.64984130859375;-0.18145751953125;1.4824739559830464;14.524728050204828;11.642724970305697;1.09375;0.197265625;-0.19189453125;-45.8125;17.5;11.5625;
1441975249932319;-0.7353515625;0.0272216796875;-0.651611328125;-0.18438720703125;1.446759995602012;14.468733248915212;11.663794822316788;1.10888671875;0.15869140625;-0.19580078125;-41.5625;17.875;10.1875;
1441975249955320;-0.73321533203125;0.032958984375;-0.65289306640625;-0.18743896484375;1.4143422158835786;14.421880999526952;11.67465167233516;1.12109375;0.19482421875;-0.16796875;-37.25;16.125;9.3125;
1441975249978322;-0.7313232421875;0.03887939453125;-0.65374755859375;-0.1907958984375;1.3854416743655524;14.381787711586544;11.676689162857755;1.091796875;0.1298828125;-0.1572265625;-38.3125;12.25;5.5625;
1441975249992322;-0.7298583984375;0.0443115234375;-0.65411376953125;-0.19384765625;1.361376901140123;14.354978277698086;11.668617300197955;1.04931640625;0.07861328125;-0.1328125;-40.125;8.5625;2.0625;
1441975250015324;-0.728515625;0.04931640625;-0.65423583984375;-0.19720458984375;1.3440006215593225;14.328017469367511;11.661117285139412;1.009765625;0.0244140625;-0.14306640625;-36.625;6.8125;-2.25;
1441975250036325;-0.72772216796875;0.05377197265625;-0.65374755859375;-0.20062255859375;1.3353029656017725;14.31511285397862;11.641487534380314;0.998046875;0.04541015625;-0.12841796875;-36.0625;4.875;-3.6875;
1441975250052326;-0.72747802734375;0.0577392578125;-0.65252685546875;-0.2044677734375;1.337985210466195;14.315021455498144;11.609157377713347;1.02783203125;0.0693359375;-0.1484375;-34.1875;2.125;-5.9375;
1441975250075327;-0.7274169921875;0.06170654296875;-0.65106201171875;-0.2080078125;1.3401857274404754;14.324474126603056;11.568457810736177;1.0185546875;0.0966796875;-0.14794921875;-33.25;-2.1875;-8.4375;
1441975250098329;-0.72723388671875;0.0645751953125;-0.65032958984375;-0.2100830078125;1.3365317506737069;14.329087429458662;11.543337051379813;0.97509765625;0.05029296875;-0.13232421875;-32.125;-4.8125;-10.3125;
1441975250120330;-0.7274169921875;0.0660400390625;-0.64971923828125;-0.21087646484375;1.334740816005522;14.34209568739031;11.520954556087803;0.9482421875;0.0205078125;-0.1220703125;-21.4375;-1.25;-10.1875;
1441975250125330;-0.7275390625;0.0675048828125;-0.64910888671875;-0.2119140625;1.3344989510684506;14.351668470566946;11.500982471783347;0.958984375;0.0751953125;-0.15673828125;-10.875;1.5;-7.5;
1441975250151332;-0.7279052734375;0.06915283203125;-0.64825439453125;-0.21282958984375;1.3340255741273126;14.3711497056262;11.470858340860183;0.9765625;0.123046875;-0.14013671875;-11.5625;0.5625;-5.0625;
1441975250172333;-0.72833251953125;0.0706787109375;-0.64739990234375;-0.21331787109375;1.3318004774435428;14.395321128836358;11.438289075159567;0.97021484375;0.11669921875;-0.123046875;-11.25;-2.9375;-4.8125;
1441975250185334;-0.72882080078125;0.07135009765625;-0.646728515625;-0.21331787109375;1.3317915468294144;14.417312261444113;11.413464996568548;0.92919921875;0.0546875;-0.09765625;-8.625;-5.0625;-7.5;
1441975250208335;-0.72967529296875;0.0712890625;-0.64605712890625;-0.21270751953125;1.3341331746791523;14.446557777751295;11.387052426244628;0.888671875;0.04541015625;-0.072265625;-3.375;-4.9375;-8.5625;
1441975250231336;-0.73028564453125;0.07171630859375;-0.645263671875;-0.21282958984375;1.3378786114772265;14.469098778988855;11.362166065450328;0.88427734375;0.0830078125;-0.0791015625;3.0625;-5.25;-7.125;
1441975250254337;-0.730712890625;0.07275390625;-0.64447021484375;-0.21337890625;1.339657783002963;14.48831211052125;11.336311234605834;0.88916015625;0.1298828125;-0.04345703125;-1.8125;-8.125;-4.8125;
1441975250269338;-0.73089599609375;0.0736083984375;-0.64361572265625;-0.21490478515625;1.3487965860703497;14.492482302467888;11.322075882420602;0.87744140625;0.095703125;-0.0185546875;-5.8125;-9.4375;-5.5625;
1441975250300340;-0.73126220703125;0.07464599609375;-0.642578125;-0.2164306640625;1.358218455838938;14.503146492845438;11.300613270900563;0.85009765625;0.12353515625;0.0078125;-8.875;-10.0;-7.8125;
1441975250307341;-0.73162841796875;0.076904296875;-0.641357421875;-0.218017578125;1.3605110110682765;14.524208974700437;11.263480322395042;0.8427734375;0.13037109375;0.009765625;-9.3125;-11.75;-7.0625;
1441975250328342;-0.73193359375;0.0799560546875;-0.64031982421875;-0.218994140625;1.3522601301926356;14.554564107570569;11.216430137864236;0.8662109375;0.14794921875;-0.0107421875;-14.25;-13.0625;-1.125;
1441975250351343;-0.732177734375;0.08306884765625;-0.6395263671875;-0.2193603515625;1.3383394961720494;14.588724865710411;11.167926728725481;0.89111328125;0.13818359375;-0.0087890625;-14.8125;-13.4375;3.75;
1441975250365344;-0.732421875;0.0863037109375;-0.638916015625;-0.21923828125;1.3197334829515643;14.62808984545267;11.1158436453152;0.92724609375;0.17822265625;-0.00927734375;-12.0625;-13.0625;8.3125;
1441975250388345;-0.7318115234375;0.08990478515625;-0.63916015625;-0.2188720703125;1.2893961263054035;14.650059743710901;11.080675888841967;0.95849609375;0.17138671875;-0.00927734375;-10.3125;-12.8125;10.8125;
1441975250411346;-0.7303466796875;0.09381103515625;-0.64044189453125;-0.21856689453125;1.2483973079820825;14.64703984583925;11.06921501272171;0.98486328125;0.14697265625;-0.00537109375;-11.5625;-7.0625;13.0;
1441975250425347;-0.7283935546875;0.098388671875;-0.6416015625;-0.2193603515625;1.2086334957118208;14.629991597168766;11.064209852074198;1.005859375;0.1591796875;0.0224609375;-13.0625;-2.0;16.5625;
1441975250448349;-0.7259521484375;0.1044921875;-0.64288330078125;-0.22113037109375;1.1622100200869876;14.603860140835199;11.05804142910905;1.0234375;0.24169921875;0.04345703125;-19.9375;-2.125;21.5625;
1441975250471350;-0.72296142578125;0.1107177734375;-0.64459228515625;-0.2227783203125;1.1097264954679638;14.563101885180817;11.066413940613936;1.02099609375;0.20556640625;0.04150390625;-30.3125;-0.6875;22.75;
1441975250487351;-0.71978759765625;0.11602783203125;-0.6468505859375;-0.22393798828125;1.0568093221439538;14.504278211646715;11.098782568476292;0.9970703125;0.15771484375;0.0419921875;-31.125;3.3125;22.1875;
1441975250508352;-0.71624755859375;0.12060546875;-0.649658203125;-0.2247314453125;1.0027131469002002;14.420533653168233;11.16061116170931;0.9951171875;0.1572265625;0.02490234375;-26.3125;8.9375;21.625;
1441975250539354;-0.7125244140625;0.12469482421875;-0.65289306640625;-0.22479248046875;0.9451444956004785;14.321330366831903;11.24297057629615;1.02734375;0.19677734375;0.03759765625;-21.75;12.6875;23.1875;
1441975250545354;-0.708740234375;0.12750244140625;-0.656494140625;-0.22479248046875;0.8956788339985748;14.18835238970917;11.364711164620143;1.037109375;0.1806640625;0.0361328125;-16.8125;16.0625;24.5625;
1441975250568355;-0.7054443359375;0.1295166015625;-0.6595458984375;-0.22503662109375;0.859476911093196;14.055206218304047;11.488725699583346;1.03076171875;0.22509765625;0.04052734375;-11.9375;19.375;23.625;
1441975250591357;-0.701904296875;0.13177490234375;-0.662353515625;-0.2265625;0.8329291782533965;13.896586925777253;11.631719403721771;1.01416015625;0.228515625;0.02197265625;-9.875;18.875;19.0;
1441975250605358;-0.69842529296875;0.13519287109375;-0.664306640625;-0.2296142578125;0.8141420776324526;13.744010919182927;11.757306418474261;1.03857421875;0.26025390625;0.033203125;-16.625;19.0625;17.1875;
1441975250628359;-0.6943359375;0.1395263671875;-0.66644287109375;-0.23309326171875;0.7917400548857129;13.56429700806408;11.904321545420993;1.078125;0.2919921875;0.0078125;-27.6875;17.6875;17.0;
1441975250651360;-0.69085693359375;0.1439208984375;-0.6680908203125;-0.236083984375;0.7697789490349641;13.412637450998455;12.02509483386354;1.115234375;0.25244140625;0.02734375;-34.0;18.9375;16.8125;
1441975250667361;-0.68731689453125;0.14752197265625;-0.6695556640625;-0.239990234375;0.763491727942422;13.246698702813845;12.15940848237006;1.1337890625;0.2001953125;-0.01806640625;-32.3125;18.0625;14.3125;
1441975250688362;-0.683349609375;0.15167236328125;-0.6712646484375;-0.24407958984375;0.7556313685889595;13.058252190074523;12.313170040664962;1.1259765625;0.25390625;-0.0029296875;-33.0;18.875;11.625;
1441975250712364;-0.67926025390625;0.15570068359375;-0.6729736328125;-0.2481689453125;0.7514797906650778;12.863007228606772;12.474070078120342;1.11865234375;0.20947265625;0.01513671875;-36.1875;20.0625;10.8125;
1441975250725364;-0.6751708984375;0.1591796875;-0.67462158203125;-0.2525634765625;0.7572020370870014;12.668656585496072;12.63495357451029;1.12841796875;0.2265625;0.04150390625;-35.875;19.75;11.375;
1441975250748366;-0.67144775390625;0.16351318359375;-0.6756591796875;-0.2569580078125;0.7584453136245674;12.504242380644925;12.76229171784896;1.15869140625;0.2822265625;0.0576171875;-34.9375;20.375;12.25;
1441975250771367;-0.66778564453125;0.16876220703125;-0.6761474609375;-0.26171875;0.7567696620379618;12.354942180301855;12.868957408565048;1.1943359375;0.27197265625;0.02490234375;-39.0;18.1875;13.125;
1441975250785368;-0.66412353515625;0.17523193359375;-0.6759033203125;-0.267333984375;0.7528798273990583;12.221741290020194;12.950593082591435;1.2255859375;0.224609375;-0.02734375;-44.5;18.875;11.0625;
1441975250808369;-0.661376953125;0.18218994140625;-0.6732177734375;-0.276123046875;0.7676928292951651;12.193122387742951;12.911579922724183;1.248046875;0.14013671875;-0.013671875;-53.0;15.0;5.625;
1441975250831370;-0.65814208984375;0.18988037109375;-0.669921875;-0.28656005859375;0.7897529117927785;12.165888779957125;12.860576005244706;1.18701171875;0.31689453125;0.001953125;-68.875;3.8125;3.0625;
1441975250845371;-0.65606689453125;0.19525146484375;-0.66650390625;-0.2955322265625;0.8175957898107035;12.184956418964502;12.779139619135298;1.205078125;0.2275390625;0.04248046875;-78.4375;0.8125;-7.375;
1441975250877373;-0.65673828125;0.19879150390625;-0.6617431640625;-0.30230712890625;0.840455299555235;12.321114689667962;12.597918823973512;1.23046875;0.16552734375;0.03515625;-61.8125;-0.875;-17.25;
1441975250891374;-0.6593017578125;0.2030029296875;-0.6541748046875;-0.310302734375;0.8712120083642383;12.56950402659775;12.295943856686439;1.2724609375;0.17138671875;-0.06494140625;-44.625;-9.1875;-21.625;
1441975250907375;-0.65863037109375;0.21160888671875;-0.64825439453125;-0.3182373046875;0.8688718990329465;12.67444896046263;12.118655492885107;1.31884765625;0.2001953125;-0.2275390625;-53.125;-15.875;-29.75;
1441975250928376;-0.6573486328125;0.21258544921875;-0.64794921875;-0.32086181640625;0.8814757045060932;12.636629787467147;12.140491945924998;1.44140625;0.0966796875;-0.021484375;-70.875;-19.9375;-15.1875;
1441975250951377;-0.6566162109375;0.21624755859375;-0.65240478515625;-0.31060791015625;0.7659121959117565;12.531583211730764;12.276034252023061;1.62841796875;-0.08203125;0.251953125;-13.375;-7.8125;-27.9375;
1441975250966378;-0.668701171875;0.21478271484375;-0.6365966796875;-0.31854248046875;0.8809343842121872;13.248424574688832;11.529156314072498;0.9755859375;0.3134765625;-0.07373046875;27.4375;8.4375;74.0;
1441975250988379;-0.67523193359375;0.2098388671875;-0.62994384765625;-0.3212890625;0.9759412326602707;13.498556779210993;11.287106973073747;1.595703125;0.53955078125;-0.29736328125;-26.4375;-69.6875;-57.5625;
1441975251019381;-0.68896484375;0.19818115234375;-0.617431640625;-0.32391357421875;1.1741338711426528;13.892653269194584;10.928959809910543;1.40966796875;0.02587890625;0.05419921875;12.0625;-40.6875;-64.3125;
1441975251025382;-0.69952392578125;0.18609619140625;-0.60858154296875;-0.3251953125;1.349669726237569;14.09138669882935;10.77373874784618;1.3115234375;0.4501953125;-0.30908203125;38.4375;-54.5;-81.375;
1441975251048383;-0.71185302734375;0.167724609375;-0.59954833984375;-0.32525634765625;1.5724540498794892;14.244147052268442;10.695632487896452;1.478515625;0.25439453125;-0.11279296875;46.5;-45.75;-87.0;
1441975251073384;-0.72265625;0.14764404296875;-0.591796875;-0.32525634765625;1.7948863643063577;14.329723582399673;10.691557060837518;1.546875;0.5205078125;-0.26806640625;75.0625;-34.0625;-97.0;
1441975251085385;-0.7330322265625;0.13189697265625;-0.582763671875;-0.32513427734375;1.9934629240029162;14.435785369877621;10.648788192480948;1.34619140625;0.59228515625;-0.29443359375;80.8125;-28.8125;-103.875;
1441975251108386;-0.741455078125;0.1202392578125;-0.57513427734375;-0.32421875;2.1449944444471574;14.526965683219633;10.607654216434858;1.2353515625;0.54052734375;-0.2666015625;63.875;-35.125;-82.625;
1441975251140388;-0.7470703125;0.11016845703125;-0.57080078125;-0.32257080078125;2.250843588561359;14.575527010619744;10.606649659067994;1.24169921875;0.53857421875;-0.25732421875;51.1875;-33.375;-61.1875;
1441975251145388;-0.75079345703125;0.10125732421875;-0.56939697265625;-0.31939697265625;2.314337989534731;14.603603983648584;10.62904411667184;1.236328125;0.47998046875;-0.17138671875;48.125;-20.5625;-48.75;
1441975251179390;-0.75347900390625;0.09271240234375;-0.5699462890625;-0.314453125;2.3486991390850043;14.625659033392605;10.664235186957137;1.15087890625;0.39990234375;-0.16943359375;48.4375;-4.875;-36.3125;
1441975251190391;-0.755615234375;0.084228515625;-0.5726318359375;-0.3067626953125;2.3508552295381513;14.651340784196215;10.708393883536878;1.0390625;0.35595703125;-0.1845703125;53.3125;7.25;-25.1875;
1441975251214392;-0.757080078125;0.0750732421875;-0.57672119140625;-0.29779052734375;2.3382584231599797;14.669130494411426;10.769037500855282;1.0390625;0.34326171875;-0.20361328125;64.5625;17.375;-12.75;
1441975251228393;-0.75811767578125;0.06640625;-0.58099365234375;-0.28875732421875;2.319145523772609;14.684325569895927;10.830256132382626;1.05810546875;0.4033203125;-0.166015625;73.6875;23.8125;-4.875;
1441975251251395;-0.75750732421875;0.06060791015625;-0.58648681640625;-0.2803955078125;2.2712847921355035;14.682510972077086;10.893801116731696;0.9951171875;0.44580078125;-0.146484375;72.875;24.4375;2.75;
1441975251283396;-0.75567626953125;0.0572509765625;-0.5936279296875;-0.27099609375;2.1864884638434865;14.67471639503643;10.958000783912667;0.9453125;0.37744140625;-0.05859375;59.0625;25.6875;13.0;
1441975251288397;-0.754150390625;0.053955078125;-0.6004638671875;-0.260498046875;2.0976857915169096;14.679184001544542;11.013927951406112;0.90283203125;0.23681640625;-0.017578125;53.9375;31.0;22.8125;
1441975251311398;-0.7540283203125;0.05078125;-0.60546875;-0.2496337890625;2.021698664438925;14.715106245066226;11.038823852798725;0.86328125;0.2294921875;-0.0341796875;57.9375;30.0625;27.5;
1441975251325399;-0.75482177734375;0.0499267578125;-0.60888671875;-0.23895263671875;1.9442277163780062;14.78545592472748;11.018507403627865;0.837890625;0.337890625;-0.05322265625;61.4375;18.5625;34.875;
1441975251348400;-0.75531005859375;0.051025390625;-0.61199951171875;-0.22906494140625;1.8599749526241653;14.862755186338669;10.979569190452258;0.80712890625;0.29150390625;-0.04296875;53.25;4.5625;40.25;
1441975251372401;-0.75592041015625;0.05230712890625;-0.61480712890625;-0.2188720703125;1.7759491692715788;14.954025093413016;10.926908752903762;0.77783203125;0.23388671875;-4.8828125E-4;42.875;-0.4375;43.5625;
1441975251385402;-0.75665283203125;0.0538330078125;-0.6173095703125;-0.20880126953125;1.694750534959919;15.056970846628921;10.860868861008674;0.74658203125;0.21337890625;0.00244140625;43.5625;-2.5625;45.0;
1441975251416404;-0.75775146484375;0.05621337890625;-0.61865234375;-0.20001220703125;1.6264982749377268;15.175150551703942;10.7703257239096;0.7392578125;0.22216796875;-0.01318359375;42.125;-3.5;47.0;
1441975251431405;-0.759033203125;0.05950927734375;-0.6192626953125;-0.1923828125;1.5673848279656686;15.304610960928894;10.659702911239814;0.7509765625;0.244140625;-0.04638671875;33.0625;-8.625;46.6875;
1441975251454406;-0.76055908203125;0.06390380859375;-0.61907958984375;-0.1851806640625;1.5142652485759798;15.458127447296869;10.518460463664194;0.7421875;0.2421875;-0.0439453125;25.25;-13.625;46.625;
1441975251468407;-0.76220703125;0.0684814453125;-0.61865234375;-0.17791748046875;1.466627869928083;15.628166651891178;10.36010247782062;0.7373046875;0.19873046875;-0.05908203125;18.8125;-18.25;46.75;
1441975251490408;-0.763671875;0.0726318359375;-0.61859130859375;-0.17041015625;1.4211503906308594;15.802466344415453;10.200300918915753;0.74755859375;0.185546875;-0.072265625;18.5;-19.1875;47.5625;
1441975251514410;-0.76513671875;0.07586669921875;-0.6182861328125;-0.16314697265625;1.3875401289479072;15.973638025498596;10.046140575396057;0.7734375;0.171875;-0.0556640625;20.875;-18.4375;46.375;
1441975251528410;-0.7666015625;0.07855224609375;-0.61773681640625;-0.15692138671875;1.3663551082091399;16.129106510093738;9.905541457099087;0.77294921875;0.1806640625;-0.0537109375;23.375;-19.0;43.1875;
1441975251550412;-0.76788330078125;0.081298828125;-0.6170654296875;-0.1517333984375;1.3518561123768165;16.27077267015834;9.774111986098683;0.77587890625;0.20751953125;-0.05029296875;21.0;-19.4375;38.8125;
1441975251574413;-0.76953125;0.0845947265625;-0.61572265625;-0.1470947265625;1.3483026869742964;16.41953018645728;9.630962893613228;0.78515625;0.2431640625;-0.06640625;16.6875;-18.5625;38.5;
1441975251588414;-0.77117919921875;0.088623046875;-0.6141357421875;-0.14263916015625;1.3487256211841625;16.57707726456722;9.475175955333931;0.80712890625;0.2392578125;-0.09716796875;12.125;-21.4375;38.5625;
1441975251610415;-0.7728271484375;0.0924072265625;-0.612548828125;-0.13800048828125;1.3533365614797932;16.733911626749375;9.321821098404357;0.85546875;0.22021484375;-0.09228515625;8.625;-24.4375;39.5625;
1441975251634416;-0.77410888671875;0.09600830078125;-0.6112060546875;-0.1343994140625;1.3592556546761905;16.86480297542358;9.190888895842058;0.89111328125;0.19140625;-0.095703125;9.5;-24.9375;37.6875;
1441975251648417;-0.77496337890625;0.1002197265625;-0.60992431640625;-0.13226318359375;1.3654102337826994;16.974143779468367;9.072909765587413;0.8662109375;0.18603515625;-0.08740234375;5.875;-22.5;34.0625;
1441975251670418;-0.77587890625;0.10528564453125;-0.6080322265625;-0.1314697265625;1.3797752657357103;17.071265739212805;8.95793334362723;0.8310546875;0.18994140625;-0.07080078125;-2.5;-21.125;32.6875;
1441975251694420;-0.7769775390625;0.1116943359375;-0.60528564453125;-0.1324462890625;1.4047763522960746;17.1545871937508;8.843763324976251;0.8251953125;0.18017578125;-0.09912109375;-12.4375;-22.125;31.375;
1441975251708421;-0.77789306640625;0.11895751953125;-0.60223388671875;-0.134521484375;1.4326085778655944;17.226473606913807;8.732810288276326;0.81494140625;0.17529296875;-0.11962890625;-25.1875;-25.375;30.4375;
1441975251730422;-0.7789306640625;0.1263427734375;-0.5987548828125;-0.13726806640625;1.466585521185026;17.284889128743966;8.631887855296883;0.818359375;0.15966796875;-0.1181640625;-33.625;-26.625;29.1875;
1441975251754423;-0.780029296875;0.13360595703125;-0.5950927734375;-0.14019775390625;1.5037104836853978;17.33488099017265;8.53901715069142;0.80712890625;0.1376953125;-0.142578125;-37.5;-27.1875;25.75;
1441975251768424;-0.78143310546875;0.14056396484375;-0.5909423828125;-0.14306640625;1.5482976761147005;17.378518851015087;8.45378292790663;0.78271484375;0.10400390625;-0.15771484375;-38.5625;-26.9375;22.6875;
1441975251790425;-0.7830810546875;0.14715576171875;-0.5865478515625;-0.14556884765625;1.5976218209520545;17.419928119623478;8.373665452119935;0.7841796875;0.08349609375;-0.1611328125;-37.875;-30.0625;19.375;
1441975251814427;-0.7845458984375;0.1536865234375;-0.58221435546875;-0.14813232421875;1.6456904780437744;17.455988621385227;8.298745578617893;0.77001953125;0.0810546875;-0.18701171875;-35.0;-30.6875;18.5625;
1441975251828428;-0.785888671875;0.15985107421875;-0.5780029296875;-0.15093994140625;1.6921191608856438;17.48088338856148;8.235432246345935;0.7734375;0.08349609375;-0.1982421875;-35.0625;-29.4375;18.5;
1441975251861429;-0.786865234375;0.16595458984375;-0.57403564453125;-0.1544189453125;1.7336105133314763;17.492775305779645;8.18252819769165;0.7802734375;0.08740234375;-0.22021484375;-34.6875;-27.0;16.75;
1441975251890431;-0.78759765625;0.17193603515625;-0.57037353515625;-0.15789794921875;1.7707295106900107;17.502277001530107;8.132517809368053;0.80224609375;0.10400390625;-0.22412109375;-37.25;-24.6875;15.5;
1441975251892431;-0.7877197265625;0.1776123046875;-0.567626953125;-0.1605224609375;1.7960764713294088;17.521585061215337;8.077583612263343;0.82177734375;0.10205078125;-0.2470703125;-37.125;-21.625;15.5;
1441975251920433;-0.78790283203125;0.1827392578125;-0.56536865234375;-0.162109375;1.8184185547110032;17.550012167644624;8.02036926755724;0.85107421875;0.08935546875;-0.25244140625;-32.3125;-16.75;17.3125;
1441975251934434;-0.7880859375;0.1871337890625;-0.5633544921875;-0.16326904296875;1.8389732456411287;17.576301505249514;7.970136243652975;0.861328125;0.07470703125;-0.2900390625;-25.1875;-13.3125;17.9375;
1441975251951435;-0.7879638671875;0.19073486328125;-0.56182861328125;-0.16461181640625;1.852570135662087;17.592026440661108;7.933068923604319;0.90087890625;0.1171875;-0.30712890625;-19.9375;-11.6875;18.8125;
1441975251981436;-0.7877197265625;0.1944580078125;-0.56024169921875;-0.1669921875;1.8647576350834678;17.59370438337728;7.90524464794945;0.931640625;0.126953125;-0.3232421875;-17.5625;-7.4375;16.125;
1441975251994437;-0.78692626953125;0.19903564453125;-0.55859375;-0.17071533203125;1.8726073890312063;17.585233271964402;7.878198789948639;0.8759765625;0.1103515625;-0.3349609375;-23.5;-4.4375;12.3125;
1441975252009438;-0.78564453125;0.203857421875;-0.5574951171875;-0.17462158203125;1.8720089808929048;17.578257229594428;7.8480292803496585;0.8212890625;0.07958984375;-0.322265625;-33.0;-2.125;10.625;
1441975252030439;-0.78448486328125;0.20904541015625;-0.5562744140625;-0.177490234375;1.8750473655227982;17.58952171646343;7.802271867760687;0.7890625;0.09375;-0.3115234375;-34.6875;1.8125;13.3125;
1441975252062441;-0.78363037109375;0.21380615234375;-0.55499267578125;-0.17962646484375;1.8815790353780497;17.60619172556101;7.755957513708354;0.79833984375;0.09033203125;-0.36279296875;-31.4375;3.0;17.625;
1441975252069441;-0.78302001953125;0.21728515625;-0.5540771484375;-0.18096923828125;1.886716065079566;17.621362344839728;7.720021357684825;0.828125;0.07568359375;-0.38037109375;-26.4375;1.375;16.75;
1441975252090442;-0.78271484375;0.2198486328125;-0.552978515625;-0.18255615234375;1.8944189850382047;17.62271251427624;7.700687894170094;0.8486328125;0.0634765625;-0.36181640625;-18.75;0.5625;12.6875;
1441975252114444;-0.78228759765625;0.22296142578125;-0.551513671875;-0.18505859375;1.9036282083712623;17.615892144086228;7.683180590996226;0.8486328125;0.0771484375;-0.3779296875;-16.4375;1.375;8.3125;
1441975252136445;-0.78155517578125;0.2266845703125;-0.550048828125;-0.18804931640625;1.910518016546765;17.608757064059215;7.6613001034285055;0.83154296875;0.08544921875;-0.3720703125;-22.5;0.5625;8.125;
1441975252159446;-0.78106689453125;0.2305908203125;-0.54815673828125;-0.19073486328125;1.9235997326626832;17.606168637041325;7.635119511218139;0.86181640625;0.068359375;-0.38037109375;-27.4375;0.9375;8.625;
1441975252173447;-0.78076171875;0.2335205078125;-0.54644775390625;-0.19317626953125;1.9356990077968725;17.597342785165903;7.620401577991487;0.90283203125;0.046875;-0.43017578125;-27.5625;0.25;7.625;
1441975252189448;-0.78076171875;0.235595703125;-0.54486083984375;-0.19512939453125;1.948725558115722;17.586679269596235;7.613304238029446;0.94091796875;0.05126953125;-0.43212890625;-22.8125;0.375;4.375;
1441975252210449;-0.78082275390625;0.2376708984375;-0.5430908203125;-0.1973876953125;1.963275788850894;17.571298830236053;7.609568413073547;0.947265625;0.052734375;-0.4462890625;-17.75;0.625;1.625;
1441975252234451;-0.78070068359375;0.240234375;-0.541259765625;-0.19970703125;1.9774980424841804;17.559978256108877;7.59930493478007;0.94140625;0.0732421875;-0.4501953125;-19.0625;0.625;1.75;
1441975252251452;-0.7803955078125;0.24261474609375;-0.53985595703125;-0.20184326171875;1.9867300567691795;17.550729091037944;7.588708404697621;0.93359375;0.046875;-0.44677734375;-21.4375;0.0;1.9375;
1441975252280453;-0.7802734375;0.244140625;-0.5386962890625;-0.20355224609375;1.9949018849061824;17.539443307441072;7.585700891683478;0.93701171875;0.01904296875;-0.43603515625;-20.375;1.5;0.8125;
1441975252302455;-0.78057861328125;0.2447509765625;-0.5374755859375;-0.20489501953125;2.006290573056698;17.52369365765629;7.592630745503918;0.9345703125;0.0126953125;-0.4326171875;-15.5;2.3125;-2.6875;
1441975252308455;-0.7811279296875;0.24517822265625;-0.5360107421875;-0.20611572265625;2.0216150431781514;17.507077882664323;7.601611699339426;0.93408203125;0.0166015625;-0.453125;-10.6875;2.3125;-5.625;
1441975252332456;-0.7818603515625;0.2454833984375;-0.53448486328125;-0.2069091796875;2.039363097922829;17.494825237990153;7.608527498169552;0.94091796875;0.01123046875;-0.45361328125;-9.9375;0.625;-7.5625;
1441975252362458;-0.782958984375;0.2452392578125;-0.532958984375;-0.20709228515625;2.0601361445163335;17.485295453007627;7.617723183031864;0.94482421875;0.0029296875;-0.46240234375;-7.625;-0.75;-8.0;
1441975252368458;-0.78411865234375;0.24420166015625;-0.53179931640625;-0.20684814453125;2.078083117859678;17.475052651869454;7.6329585142187995;0.9365234375;-0.01318359375;-0.46728515625;-3.1875;-1.5625;-10.0;
1441975252392460;-0.78558349609375;0.24237060546875;-0.53076171875;-0.20623779296875;2.096987969474049;17.46257515851375;7.655521821930824;0.90673828125;-0.009765625;-0.45068359375;1.6875;-0.8125;-11.6875;
1441975252423462;-0.7872314453125;0.2401123046875;-0.529541015625;-0.20562744140625;2.118600760737478;17.446037953102;7.683818156999957;0.89013671875;0.00732421875;-0.45361328125;6.5625;-0.0625;-13.125;
1441975252428462;-0.7889404296875;0.23748779296875;-0.5283203125;-0.20526123046875;2.140181513144055;17.423542404261653;7.718638798409314;0.8671875;0.02880859375;-0.45068359375;8.375;-0.5;-14.5625;
1441975252450463;-0.79083251953125;0.2347412109375;-0.5269775390625;-0.20465087890625;2.16456867245826;17.403312281058344;7.752715186068281;0.85595703125;0.052734375;-0.43603515625;9.0625;-1.4375;-15.3125;
1441975252473464;-0.79266357421875;0.23175048828125;-0.52569580078125;-0.20416259765625;2.187919944034899;17.38017558001892;7.790187153818384;0.8466796875;0.05908203125;-0.44091796875;10.5625;-1.8125;-15.6875;
1441975252488465;-0.79443359375;0.22857666015625;-0.524658203125;-0.20355224609375;2.208908507236152;17.35805120208619;7.8280910476690195;0.8427734375;0.06689453125;-0.4365234375;11.0625;-1.8125;-16.25;
1441975252510467;-0.796142578125;0.22528076171875;-0.52362060546875;-0.2032470703125;2.22935475859005;17.331686405181518;7.869449381013094;0.87060546875;0.07421875;-0.427734375;12.4375;-1.75;-16.375;
1441975252533468;-0.79791259765625;0.2218017578125;-0.522216796875;-0.20367431640625;2.253174633516733;17.294890371043877;7.918702921334562;0.884765625;0.08740234375;-0.4384765625;11.375;-0.75;-17.5;
1441975252551469;-0.7999267578125;0.21795654296875;-0.52044677734375;-0.20452880859375;2.282155936197296;17.250367931711935;7.975299447809816;0.89599609375;0.10009765625;-0.44873046875;8.4375;-1.5625;-20.3125;
1441975252570470;-0.80194091796875;0.21392822265625;-0.5185546875;-0.2056884765625;2.31278214200484;17.201832915009838;8.035286466675775;0.89501953125;0.09619140625;-0.43408203125;7.3125;-3.6875;-24.75;
1441975252602472;-0.80419921875;0.20947265625;-0.516357421875;-0.2069091796875;2.348782266470713;17.150489179828185;8.099463753165624;0.9072265625;0.10302734375;-0.419921875;6.125;-5.5625;-27.125;
1441975252616473;-0.80670166015625;0.20477294921875;-0.5137939453125;-0.20831298828125;2.3907737397961673;17.09682514274498;8.166068598130432;0.90771484375;0.1240234375;-0.412109375;7.625;-7.8125;-28.8125;
1441975252632473;-0.809326171875;0.20037841796875;-0.51068115234375;-0.21026611328125;2.4393803354660415;17.0411590954906;8.230787686895638;0.9150390625;0.15869140625;-0.40673828125;7.875;-10.625;-29.5625;
1441975252662475;-0.81201171875;0.1961669921875;-0.5069580078125;-0.21270751953125;2.494982283536692;16.983658547612915;8.294022022292967;0.91455078125;0.1826171875;-0.40771484375;4.625;-13.75;-30.0;
1441975252668476;-0.814697265625;0.19207763671875;-0.5030517578125;-0.21539306640625;2.553244556560237;16.92694687557801;8.354802136402103;0.9052734375;0.18310546875;-0.39697265625;0.9375;-17.0625;-31.75;
1441975252692477;-0.8173828125;0.18756103515625;-0.499267578125;-0.21795654296875;2.6118477756835885;16.871181241089882;8.416978221209403;0.8896484375;0.171875;-0.3798828125;-1.0;-19.0625;-33.625;
1441975252722479;-0.82012939453125;0.1827392578125;-0.49554443359375;-0.22027587890625;2.67160630996717;16.818627119498732;8.478293716808075;0.91064453125;0.18896484375;-0.37890625;0.875;-19.0;-34.875;
1441975252728479;-0.82293701171875;0.17779541015625;-0.49163818359375;-0.22265625;2.7346831545469548;16.76732626031081;8.538472311877022;0.9296875;0.20849609375;-0.400390625;3.4375;-18.6875;-35.75;
1441975252760481;-0.82550048828125;0.17291259765625;-0.4879150390625;-0.2249755859375;2.7953487463843967;16.718953919823818;8.595671772208581;0.91943359375;0.21484375;-0.412109375;3.0;-19.0625;-36.5;
1441975252774482;-0.82794189453125;0.16802978515625;-0.484619140625;-0.22705078125;2.8518652404466756;16.674689147344548;8.650132605022302;0.8994140625;0.20703125;-0.3974609375;2.6875;-18.125;-36.875;
1441975252789482;-0.830322265625;0.1627197265625;-0.4815673828125;-0.22845458984375;2.9067211053325;16.636126829246045;8.703540160572098;0.86181640625;0.18798828125;-0.3740234375;3.875;-16.9375;-37.0625;
1441975252818484;-0.832763671875;0.15716552734375;-0.47857666015625;-0.22998046875;2.9626588162909355;16.596733137565565;8.758452773012444;0.8349609375;0.1767578125;-0.37109375;7.5625;-15.4375;-37.5;
1441975252833485;-0.83489990234375;0.151611328125;-0.4759521484375;-0.2313232421875;3.0138529554142655;16.559748223112138;8.811803718585843;0.81396484375;0.212890625;-0.37060546875;8.75;-14.5625;-37.0625;
1441975252848486;-0.83673095703125;0.1463623046875;-0.47381591796875;-0.2325439453125;3.058424932473991;16.525785040936594;8.861647257921941;0.8095703125;0.22314453125;-0.365234375;10.375;-12.75;-35.8125;
1441975252870487;-0.8382568359375;0.14129638671875;-0.47210693359375;-0.23358154296875;3.097079190249041;16.494428032756467;8.909058690286251;0.82958984375;0.22900390625;-0.35693359375;9.6875;-11.5625;-33.6875;
1441975252893488;-0.83935546875;0.1365966796875;-0.47100830078125;-0.2347412109375;3.127265411432786;16.462922452456173;8.954882290081793;0.853515625;0.2294921875;-0.35009765625;10.125;-10.125;-32.3125;
1441975252909489;-0.83990478515625;0.132568359375;-0.470458984375;-0.23602294921875;3.1480851812185153;16.432281231494695;8.996646316653036;0.87255859375;0.24072265625;-0.3310546875;9.0;-8.75;-29.9375;
1441975252939491;-0.840087890625;0.12945556640625;-0.47027587890625;-0.23748779296875;3.161628720260942;16.403576992044695;9.032030080771733;0.89453125;0.2412109375;-0.3203125;6.4375;-6.5625;-26.75;
1441975252953492;-0.8399658203125;0.1270751953125;-0.4703369140625;-0.23907470703125;3.169683238205718;16.376523469684432;9.062232053367804;0.9130859375;0.22265625;-0.30224609375;2.375;-6.5;-23.8125;
1441975252971493;-0.8394775390625;0.12530517578125;-0.47076416015625;-0.24090576171875;3.171225956529893;16.348845729509645;9.089593047861694;0.94384765625;0.220703125;-0.30908203125;-0.625;-5.8125;-20.9375;
1441975252990494;-0.83868408203125;0.124267578125;-0.47149658203125;-0.24267578125;3.166216733606602;16.324043019031723;9.111356127936554;0.8974609375;0.1875;-0.28857421875;-4.5;-3.8125;-19.375;
1441975253013495;-0.837646484375;0.123779296875;-0.47283935546875;-0.24407958984375;3.151952959043708;16.303482277273847;9.128552291467901;0.87744140625;0.162109375;-0.28173828125;-6.8125;-1.5625;-16.25;
1441975253028496;-0.836181640625;0.12408447265625;-0.4749755859375;-0.24481201171875;3.124312566876406;16.290227380394903;9.138368179326529;0.8837890625;0.1650390625;-0.28857421875;-7.0625;1.25;-11.75;
1441975253050497;-0.83447265625;0.125;-0.47772216796875;-0.2447509765625;3.0862403733064405;16.285388048045643;9.140931571140666;0.896484375;0.15673828125;-0.283203125;-6.0;4.1875;-5.4375;
1441975253073499;-0.8323974609375;0.12646484375;-0.4810791015625;-0.244384765625;3.038163969011351;16.283954140167598;9.13938562592232;0.89111328125;0.15625;-0.2890625;-3.8125;7.25;0.625;
1441975253088500;-0.82977294921875;0.12872314453125;-0.4853515625;-0.2437744140625;2.9755831241371515;16.285709738665616;9.132859076474563;0.90283203125;0.17333984375;-0.29736328125;-3.75;11.0625;6.75;
1441975253112501;-0.82659912109375;0.132080078125;-0.49017333984375;-0.24310302734375;2.901394700356583;16.29165443573042;9.11798092553135;0.90234375;0.17529296875;-0.28955078125;-4.625;15.375;13.375;
1441975253133502;-0.82257080078125;0.13653564453125;-0.49603271484375;-0.24237060546875;2.8093716404799367;16.30048169638916;9.096295631681715;0.9013671875;0.17236328125;-0.28271484375;-7.375;18.75;20.375;
1441975253148503;-0.81787109375;0.14178466796875;-0.50274658203125;-0.241455078125;2.7029825932475307;16.31329112811858;9.0684500258302;0.912109375;0.169921875;-0.2607421875;-10.3125;23.25;27.875;
1441975253170504;-0.81256103515625;0.147705078125;-0.5103759765625;-0.2398681640625;2.5815710469530013;16.335508931048352;9.031621287441515;0.91796875;0.162109375;-0.25830078125;-12.0625;28.625;34.3125;
1441975253202506;-0.806640625;0.15411376953125;-0.5189208984375;-0.2374267578125;2.44555616404623;16.369750267519372;8.984656330268644;0.931640625;0.1689453125;-0.26171875;-11.0625;34.4375;42.125;
1441975253216507;-0.80035400390625;0.160888671875;-0.528076171875;-0.23406982421875;2.2998126020931053;16.41990353638303;8.924310882204335;0.97998046875;0.17724609375;-0.27197265625;-8.1875;39.25;49.75;
1441975253230508;-0.79339599609375;0.16815185546875;-0.53790283203125;-0.23028564453125;2.1428978775568357;16.48349223885718;8.850343535435046;1.02001953125;0.18505859375;-0.298828125;-5.0;44.125;56.5625;
1441975253253509;-0.78570556640625;0.17578125;-0.54827880859375;-0.226318359375;1.9766581072392857;16.56047361085882;8.762101137879053;1.0498046875;0.1767578125;-0.2900390625;-4.9375;48.6875;62.3125;
1441975253270510;-0.7774658203125;0.1837158203125;-0.55889892578125;-0.22259521484375;1.8061758127213423;16.650103363359047;8.658749075485028;1.07958984375;0.18017578125;-0.2802734375;-4.6875;53.0625;67.6875;
1441975253290511;-0.7684326171875;0.19256591796875;-0.56951904296875;-0.219482421875;1.6318889032890063;16.758822246762065;8.529453990889156;1.07373046875;0.19140625;-0.26611328125;-7.3125;56.5625;71.5;
1441975253317513;-0.7586669921875;0.20257568359375;-0.58013916015625;-0.21673583984375;1.4549250219049656;16.903727603412094;8.357226771847637;1.08837890625;0.20849609375;-0.25439453125;-12.75;59.375;77.625;
1441975253329513;-0.74847412109375;0.21319580078125;-0.59051513671875;-0.2137451171875;1.2825622501809109;17.10578524049055;8.12571027669194;1.10400390625;0.1748046875;-0.228515625;-19.875;60.375;81.5625;
1441975253360515;-0.73797607421875;0.22412109375;-0.60064697265625;-0.210693359375;1.1198407012750338;17.379477813801735;7.821027586103042;1.11181640625;0.1376953125;-0.22802734375;-21.8125;61.375;85.125;
1441975253381516;-0.7271728515625;0.2352294921875;-0.61041259765625;-0.2081298828125;0.9723881568116067;17.7364179544235;7.429739910497121;1.083984375;0.08544921875;-0.2099609375;-23.875;62.0625;84.9375;
1441975253389517;-0.71612548828125;0.247802734375;-0.619140625;-0.20611572265625;0.8561435515312517;0.2242112461788913;6.898262454371229;1.07958984375;0.1171875;-0.15771484375;-26.625;59.75;88.625;
1441975253419519;-0.7041015625;0.26220703125;-0.62750244140625;-0.20452880859375;0.7775093225347616;0.8831707755331718;6.185239755086007;1.0810546875;0.11279296875;-0.18212890625;-35.6875;58.8125;93.625;
1441975253434519;-0.69061279296875;0.2777099609375;-0.6365966796875;-0.2017822265625;0.7555662496020081;1.7353847238427187;5.27824568237738;1.04833984375;0.07080078125;-0.18603515625;-45.6875;61.1875;99.75;
1441975253449520;-0.67694091796875;0.29266357421875;-0.64556884765625;-0.1986083984375;0.8040087278618495;2.558770216090446;4.403380453235465;1.01904296875;0.0205078125;-0.1767578125;-46.5;64.0625;104.5625;
1441975253470521;-0.66314697265625;0.3072509765625;-0.65423583984375;-0.194580078125;0.9167592961936993;3.231227011158959;3.6834375728677626;1.00537109375;0.009765625;-0.17041015625;-43.1875;64.4375;105.125;
1441975253493523;-0.648681640625;0.32257080078125;-0.66253662109375;-0.1905517578125;1.0771341348461332;3.7309524907466947;3.131844499529908;1.04296875;0.01220703125;-0.19482421875;-39.125;63.5625;107.3125;
1441975253509524;-0.6329345703125;0.33929443359375;-0.670654296875;-0.1859130859375;1.282487565790792;4.0935948061354175;2.711986536178517;1.06591796875;0.04150390625;-0.18017578125;-43.3125;63.6875;112.0625;
1441975253530525;-0.61651611328125;0.356689453125;-0.67822265625;-0.180908203125;1.5139149040792388;4.3397069467988745;2.4053870724956794;1.06787109375;0.041015625;-0.171875;-47.625;65.375;122.5;
1441975253553526;-0.5997314453125;0.37347412109375;-0.68560791015625;-0.17559814453125;1.7546455152610945;4.5164592498117955;2.170416539443899;1.0361328125;0.02392578125;-0.19873046875;-50.4375;65.4375;127.1875;
1441975253569527;-0.5830078125;0.38861083984375;-0.6932373046875;-0.16912841796875;2.000163013836872;4.653042287918165;1.986349000550374;0.9853515625;0.0244140625;-0.20654296875;-48.0;66.375;127.5625;
1441975253593528;-0.566650390625;0.40289306640625;-0.7001953125;-0.162353515625;2.2435449669525434;4.749643955718854;1.8457885041472137;0.93310546875;-0.03173828125;-0.2021484375;-36.6875;66.625;125.875;
1441975253613530;-0.55023193359375;0.4180908203125;-0.70599365234375;-0.1551513671875;2.4959514718017455;4.805685250642546;1.7414934891073555;0.9267578125;0.01611328125;-0.169921875;-33.25;62.3125;124.125;
1441975253637531;-0.532958984375;0.43499755859375;-0.71038818359375;-0.14892578125;2.7539415986266604;4.832586403407856;1.6517592241731327;0.9716796875;0.08154296875;-0.15771484375;-38.375;57.4375;129.625;
1441975253653532;-0.515625;0.45050048828125;-0.71484375;-0.142333984375;3.007660579146257;4.85783377388327;1.569709807355789;0.978515625;-0.0341796875;-0.15966796875;-52.3125;57.1875;131.125;
1441975253673533;-0.49920654296875;0.46319580078125;-0.7198486328125;-0.134765625;3.249198999956011;4.888250814301955;1.4988978087196956;0.92822265625;-0.1181640625;-0.10986328125;-45.625;57.1875;127.3125;
1441975253690534;-0.483642578125;0.47515869140625;-0.72393798828125;-0.127685546875;3.4761346236958177;4.906835276890547;1.4402516715172906;0.85986328125;-0.06005859375;-0.1240234375;-28.9375;54.875;121.875;
1441975253718536;-0.4688720703125;0.48602294921875;-0.7275390625;-0.12109375;3.687703121332641;4.921206042515378;1.388250527647382;0.828125;-0.0517578125;-0.0888671875;-29.4375;50.375;115.4375;
1441975253733536;-0.4573974609375;0.49365234375;-0.7303466796875;-0.1171875;3.8391784471375616;4.936360902591912;1.342027941677341;0.78271484375;-0.126953125;-0.04052734375;-27.3125;47.0625;106.5;
1441975253751538;-0.44744873046875;0.5;-0.732666015625;-0.11383056640625;3.968948931302325;4.948394831625242;1.3035089199214767;0.734375;-0.10302734375;-0.00390625;-20.5;44.25;96.375;
1441975253773539;-0.439208984375;0.5069580078125;-0.73333740234375;-0.11114501953125;4.0814277790470115;4.941012379273825;1.2794103350945059;0.66943359375;-0.0498046875;-0.02685546875;-16.125;40.125;87.3125;
1441975253801540;-0.43212890625;0.51409912109375;-0.73284912109375;-0.10906982421875;4.179639387658016;4.9224715463321385;1.2632109201295967;0.60546875;-0.0498046875;-0.04443359375;-23.375;30.9375;77.75;
1441975253809541;-0.4261474609375;0.52032470703125;-0.73223876953125;-0.10723876953125;4.263600274244064;4.904552449286197;1.2507559648438018;0.58935546875;-0.14990234375;-0.02294921875;-28.9375;23.125;65.9375;
1441975253830542;-0.42108154296875;0.5257568359375;-0.73162841796875;-0.1048583984375;4.341401307543458;4.886939089717602;1.2448778803283758;0.5478515625;-0.16943359375;0.02734375;-26.9375;16.625;57.4375;
1441975253853543;-0.4158935546875;0.52789306640625;-0.733642578125;-0.10113525390625;4.419748942476158;4.899126321567814;1.2321175673562197;0.52001953125;-0.2490234375;0.00732421875;-20.875;12.5;50.125;
1441975253869544;-0.41192626953125;0.5247802734375;-0.73870849609375;-0.09649658203125;4.478058192880091;4.9488638164393866;1.2144856932360266;0.49755859375;-0.27685546875;0.01318359375;4.125;16.6875;47.625;
1441975253898546;-0.4100341796875;0.51934814453125;-0.74407958984375;-0.09271240234375;4.505520687164195;5.0060877429787105;1.200079725995433;0.4716796875;-0.1630859375;-0.01806640625;39.4375;20.9375;41.75;
1441975253923547;-0.40997314453125;0.513671875;-0.748291015625;-0.09033203125;4.506250261943429;5.054487041686166;1.191428853056454;0.44287109375;-0.09130859375;-0.0302734375;49.125;17.4375;28.625;
1441975253935548;-0.41168212890625;0.50732421875;-0.75177001953125;-0.08966064453125;4.477208407888386;5.09957994434096;1.1841156486373021;0.486328125;-0.21533203125;-0.005859375;44.75;10.75;12.375;
1441975253950549;-0.4154052734375;0.500244140625;-0.75445556640625;-0.0899658203125;4.421354988332223;5.139924132826926;1.182922205711634;0.544921875;-0.3486328125;0.04931640625;41.0625;5.3125;-6.25;
1441975253973550;-0.423095703125;0.49200439453125;-0.75531005859375;-0.09234619140625;4.311915646086;5.167946191690328;1.1944538036629557;0.486328125;-0.37158203125;0.03466796875;41.75;-2.0;-23.125;
1441975253997552;-0.43499755859375;0.48284912109375;-0.7537841796875;-0.09771728515625;4.140313336122479;5.1793084198494235;1.2177378847458127;0.48876953125;-0.19775390625;0.0263671875;37.1875;-16.1875;-38.9375;
1441975254018553;-0.451171875;0.4700927734375;-0.7510986328125;-0.10626220703125;3.8952472591756617;5.194410626572448;1.2443357695686308;0.56591796875;-0.20068359375;0.0478515625;28.625;-31.6875;-64.9375;
1441975254033554;-0.4705810546875;0.45550537109375;-0.7467041015625;-0.11663818359375;3.600703670665487;5.200014964806305;1.2825572857587604;0.68212890625;-0.18359375;0.0703125;34.3125;-42.5;-95.875;
1441975254055555;-0.49444580078125;0.4388427734375;-0.73907470703125;-0.1295166015625;3.2383283657945445;5.180003114078126;1.3461514618229524;0.8671875;-0.1552734375;0.04736328125;35.75;-56.8125;-130.9375;
1441975254070556;-0.52081298828125;0.421142578125;-0.7283935546875;-0.144775390625;2.8291661883946624;5.126939930480703;1.435903139939422;1.02734375;-0.10791015625;-0.00830078125;32.8125;-75.625;-159.9375;
1441975254093557;-0.54840087890625;0.40277099609375;-0.71478271484375;-0.161865234375;2.3895102058993833;5.027327845873981;1.564233666486065;1.1591796875;-0.08984375;-0.01953125;24.5625;-88.0625;-181.0625;
1441975254115558;-0.57708740234375;0.38458251953125;-0.69696044921875;-0.18255615234375;1.9123157249135085;4.834341236534838;1.7660490218556573;1.22998046875;0.09228515625;-0.07568359375;16.0625;-96.6875;-194.375;
1441975254130559;-0.60687255859375;0.3643798828125;-0.6756591796875;-0.20611572265625;1.4017255866784994;4.475542233304339;2.1264128823006065;1.3671875;0.181640625;-0.0791015625;-4.75;-106.75;-213.8125;
1441975254153560;-0.63653564453125;0.34088134765625;-0.65283203125;-0.22918701171875;0.915555076517903;3.7224654544192552;2.892367746524104;1.60986328125;0.3408203125;-0.10693359375;-12.875;-114.875;-236.875;
1441975254175562;-0.66717529296875;0.3116455078125;-0.62890625;-0.24945068359375;0.5919789036131642;1.7493505601433665;4.909787058767838;1.904296875;0.1259765625;-0.1396484375;-1.625;-117.3125;-252.9375;
1441975254192563;-0.70062255859375;0.2740478515625;-0.601806640625;-0.2681884765625;0.8027247123589029;17.039507654087902;7.700164730224142;2.05126953125;-0.177734375;-0.15087890625;28.875;-124.5625;-275.0625;
1441975254213564;-0.73388671875;0.2347412109375;-0.5672607421875;-0.29095458984375;1.4285098985733902;15.967879942571344;8.832127239041949;2.04638671875;0.021484375;-0.2021484375;63.3125;-138.4375;-311.8125;
1441975254235565;-0.76373291015625;0.20135498046875;-0.523681640625;-0.31927490234375;2.180228030941736;15.591002350446672;9.207158994648594;2.07470703125;0.61865234375;-0.20458984375;42.1875;-160.9375;-337.375;
1441975254253566;-0.78704833984375;0.172607421875;-0.47589111328125;-0.3526611328125;2.945149428053049;15.368046595267112;9.373664248740408;2.2265625;0.9794921875;-0.21484375;-19.625;-186.875;-346.0625;
1441975254273567;-0.8026123046875;0.1494140625;-0.430419921875;-0.3851318359375;3.629991526609129;15.210761892217903;9.445461535368581;2.34326171875;1.1708984375;-0.16455078125;-72.4375;-188.375;-341.3125;
1441975254295569;-0.8128662109375;0.1285400390625;-0.39508056640625;-0.4083251953125;4.165169897148878;15.111392420114505;9.492358682427675;2.3310546875;0.7734375;-0.376953125;-96.9375;-169.1875;-300.875;
1441975254312570;-0.82159423828125;0.1097412109375;-0.358642578125;-0.42950439453125;4.688401037957298;15.040573951609957;9.50387842516941;2.197265625;0.37060546875;-0.5234375;-65.5;-128.75;-257.0625;
1441975254333571;-0.824462890625;0.0888671875;-0.33270263671875;-0.44915771484375;5.106866010244434;14.94176730999797;9.564622258621885;2.38134765625;0.109375;-0.7373046875;-62.75;-130.0;-227.25;
1441975254355572;-0.83245849609375;0.057861328125;-0.31756591796875;-0.45050048828125;5.44948415380413;14.941228107158702;9.674016361862224;2.51318359375;-0.50537109375;-0.42626953125;-58.875;-64.4375;-204.3125;
1441975254372573;-0.851318359375;0.0126953125;-0.308837890625;-0.42401123046875;5.754976804019334;15.11013735123671;9.827126245688184;2.1611328125;-0.921875;-0.21728515625;65.6875;-6.125;-192.4375;
1441975254396574;-0.87615966796875;-0.03594970703125;-0.3033447265625;-0.37298583984375;5.968878151395149;15.426490008506066;9.978813768894593;1.7333984375;-0.8232421875;-0.19970703125;254.625;31.6875;-196.25;
1441975254415575;-0.89849853515625;-0.08599853515625;-0.29766845703125;-0.31109619140625;6.1225612631521305;15.794072612106877;10.14018487740478;1.4453125;-0.01416015625;-0.263671875;392.375;33.75;-180.4375;
1441975254432576;-0.916015625;-0.13262939453125;-0.29010009765625;-0.243408203125;6.216878106050841;16.187781721615764;10.287442777112945;1.35595703125;0.51953125;-0.43115234375;448.625;42.0;-162.625;
