1441975801763882;-0.1280517578125;0.677490234375;0.6961669921875;0.19976806640625;11.667934262529329;13.342280601019029;17.663732284362077;-1.71435546875;0.24609375;-0.09130859375;-211.9375;107.5;140.375;
1441975801786883;-0.1239013671875;0.6480712890625;0.730712890625;0.17498779296875;11.407414474191471;13.09316065169931;17.700914955882407;-2.0087890625;-0.81640625;-0.44677734375;-250.625;63.0;120.5;
1441975801815885;-0.1123046875;0.63092041015625;0.75250244140625;0.1514892578125;11.111352336589668;12.948256098701638;17.734623684082685;-1.72412109375;-1.232421875;-0.1845703125;-265.0;20.4375;133.125;
1441975801823885;-0.100341796875;0.625244140625;0.76220703125;0.1337890625;10.868165249914467;12.89712109823296;17.762379934892202;-1.380859375;-0.71923828125;-0.15087890625;-158.0625;6.3125;151.1875;
1441975801846887;-0.08843994140625;0.631591796875;0.76116943359375;0.11749267578125;10.644381252395638;12.939451741607323;17.799250444299847;-1.33203125;-0.4775390625;0.060546875;-57.9375;-2.875;148.0625;
1441975801867888;-0.07720947265625;0.647705078125;0.75091552734375;0.102783203125;10.442553308885454;13.057591817565749;17.839147485986874;-1.1884765625;-0.29443359375;0.044921875;33.1875;8.25;137.625;
1441975801883889;-0.06951904296875;0.66656494140625;0.7364501953125;0.09173583984375;10.298578303228652;13.200632821423351;17.875177907819072;-0.99609375;-0.00341796875;0.048828125;108.375;17.625;122.5;
1441975801906890;-0.0743408203125;0.679931640625;0.72393798828125;0.08935546875;10.324817945843819;13.310787392251742;17.91674227618907;-0.8701171875;0.32958984375;-0.01123046875;133.6875;23.4375;88.6875;
1441975801927891;-0.08612060546875;0.68438720703125;0.71826171875;0.09039306640625;10.43280460369925;13.357205348170822;17.96459606005054;-0.86669921875;0.58935546875;-0.07080078125;93.375;35.4375;40.125;
1441975801943892;-0.1031494140625;0.68304443359375;0.7166748046875;0.095458984375;10.61573131126036;13.36409431318418;0.012185368134070517;-0.94384765625;0.72900390625;-0.08056640625;27.6875;44.75;0.0625;
1441975801966894;-0.1239013671875;0.678466796875;0.7164306640625;0.1048583984375;10.865322094458643;13.35298025677081;0.05406395315656199;-0.95849609375;0.71875;-0.0234375;-9.375;46.9375;-38.375;
1441975801987895;-0.14678955078125;0.67279052734375;0.71588134765625;0.11529541015625;11.142708283697136;13.341162204695621;0.09986166769044505;-0.85791015625;0.71337890625;0.04833984375;-22.5;44.4375;-81.625;
1441975802004896;-0.17510986328125;0.66650390625;0.7127685546875;0.13043212890625;11.505683155607024;13.341281247441033;0.15025076038816101;-0.78759765625;0.787109375;0.0703125;-26.9375;50.0;-128.4375;
1441975802026897;-0.20782470703125;0.6595458984375;0.7066650390625;0.1495361328125;11.940711488627588;13.356733378815093;0.2066987663270042;-0.81884765625;0.6904296875;0.095703125;-19.0625;56.25;-171.1875;
1441975802047898;-0.2437744140625;0.65289306640625;0.696044921875;0.17266845703125;12.439052864774851;13.400699466601587;0.2710089408340861;-0.8798828125;0.701171875;0.08837890625;-9.5625;61.5625;-207.375;
1441975802063899;-0.279296875;0.64508056640625;0.68280029296875;0.1990966796875;12.966370181075623;13.456382349071527;0.32989923754078737;-1.02490234375;0.6943359375;0.07568359375;11.0;65.25;-239.0625;
1441975802086900;-0.313720703125;0.63311767578125;0.66937255859375;0.22930908203125;13.52692358811996;13.494367335663064;0.3684545593666225;-1.21337890625;0.6787109375;-0.0166015625;19.8125;53.25;-253.625;
1441975802107902;-0.34991455078125;0.61541748046875;0.65643310546875;0.26043701171875;14.126200409375349;13.511203668628372;0.40780095618915;-1.25390625;0.6845703125;-0.0966796875;10.6875;29.625;-273.5;
1441975802123903;-0.386474609375;0.5926513671875;0.644287109375;0.29022216796875;14.735815821966582;13.506711060255363;0.4486218246885412;-1.322265625;0.63720703125;-0.0966796875;-13.625;24.75;-294.125;
1441975802146904;-0.421630859375;0.56689453125;0.63238525390625;0.317626953125;15.330898827623383;13.489437648587893;0.48912838947647475;-1.40771484375;0.5625;-0.0654296875;-38.3125;21.875;-300.375;
1441975802167905;-0.455322265625;0.5408935546875;0.61859130859375;0.34259033203125;15.906926093654716;13.498884102033365;0.5545499230280084;-1.39208984375;0.40478515625;-9.765625E-4;-52.625;20.4375;-293.375;
1441975802183906;-0.48455810546875;0.51800537109375;0.60186767578125;0.3668212890625;16.44462280347855;13.567570946240037;0.6515022217297022;-1.419921875;0.15234375;0.0361328125;-50.1875;27.625;-281.9375;
1441975802207907;-0.50762939453125;0.498779296875;0.5831298828125;0.3917236328125;16.93697243672368;13.701760208738863;0.7789179574866834;-1.52001953125;0.01025390625;0.0361328125;-23.4375;27.9375;-262.375;
1441975802227909;-0.525634765625;0.4822998046875;0.56427001953125;0.41546630859375;17.374146593841164;13.972360142048835;1.0244956491111448;-1.5205078125;-0.06982421875;0.03662109375;10.0625;17.9375;-241.25;
1441975802243909;-0.5390625;0.46881103515625;0.54632568359375;0.43719482421875;17.737120257174276;14.845735114055818;1.860459254225534;-1.46533203125;-0.1044921875;0.0556640625;27.6875;11.8125;-216.875;
1441975802274911;-0.54766845703125;0.45843505859375;0.529541015625;0.4576416015625;17.852967986010896;1.8936045011845637;6.85576587061661;-1.4462890625;-0.1396484375;0.0712890625;39.5;6.8125;-187.3125;
1441975802287912;-0.55230712890625;0.4512939453125;0.513671875;0.47686767578125;17.624502379247453;3.7274086216262803;8.622757789098909;-1.43994140625;-0.2119140625;0.0458984375;54.0625;-0.75;-158.3125;
1441975802303913;-0.55438232421875;0.446044921875;0.50042724609375;0.4931640625;17.419296753630302;4.140644113203457;8.97243742916;-1.38037109375;-0.13037109375;0.03466796875;68.125;-4.625;-133.5625;
1441975802326914;-0.55548095703125;0.44219970703125;0.4918212890625;0.50396728515625;17.28079049831553;4.311571814838894;9.102003150914658;-1.27197265625;0.0166015625;-0.00146484375;64.8125;-8.0625;-108.6875;
1441975802347915;-0.556884765625;0.43756103515625;0.4864501953125;0.5115966796875;17.171244586486807;4.436086598610509;9.206699677300902;-1.1875;0.07470703125;-0.052734375;42.625;-10.8125;-86.25;
1441975802363916;-0.55621337890625;0.43426513671875;0.48321533203125;0.51812744140625;17.09813319769232;4.572998521533396;9.323203336037754;-1.14697265625;-0.048828125;-0.0576171875;21.1875;-15.6875;-63.4375;
1441975802387918;-0.55401611328125;0.43359375;0.4818115234375;0.5223388671875;17.071916737872215;4.678526507787781;9.408232597397852;-1.05078125;-0.0458984375;-0.0263671875;22.0625;-19.375;-45.1875;
1441975802408919;-0.5517578125;0.43402099609375;0.482666015625;0.52362060546875;17.08220312992924;4.757812458570448;9.478544207845125;-0.947265625;0.02734375;-0.0263671875;21.875;-16.875;-25.125;
1441975802423920;-0.54931640625;0.434326171875;0.48602294921875;0.52276611328125;17.11785428397956;4.8580508935642515;9.58294815467746;-0.92626953125;0.02685546875;-0.0654296875;10.6875;-16.1875;-6.375;
1441975802446921;-0.54534912109375;0.435546875;0.49163818359375;0.52069091796875;17.1835719623974;5.021768735774548;9.75375847037472;-0.92626953125;-0.03515625;-0.05810546875;-2.3125;-19.75;12.125;
1441975802467922;-0.5401611328125;0.438232421875;0.498291015625;0.51751708984375;17.272977880680607;5.239337362444134;9.976815765987833;-0.88623046875;-0.0341796875;-0.01318359375;-5.0625;-22.375;29.75;
1441975802483923;-0.5345458984375;0.44189453125;0.5054931640625;0.51324462890625;17.375446869397713;5.520397105304519;10.264058207461982;-0.83642578125;-0.01318359375;-0.01220703125;-3.3125;-22.1875;43.75;
1441975802506925;-0.5286865234375;0.4459228515625;0.513916015625;0.5074462890625;17.487140147402723;5.947008191766682;10.702988525333044;-0.8896484375;-0.0107421875;-0.0400390625;-3.75;-21.9375;53.5625;
1441975802527926;-0.52227783203125;0.45001220703125;0.5238037109375;0.50030517578125;17.592202181874963;6.699576256957337;11.474204716611936;-0.95654296875;-0.01806640625;-0.044921875;-10.0;-22.375;64.9375;
1441975802543927;-0.5147705078125;0.45428466796875;0.5340576171875;0.4932861328125;17.647375201729886;7.920494361159407;12.710849660035976;-0.95751953125;-0.0380859375;-0.03369140625;-15.8125;-24.125;77.5625;
1441975802566928;-0.50616455078125;0.459716796875;0.5439453125;0.48626708984375;17.62574577984517;9.34581940529353;14.144431448142235;-0.95361328125;-0.04736328125;-0.01611328125;-12.8125;-27.9375;84.375;
1441975802589929;-0.49639892578125;0.466552734375;0.55316162109375;0.47943115234375;17.528220478558143;10.462291339404533;15.259412503590289;-0.95556640625;-0.0263671875;-0.00634765625;-5.3125;-26.875;90.1875;
1441975802603930;-0.4854736328125;0.4742431640625;0.56219482421875;0.4725341796875;17.377862350417857;11.169008459903319;15.958598267542566;-0.94873046875;0.00732421875;-0.0068359375;4.4375;-25.4375;94.75;
1441975802626931;-0.47393798828125;0.4822998046875;0.571044921875;0.4654541015625;17.200745785475753;11.602407280990569;16.38174156882849;-0.89306640625;0.06005859375;0.00634765625;10.0625;-25.125;98.0625;
1441975802649933;-0.462158203125;0.49041748046875;0.57916259765625;0.458740234375;17.01657931038014;11.874891625294362;16.639993059090312;-0.837890625;0.1162109375;0.02197265625;12.875;-24.375;98.9375;
1441975802664934;-0.45037841796875;0.498291015625;0.5865478515625;0.4525146484375;16.833917208686234;12.055018009353761;16.80310293025554;-0.82177734375;0.15966796875;0.02783203125;16.9375;-23.875;95.3125;
1441975802686935;-0.4393310546875;0.50537109375;0.59344482421875;0.4464111328125;16.65983407514947;12.179925475525057;16.913630929961716;-0.78857421875;0.19775390625;0.0263671875;18.5;-23.875;90.1875;
1441975802709936;-0.4296875;0.51153564453125;0.59930419921875;0.44097900390625;16.507182272087967;12.268796428918934;16.98982213811721;-0.76025390625;0.2607421875;0.0263671875;15.6875;-22.8125;81.625;
1441975802723937;-0.421630859375;0.51611328125;0.60394287109375;0.43701171875;16.384246694194847;12.317907735725788;17.027598728824834;-0.80029296875;0.32275390625;0.0068359375;13.0;-21.8125;67.875;
1441975802746938;-0.41510009765625;0.519287109375;0.60760498046875;0.43450927734375;16.289207732272825;12.3385807161073;17.03825568523527;-0.8388671875;0.345703125;0.009765625;10.125;-21.8125;51.8125;
1441975802769940;-0.40960693359375;0.52166748046875;0.6099853515625;0.43359375;16.219290485913252;12.343075493082038;17.029651103760216;-0.81689453125;0.34033203125;0.02734375;8.375;-21.0;37.375;
1441975802790941;-0.4052734375;0.52398681640625;0.61041259765625;0.43426513671875;16.17808981846309;12.347824928496081;17.01448681757401;-0.755859375;0.33056640625;0.06591796875;11.125;-18.125;24.0;
1441975802806942;-0.4022216796875;0.5262451171875;0.6087646484375;0.43658447265625;16.167652356343932;12.35340658272174;16.993167872530417;-0.71484375;0.328125;0.08740234375;18.125;-12.8125;9.625;
1441975802829943;-0.40093994140625;0.52789306640625;0.60595703125;0.43963623046875;16.183692389180692;12.35744541303291;16.971671143751575;-0.7197265625;0.33203125;0.0908203125;24.6875;-8.125;-5.1875;
1441975802850944;-0.40179443359375;0.52777099609375;0.60302734375;0.44305419921875;16.223661728724178;12.342235409450842;16.94081923892951;-0.740234375;0.33056640625;0.0703125;23.0;-4.8125;-17.4375;
1441975802866945;-0.40447998046875;0.52569580078125;0.600341796875;0.44671630859375;16.282301784710782;12.301111606560356;16.89501910647119;-0.765625;0.31201171875;0.06005859375;12.8125;-3.25;-27.8125;
1441975802896947;-0.40850830078125;0.52264404296875;0.59747314453125;0.45050048828125;16.355379747915435;12.247273032935484;16.842327314409744;-0.78662109375;0.255859375;0.068359375;1.5625;-3.125;-34.5625;
1441975802910948;-0.41326904296875;0.51934814453125;0.59393310546875;0.45458984375;16.440030434882768;12.187904147169276;16.78409708571363;-0.7900390625;0.1884765625;0.0712890625;-3.8125;-0.5;-38.5;
1441975802926949;-0.41796875;0.51654052734375;0.58984375;0.45880126953125;16.5267292753;12.131554789525289;16.725358283578494;-0.78857421875;0.14111328125;0.07568359375;-3.375;2.5625;-41.0625;
1441975802949950;-0.42254638671875;0.513916015625;0.585693359375;0.462890625;16.61147500915478;12.073012464733377;16.663732449184803;-0.81201171875;0.1376953125;0.06201171875;0.3125;3.25;-42.3125;
1441975802970951;-0.42730712890625;0.5107421875;0.5819091796875;0.46673583984375;16.694642886359873;11.99866853504094;16.590193177544464;-0.8310546875;0.14306640625;0.03515625;0.4375;1.9375;-42.125;
1441975802986952;-0.43157958984375;0.50750732421875;0.578369140625;0.47076416015625;16.7715110665558;11.90701366049779;16.49829222937453;-0.86181640625;0.11962890625;0.03369140625;-3.5625;0.875;-40.875;
1441975803009953;-0.434814453125;0.5050048828125;0.5745849609375;0.47509765625;16.8398199231748;11.811700388852024;16.396066527384402;-0.88330078125;0.0771484375;0.046875;-2.25;-1.1875;-37.5;
1441975803030954;-0.43670654296875;0.50408935546875;0.57012939453125;0.47967529296875;16.899227874713375;11.735269026854004;16.301672519109864;-0.86474609375;0.05859375;0.072265625;5.5;-1.25;-34.125;
1441975803046955;-0.437744140625;0.50421142578125;0.56561279296875;0.48388671875;16.949376172653796;11.679630130108267;16.223530046060564;-0.859375;0.08642578125;0.07666015625;16.1875;0.375;-31.4375;
1441975803069957;-0.4384765625;0.50439453125;0.56182861328125;0.4874267578125;16.98973272309824;11.629410106668779;16.15381056380756;-0.875;0.12548828125;0.06787109375;20.75;0.875;-28.5625;
1441975803090958;-0.439208984375;0.50433349609375;0.55902099609375;0.49005126953125;17.02107484318839;11.58436585345991;16.09542239656872;-0.89208984375;0.1396484375;0.0751953125;18.0625;0.375;-24.6875;
1441975803106959;-0.44000244140625;0.5040283203125;0.5572509765625;0.49169921875;17.043578004055217;11.547946419147669;16.05233313463459;-0.88232421875;0.142578125;0.0732421875;11.875;0.1875;-20.0;
1441975803129960;-0.44110107421875;0.5035400390625;0.555908203125;0.49273681640625;17.064562223752493;11.517729339167085;16.019834640542594;-0.89111328125;0.14990234375;0.0810546875;5.9375;0.5;-15.875;
1441975803150961;-0.44232177734375;0.5029296875;0.5552978515625;0.492919921875;17.079957767844757;11.500617732533405;16.005705075753845;-0.921875;0.13818359375;0.07568359375;1.1875;0.875;-12.875;
1441975803166962;-0.443603515625;0.50238037109375;0.5552978515625;0.49237060546875;17.090355187098485;11.500087258223399;16.01201509124583;-0.95263671875;0.13232421875;0.0830078125;-3.25;2.3125;-8.5625;
1441975803189964;-0.44451904296875;0.50201416015625;0.5560302734375;0.4910888671875;17.09114152655969;11.519084314349804;16.040484181471;-0.986328125;0.12255859375;0.0849609375;-6.875;2.8125;-3.25;
1441975803217965;-0.445068359375;0.501953125;0.5570068359375;0.48956298828125;17.086459902884165;11.550636174603545;16.08098267421614;-0.970703125;0.11328125;0.09326171875;-9.3125;3.25;2.6875;
1441975803227966;-0.4451904296875;0.50213623046875;0.55859375;0.4874267578125;17.072375286846306;11.599088809188;16.13996480090846;-0.97119140625;0.099609375;0.087890625;-8.5;2.6875;7.4375;
1441975803249967;-0.44482421875;0.5028076171875;0.56072998046875;0.484619140625;17.048226080051343;11.669863187216247;16.221975940307168;-0.9599609375;0.08740234375;0.10205078125;-9.375;3.3125;13.75;
1441975803270968;-0.44451904296875;0.50347900390625;0.5638427734375;0.4805908203125;17.014283996818797;11.757991315092182;16.32784363232341;-0.9404296875;0.10888671875;0.09814453125;-10.0;3.75;19.125;
1441975803286969;-0.44427490234375;0.5035400390625;0.56829833984375;0.4754638671875;16.96821530354889;11.839492072719205;16.436058713395703;-0.93212890625;0.12353515625;0.09326171875;-16.25;4.375;24.8125;
1441975803309970;-0.444091796875;0.50335693359375;0.57330322265625;0.4697265625;16.916473041322583;11.915681269661093;16.54321060362637;-0.91162109375;0.12890625;0.111328125;-24.75;4.1875;30.125;
1441975803330972;-0.4437255859375;0.50341796875;0.5784912109375;0.46368408203125;16.859646900236786;11.992023609627967;16.650722892263488;-0.91064453125;0.12255859375;0.119140625;-28.75;4.625;34.1875;
1441975803346973;-0.44317626953125;0.503662109375;0.5836181640625;0.4573974609375;16.799612651794344;12.066951916306014;16.75635004545542;-0.92919921875;0.13037109375;0.11279296875;-28.8125;4.625;36.875;
1441975803369974;-0.44244384765625;0.50396728515625;0.58856201171875;0.45135498046875;16.738987527376857;12.131011150067721;16.849215473548576;-0.96435546875;0.15283203125;0.103515625;-28.1875;4.125;38.8125;
1441975803390975;-0.4415283203125;0.5042724609375;0.59332275390625;0.44573974609375;16.678802309174362;12.181969818287534;16.926719776121203;-1.02783203125;0.138671875;0.08642578125;-26.4375;2.0;40.3125;
1441975803405976;-0.43988037109375;0.5047607421875;0.59783935546875;0.44073486328125;16.61552841528981;12.220091670489635;16.986338552269704;-1.044921875;0.11376953125;0.08203125;-24.25;0.0;41.8125;
1441975803428977;-0.43768310546875;0.50579833984375;0.60198974609375;0.43609619140625;16.549916303966565;12.258135798679731;17.040626563472337;-1.013671875;0.09130859375;0.107421875;-19.0625;-1.25;43.9375;
1441975803450979;-0.43487548828125;0.5074462890625;0.60589599609375;0.43145751953125;16.479063547364195;12.300556990461473;17.095122705930137;-0.98095703125;0.07421875;0.11669921875;-13.0625;-1.25;46.0;
1441975803465979;-0.4317626953125;0.50933837890625;0.61004638671875;0.426513671875;16.4018722127785;12.342561107713896;17.14924114386803;-0.96142578125;0.0810546875;0.12744140625;-9.0;-0.6875;48.5;
1441975803495981;-0.42913818359375;0.51092529296875;0.61444091796875;0.4208984375;16.324649038725358;12.383710519776123;17.207507413941062;-0.95751953125;0.12109375;0.12646484375;-8.8125;-0.5625;49.9375;
1441975803502981;-0.42718505859375;0.51177978515625;0.61920166015625;0.4149169921875;16.250552606578115;12.414863938427324;17.262002583936514;-0.970703125;0.15380859375;0.12060546875;-13.75;0.625;49.75;
1441975803525983;-0.42572021484375;0.51202392578125;0.6239013671875;0.4090576171875;16.18274416175384;12.436128427416534;17.309314223137534;-0.9931640625;0.16748046875;0.1142578125;-19.75;1.0625;48.875;
1441975803539984;-0.42425537109375;0.51220703125;0.62811279296875;0.40374755859375;16.12041568425779;12.452503358333269;17.348954825269445;-0.9951171875;0.1533203125;0.115234375;-22.875;0.75;46.875;
1441975803562985;-0.4227294921875;0.5128173828125;0.631591796875;0.39923095703125;16.064327609924767;12.470026770383491;17.38385840140365;-0.97900390625;0.14697265625;0.12939453125;-19.75;1.1875;44.3125;
1441975803585986;-0.4210205078125;0.51385498046875;0.63427734375;0.3953857421875;16.013285569945005;12.490063865456376;17.415257311432697;-0.9599609375;0.14892578125;0.1318359375;-13.75;1.6875;41.4375;
1441975803599987;-0.4195556640625;0.514892578125;0.63641357421875;0.39208984375;15.96994823164553;12.509085251022677;17.44312448984596;-0.9375;0.16259765625;0.125;-8.0625;1.625;37.8125;
1441975803622988;-0.41851806640625;0.515625;0.63818359375;0.389404296875;15.935965806376576;12.52303944074088;17.46514554725174;-0.93408203125;0.181640625;0.11962890625;-6.125;1.5;33.0625;
1441975803645990;-0.41790771484375;0.5157470703125;0.6397705078125;0.38726806640625;15.910973935888263;12.528226948939665;17.479252627751986;-0.93798828125;0.193359375;0.1064453125;-5.75;0.9375;27.6875;
1441975803659990;-0.41754150390625;0.5155029296875;0.64105224609375;0.3858642578125;15.89443077974501;12.526389959137674;17.48503018613312;-0.93408203125;0.19775390625;0.1103515625;-6.9375;-0.125;22.5625;
1441975803682992;-0.41754150390625;0.51513671875;0.6416015625;0.38543701171875;15.890258580953642;12.521945745128273;17.484543379078715;-0.9208984375;0.20166015625;0.1181640625;-6.375;-0.875;17.1875;
1441975803705993;-0.417724609375;0.5147705078125;0.64141845703125;0.3861083984375;15.897209570091457;12.514492407712543;17.476132021130557;-0.93359375;0.21435546875;0.12353515625;-2.6875;-0.625;10.125;
1441975803719994;-0.41845703125;0.5140380859375;0.64056396484375;0.3876953125;15.91803990087882;12.502325999200693;17.460958632646513;-0.9443359375;0.22900390625;0.12939453125;1.3125;-1.25;3.0;
1441975803742995;-0.419677734375;0.51287841796875;0.63922119140625;0.3900146484375;15.950424402853873;12.484305179088539;17.438976566663897;-0.9404296875;0.220703125;0.11865234375;2.75;-1.875;-4.0625;
1441975803765997;-0.421142578125;0.51171875;0.6373291015625;0.39306640625;15.99141901781128;12.464189165113934;17.411795816528556;-0.9384765625;0.2080078125;0.12890625;3.9375;-1.4375;-10.0;
1441975803779997;-0.42291259765625;0.51025390625;0.6351318359375;0.396728515625;16.040299477598076;12.437414968881221;17.377013321869818;-0.9306640625;0.2041015625;0.12451171875;6.4375;-1.1875;-15.25;
1441975803802999;-0.425048828125;0.5084228515625;0.6326904296875;0.40057373046875;16.095261102218203;12.406118977068383;17.338619077720995;-0.9296875;0.20458984375;0.1357421875;6.9375;-1.25;-20.125;
1441975803826000;-0.4278564453125;0.506103515625;0.630126953125;0.40460205078125;16.158299483886914;12.368482217388252;17.29631561379269;-0.93994140625;0.2177734375;0.1279296875;5.9375;-1.25;-24.6875;
1441975803848001;-0.430908203125;0.5032958984375;0.62738037109375;0.4090576171875;16.22722603699103;12.319475894029772;17.24300425085483;-0.95361328125;0.2099609375;0.12109375;2.875;-0.75;-28.875;
1441975803863002;-0.43402099609375;0.5003662109375;0.6243896484375;0.41387939453125;16.299424758640104;12.262652018488009;17.180636134263995;-0.96337890625;0.193359375;0.1240234375;2.4375;-1.625;-32.3125;
1441975803886003;-0.43695068359375;0.4976806640625;0.6209716796875;0.41912841796875;16.373187178672893;12.201429679914648;17.110167548839883;-0.95751953125;0.17822265625;0.126953125;3.6875;-1.9375;-34.75;
1441975803900004;-0.439697265625;0.4951171875;0.61737060546875;0.42462158203125;16.44634543251016;12.13338864280361;17.030784949379093;-0.95849609375;0.17724609375;0.12646484375;6.9375;-2.375;-36.6875;
1441975803923006;-0.44244384765625;0.49249267578125;0.61383056640625;0.42999267578125;16.51768097322151;12.058374321964996;16.945177195858076;-0.9580078125;0.171875;0.13037109375;8.75;-2.5;-38.1875;
1441975803946007;-0.44512939453125;0.48980712890625;0.61029052734375;0.43524169921875;16.58696022066163;11.975805409461316;16.85243097907246;-0.947265625;0.17041015625;0.1318359375;8.4375;-2.25;-38.9375;
1441975803968008;-0.44781494140625;0.487060546875;0.60693359375;0.440185546875;16.65273340205149;11.88668689460427;16.754765552997;-0.95361328125;0.1669921875;0.13037109375;7.6875;-2.4375;-38.875;
1441975803983009;-0.45037841796875;0.4842529296875;0.60394287109375;0.44482421875;16.71259634817084;11.78934030235327;16.65066182832583;-0.96630859375;0.1728515625;0.12939453125;6.0;-2.625;-38.5;
1441975804006010;-0.453125;0.4814453125;0.60101318359375;0.448974609375;16.770727189909447;11.690813964207349;16.547536842613834;-0.9677734375;0.17236328125;0.13427734375;4.0625;-2.5;-37.5;
1441975804028012;-0.455810546875;0.478515625;0.598388671875;0.452880859375;16.824071518956114;11.58267584854135;16.43658112000754;-0.97412109375;0.1689453125;0.12109375;2.125;-2.1875;-36.375;
1441975804043012;-0.45831298828125;0.47576904296875;0.5960693359375;0.45635986328125;16.870913617694516;11.474912777290294;16.32707700162262;-0.97802734375;0.1513671875;0.1259765625;0.4375;-2.25;-34.6875;
1441975804065014;-0.46038818359375;0.4735107421875;0.59381103515625;0.45953369140625;16.91131630028077;11.374578111468715;16.223457149765903;-0.96630859375;0.14404296875;0.13037109375;-0.1875;-1.8125;-32.0;
1441975804088015;-0.46246337890625;0.47119140625;0.592041015625;0.4620361328125;16.945887566523172;11.27750303551014;16.126647144534783;-0.95361328125;0.1416015625;0.11962890625;1.0625;-1.9375;-29.0;
1441975804103016;-0.464599609375;0.46893310546875;0.59088134765625;0.4637451171875;16.974502087686673;11.190901915569432;16.044352029059656;-0.95556640625;0.13671875;0.12744140625;-2.1875;-0.9375;-25.5625;
1441975804125017;-0.4664306640625;0.466796875;0.59014892578125;0.4649658203125;16.996099258446822;11.112796744736865;15.97199594879359;-0.96337890625;0.1259765625;0.11865234375;-5.75;-0.875;-20.8125;
1441975804148018;-0.4677734375;0.4652099609375;0.5897216796875;0.46575927734375;17.010601415664844;11.055054681507478;15.919136583358902;-0.97265625;0.10498046875;0.11962890625;-6.9375;-1.125;-16.0625;
1441975804163019;-0.46844482421875;0.46435546875;0.58953857421875;0.46612548828125;17.017436123004664;11.024686374695687;15.891570717725282;-0.97509765625;0.10400390625;0.12255859375;-5.5;-1.125;-10.9375;
1441975804185020;-0.46844482421875;0.46405029296875;0.58966064453125;0.46630859375;17.016392888411286;11.012841509325344;15.880426435236577;-0.9794921875;0.09814453125;0.12109375;-3.125;-1.0;-5.4375;
1441975804208022;-0.46783447265625;0.46435546875;0.5902099609375;0.46600341796875;17.007079279699752;11.02771361195137;15.89513464013019;-0.9658203125;0.09716796875;0.1259765625;-1.125;-1.9375;-0.0625;
1441975804223023;-0.46697998046875;0.4649658203125;0.591064453125;0.4652099609375;16.993286718938577;11.06037329821654;15.928353567385265;-0.97705078125;0.1083984375;0.12548828125;0.5;-2.25;4.9375;
1441975804246024;-0.4658203125;0.4654541015625;0.59246826171875;0.4639892578125;16.972314975253767;11.097696612560819;15.968570249785865;-0.98974609375;0.111328125;0.11083984375;-0.1875;-2.9375;9.1875;
1441975804260025;-0.46435546875;0.46636962890625;0.59405517578125;0.4625244140625;16.947097888832545;11.148467360845226;16.021348032395018;-0.98583984375;0.109375;0.13037109375;-2.0625;-3.125;12.9375;
1441975804283026;-0.46246337890625;0.46771240234375;0.595703125;0.46087646484375;16.917292649156035;11.21027141838793;16.083430169713154;-0.97607421875;0.10693359375;0.13916015625;-1.125;-2.8125;16.6875;
1441975804305027;-0.4603271484375;0.46929931640625;0.59765625;0.45892333984375;16.88227033263183;11.279146436583076;16.15293405891537;-0.970703125;0.10888671875;0.1396484375;1.0;-2.375;20.0;
1441975804328029;-0.45819091796875;0.4708251953125;0.59991455078125;0.45654296875;16.84382585030403;11.349362688564577;16.22609384454564;-0.96875;0.11376953125;0.1416015625;1.125;-2.5;23.0625;
1441975804342029;-0.4561767578125;0.47216796875;0.6025390625;0.4537353515625;16.802483755243802;11.417468304201243;16.300325970214214;-0.970703125;0.1220703125;0.1416015625;-1.25;-2.375;25.5625;
1441975804365031;-0.45440673828125;0.47332763671875;0.60528564453125;0.4505615234375;16.761139161508492;11.483203110583174;16.374859731117603;-0.9765625;0.12646484375;0.14794921875;-4.3125;-2.0625;27.5;
1441975804388032;-0.4525146484375;0.474365234375;0.6082763671875;0.44732666015625;16.716260049800812;11.541713735626319;16.443066634915954;-0.9873046875;0.123046875;0.1416015625;-6.6875;-1.8125;28.75;
1441975804403033;-0.45068359375;0.47528076171875;0.611328125;0.44403076171875;16.670872743493707;11.59443600133033;16.506384206358344;-0.97900390625;0.12744140625;0.14453125;-7.5625;-2.4375;29.6875;
1441975804425034;-0.44891357421875;0.47625732421875;0.61444091796875;0.4405517578125;16.624585962956214;11.647004450260448;16.570260120788987;-0.95166015625;0.1298828125;0.15283203125;-8.375;-2.1875;30.0625;
1441975804448036;-0.447265625;0.47711181640625;0.6173095703125;0.4371337890625;16.580854155464586;11.694291433790717;16.62872886229756;-0.95263671875;0.14794921875;0.15283203125;-9.0;-1.5;29.75;
1441975804462036;-0.4459228515625;0.477783203125;0.6201171875;0.43389892578125;16.540439182954593;11.733866214268396;16.6801454894942;-0.9541015625;0.1611328125;0.14892578125;-9.1875;-1.25;28.3125;
1441975804485038;-0.44476318359375;0.4781494140625;0.62261962890625;0.4310302734375;16.504813554814984;11.763109867435972;16.720727018088237;-0.9521484375;0.16162109375;0.1455078125;-9.8125;-1.1875;26.375;
1441975804508039;-0.4437255859375;0.478515625;0.62481689453125;0.42852783203125;16.473179368735153;11.787902670688947;16.755241628672565;-0.95361328125;0.15625;0.14501953125;-9.5;-1.75;24.3125;
1441975804522040;-0.442626953125;0.47906494140625;0.62652587890625;0.4266357421875;16.44573875700373;11.809067030604616;16.7822069842629;-0.9423828125;0.15185546875;0.14697265625;-7.6875;-1.625;22.1875;
1441975804545041;-0.44158935546875;0.4794921875;0.62774658203125;0.42535400390625;16.42406652567337;11.822628065591411;16.798918935471903;-0.939453125;0.16259765625;0.1474609375;-4.25;-1.5625;19.0;
1441975804568042;-0.44091796875;0.479736328125;0.62872314453125;0.4244384765625;16.40853493275875;11.83073688603766;16.809930809152053;-0.939453125;0.16259765625;0.142578125;-2.1875;-2.5;15.375;
1441975804583043;-0.44036865234375;0.4798583984375;0.62933349609375;0.42388916015625;16.397826484887396;11.834589439552806;16.8152795883663;-0.93359375;0.16552734375;0.146484375;-1.8125;-2.0;11.9375;
1441975804605045;-0.44012451171875;0.4798583984375;0.62957763671875;0.423828125;16.393886192668173;11.833331892806484;16.81421280510017;-0.93505859375;0.1728515625;0.14794921875;-0.6875;-1.625;8.625;
1441975804628046;-0.44024658203125;0.4794921875;0.6295166015625;0.42413330078125;16.396823916959463;11.824557311197813;16.805790152422876;-0.93994140625;0.17529296875;0.14599609375;0.125;-1.625;4.9375;
1441975804643047;-0.44061279296875;0.47900390625;0.629150390625;0.42486572265625;16.405373147591153;11.810830604695031;16.791300420733176;-0.9384765625;0.17041015625;0.14404296875;-0.0625;-1.1875;1.125;
1441975804665048;-0.44122314453125;0.47845458984375;0.62841796875;0.42596435546875;16.419643230556733;11.79397061576179;16.772401885430032;-0.9345703125;0.17041015625;0.14990234375;0.5625;-1.0;-2.25;
1441975804688049;-0.44207763671875;0.477783203125;0.6273193359375;0.42742919921875;16.43968073616191;11.772704854268703;16.748013728294765;-0.93310546875;0.171875;0.14794921875;1.9375;-0.3125;-5.5;
1441975804703050;-0.443115234375;0.47705078125;0.62603759765625;0.4290771484375;16.463046483801723;11.74887439445509;16.720681593376973;-0.9443359375;0.1640625;0.14599609375;2.6875;0.0;-8.75;
1441975804725051;-0.44427490234375;0.476318359375;0.62451171875;0.43096923828125;16.489688115236582;11.722535577842539;16.689759569266297;-0.935546875;0.16259765625;0.14208984375;2.8125;0.125;-10.625;
1441975804756053;-0.44561767578125;0.4754638671875;0.62274169921875;0.43304443359375;16.520078001559387;11.692258869853646;16.65455123653977;-0.9384765625;0.17138671875;0.13720703125;3.6875;0.3125;-13.0;
1441975804762053;-0.44720458984375;0.47430419921875;0.62091064453125;0.43524169921875;16.55344127747411;11.654474721809404;16.612892940993383;-0.9501953125;0.17236328125;0.12548828125;3.6875;-0.1875;-15.75;
1441975804785055;-0.4488525390625;0.47308349609375;0.61895751953125;0.43768310546875;16.588533836749413;11.610890557506881;16.56470683933555;-0.9482421875;0.1748046875;0.12255859375;2.4375;0.0625;-18.25;
1441975804808056;-0.4505615234375;0.47186279296875;0.61669921875;0.4404296875;16.626613844251143;11.561871607995265;16.509495617911856;-0.94970703125;0.17236328125;0.1318359375;2.75;0.0625;-20.0;
1441975804822057;-0.45208740234375;0.4708251953125;0.61419677734375;0.44342041015625;16.66474159036114;11.510270422674601;16.449249779317853;-0.9501953125;0.1572265625;0.1357421875;4.75;0.3125;-21.625;
1441975804845058;-0.45330810546875;0.46990966796875;0.611572265625;0.44677734375;16.701161879776766;11.451933428984553;16.37962907171113;-0.9482421875;0.15234375;0.13232421875;7.0625;0.5;-22.3125;
1441975804868060;-0.4547119140625;0.46905517578125;0.60888671875;0.44989013671875;16.73853351496527;11.395641225716442;16.312951721966122;-0.955078125;0.146484375;0.13525390625;9.5;-0.6875;-22.8125;
1441975804883060;-0.4561767578125;0.46807861328125;0.6064453125;0.45269775390625;16.77363811449275;11.33767871999257;16.24674159885578;-0.95458984375;0.1376953125;0.1279296875;8.5625;-0.125;-22.5625;
1441975804905062;-0.45751953125;0.46710205078125;0.604248046875;0.455322265625;16.805057233195118;11.278646295228022;16.18035616741199;-0.96435546875;0.13525390625;0.126953125;6.75;0.125;-21.3125;
1441975804928063;-0.45880126953125;0.46630859375;0.60205078125;0.457763671875;16.835176854534748;11.223585101351874;16.117783261491525;-0.9677734375;0.13427734375;0.12646484375;5.8125;-0.1875;-20.125;
1441975804944064;-0.4599609375;0.46575927734375;0.5999755859375;0.45989990234375;16.86260857919628;11.176377734779049;16.063255538634166;-0.98583984375;0.125;0.1279296875;6.0625;0.375;-18.75;
1441975804966065;-0.4608154296875;0.46533203125;0.59808349609375;0.4617919921875;16.885523201736312;11.134060529406794;16.013668184637062;-0.984375;0.125;0.1220703125;6.3125;0.6875;-16.6875;
1441975804988066;-0.46160888671875;0.46527099609375;0.596435546875;0.46331787109375;16.905720644348293;11.105081459533954;15.977912506506058;-0.98095703125;0.12548828125;0.1298828125;6.1875;1.0;-14.375;
1441975805003067;-0.462158203125;0.4652099609375;0.594970703125;0.464599609375;16.922161831975988;11.079845558528799;15.946485037136075;-0.97705078125;0.1298828125;0.11767578125;5.8125;1.375;-12.25;
1441975805034069;-0.4625244140625;0.46539306640625;0.59381103515625;0.465576171875;16.934612079105232;11.065522614191046;15.926486347822518;-0.978515625;0.1259765625;0.123046875;5.5;0.9375;-10.0;
1441975805048070;-0.46270751953125;0.4656982421875;0.59283447265625;0.46636962890625;16.94405464407806;11.057481564996031;15.912957084992447;-0.978515625;0.126953125;0.11572265625;5.0625;0.625;-7.375;
1441975805064071;-0.46246337890625;0.46612548828125;0.5921630859375;0.46697998046875;16.947494243997063;11.05620375827445;15.906048980178026;-0.97265625;0.111328125;0.11083984375;4.875;0.0625;-4.5;
1441975805085072;-0.46197509765625;0.4669189453125;0.591796875;0.46728515625;16.94659378305568;11.069821884656085;15.914015738040685;-0.96533203125;0.107421875;0.123046875;5.75;-0.5625;-1.375;
1441975805108073;-0.46136474609375;0.46783447265625;0.5916748046875;0.467041015625;16.942562446950696;11.097357090919928;15.9375298378212;-0.96337890625;0.1220703125;0.1220703125;5.6875;-0.125;1.125;
1441975805122074;-0.4608154296875;0.46868896484375;0.59197998046875;0.46636962890625;16.93547647253512;11.131173742762632;15.970129781696706;-0.9599609375;0.13623046875;0.11962890625;4.125;0.3125;3.1875;
1441975805145075;-0.4605712890625;0.46929931640625;0.59246826171875;0.46527099609375;16.929129726913303;11.166916791774916;16.00801825366762;-0.96044921875;0.15185546875;0.126953125;1.0625;1.0;4.75;
1441975805168077;-0.46044921875;0.46990966796875;0.59307861328125;0.464111328125;16.922695517393684;11.203118004505539;16.047210354237887;-0.9658203125;0.150390625;0.119140625;-1.5;1.4375;5.5;
1441975805183078;-0.460205078125;0.47052001953125;0.59368896484375;0.462890625;16.91496705334495;11.240091795703918;16.087031605351353;-0.962890625;0.1396484375;0.11962890625;-2.6875;1.875;6.5625;
1441975805205079;-0.4599609375;0.47125244140625;0.59429931640625;0.461669921875;16.907040210172923;11.27929548611589;16.128711197409345;-0.95068359375;0.13720703125;0.123046875;-2.25;2.125;7.4375;
1441975805228080;-0.45965576171875;0.47198486328125;0.594970703125;0.4603271484375;16.897772791094745;11.320068678905265;16.172332706966543;-0.94873046875;0.134765625;0.119140625;-1.9375;2.125;8.125;
1441975805243081;-0.45928955078125;0.4727783203125;0.59564208984375;0.458984375;16.887728293856565;11.361449310069187;16.216211482047115;-0.9423828125;0.1328125;0.11376953125;-2.125;1.875;9.0625;
1441975805281083;-0.458984375;0.4735107421875;0.59649658203125;0.45751953125;16.876457969805177;11.40241624385096;16.260893570206967;-0.95166015625;0.13525390625;0.1181640625;-1.9375;1.875;9.4375;
1441975805288084;-0.45880126953125;0.47406005859375;0.59735107421875;0.4559326171875;16.865896365082712;11.440976475643705;16.30443021346625;-0.9619140625;0.140625;0.11279296875;-2.8125;1.75;10.125;
1441975805311085;-0.45880126953125;0.474609375;0.59808349609375;0.45440673828125;16.85768308585455;11.478450183850786;16.346859034716438;-0.9736328125;0.14404296875;0.111328125;-4.5;1.8125;9.6875;
1441975805325086;-0.45867919921875;0.4752197265625;0.59869384765625;0.45318603515625;16.849608039892576;11.511362192965885;16.382950317832357;-0.97802734375;0.1328125;0.10888671875;-4.125;2.0625;9.6875;
1441975805347087;-0.45843505859375;0.47601318359375;0.59912109375;0.45196533203125;16.84151914717136;11.54830519497669;16.421692714832652;-0.974609375;0.1259765625;0.1279296875;-2.125;2.9375;9.5625;
1441975805363088;-0.4583740234375;0.47686767578125;0.59954833984375;0.45050048828125;16.834248283973633;11.590843593155977;16.467083228865764;-0.970703125;0.12744140625;0.12744140625;-0.9375;3.6875;9.875;
1441975805385089;-0.45855712890625;0.47747802734375;0.60009765625;0.44891357421875;16.827895966543135;11.629885309435588;16.511082323726978;-0.962890625;0.12939453125;0.1123046875;-1.75;3.9375;10.1875;
1441975805408090;-0.45880126953125;0.4779052734375;0.60076904296875;0.44732666015625;16.8211479657459;11.664161501452636;16.55136888466077;-0.96435546875;0.12353515625;0.1064453125;-4.0;4.0625;10.375;
1441975805422091;-0.45892333984375;0.47845458984375;0.6014404296875;0.44580078125;16.813160274294273;11.699084300160692;16.591413716207285;-0.95703125;0.12060546875;0.1142578125;-4.8125;4.125;10.5625;
1441975805446093;-0.45892333984375;0.4791259765625;0.6019287109375;0.4443359375;16.80524423585798;11.735622451830219;16.63169545967568;-0.9609375;0.1318359375;0.11865234375;-4.0625;4.375;10.1875;
1441975805468094;-0.4591064453125;0.479736328125;0.60235595703125;0.44293212890625;16.79934632507036;11.770377972004532;16.670521653795582;-0.9677734375;0.1455078125;0.12109375;-2.8125;4.4375;9.5;
1441975805483095;-0.45928955078125;0.4801025390625;0.602783203125;0.4417724609375;16.794275978432985;11.795676854982325;16.699891557427065;-0.9716796875;0.1513671875;0.107421875;-3.1875;4.125;8.25;
1441975805505096;-0.4595947265625;0.48046875;0.60296630859375;0.44085693359375;16.792524725923666;11.818636905170713;16.72584564264469;-0.96142578125;0.150390625;0.111328125;-3.375;3.5625;6.9375;
1441975805527097;-0.45989990234375;0.480712890625;0.60296630859375;0.44024658203125;16.793031269164917;11.835102099710056;16.744252561250658;-0.9658203125;0.1494140625;0.10595703125;-2.4375;3.5;5.0625;
1441975805551099;-0.46026611328125;0.4808349609375;0.60284423828125;0.43988037109375;16.7957576100915;11.846040733919635;16.756594219203397;-0.96484375;0.15087890625;0.11474609375;-1.3125;3.3125;3.5;
1441975805565099;-0.46075439453125;0.4808349609375;0.6026611328125;0.43963623046875;16.800469852424747;11.853400716699026;16.765519909003668;-0.96630859375;0.14794921875;0.111328125;-0.9375;2.875;2.0;
1441975805589101;-0.46124267578125;0.480712890625;0.60235595703125;0.4395751953125;16.806762906482312;11.856043893516091;16.769215247491818;-0.96630859375;0.1484375;0.1103515625;-1.125;2.625;0.5625;
1441975805611102;-0.4617919921875;0.48046875;0.60205078125;0.439697265625;16.814288273530984;11.853325468402659;16.76752355886779;-0.9609375;0.14599609375;0.111328125;-0.875;2.3125;-0.5;
1441975805625103;-0.46246337890625;0.4801025390625;0.6016845703125;0.43994140625;16.82381569597072;11.846869480848174;16.762256748438993;-0.958984375;0.142578125;0.11376953125;-0.9375;1.8125;-1.75;
1441975805648104;-0.4630126953125;0.479736328125;0.6011962890625;0.44036865234375;16.833689589508307;11.837415813090935;16.75277761647614;-0.95849609375;0.13916015625;0.10546875;-1.1875;1.5625;-2.5625;
1441975805663105;-0.46343994140625;0.47943115234375;0.6007080078125;0.44091796875;16.842759158777373;11.826400469465685;16.740847600242258;-0.96875;0.13623046875;0.1083984375;-0.0625;0.9375;-3.25;
1441975805685106;-0.46392822265625;0.479248046875;0.60003662109375;0.44158935546875;16.853761893866853;11.81706160116777;16.729517194452512;-0.96435546875;0.1455078125;0.111328125;1.0625;0.9375;-3.875;
1441975805707108;-0.46441650390625;0.47900390625;0.599365234375;0.44219970703125;16.8646849027982;11.807335801055592;16.718176069250184;-0.96533203125;0.1533203125;0.1103515625;1.5625;1.0;-4.9375;
1441975805723108;-0.46502685546875;0.4786376953125;0.5986328125;0.44293212890625;16.87756547918162;11.79342434608599;16.70281223940331;-0.962890625;0.15771484375;0.10498046875;1.4375;0.9375;-6.0;
1441975805745110;-0.46575927734375;0.47821044921875;0.59783935546875;0.4437255859375;16.89213035746716;11.777587186200092;16.685685746626525;-0.96533203125;0.158203125;0.10546875;1.1875;1.0625;-6.9375;
1441975805768111;-0.4664306640625;0.477783203125;0.59698486328125;0.44464111328125;16.90689070945758;11.75914770335697;16.665256426202706;-0.95166015625;0.14697265625;0.10107421875;0.875;1.0625;-7.375;
1441975805785112;-0.46722412109375;0.4774169921875;0.5960693359375;0.4454345703125;16.922683564243428;11.744785595780925;16.649255389155865;-0.9609375;0.1435546875;0.10546875;1.5;0.9375;-7.75;
1441975805805113;-0.4681396484375;0.47686767578125;0.5953369140625;0.446044921875;16.937959618184056;11.728689030257426;16.633459625572744;-0.970703125;0.15185546875;0.09326171875;1.1875;1.0;-8.0625;
1441975805836115;-0.46905517578125;0.47613525390625;0.59466552734375;0.44671630859375;16.953148549847665;11.706272331308078;16.611881521692958;-0.97119140625;0.15234375;0.0908203125;-0.625;0.875;-8.375;
1441975805842115;-0.46990966796875;0.4755859375;0.59393310546875;0.44744873046875;16.968106754332858;11.686430374783884;16.59180234550847;-0.96826171875;0.14404296875;0.09716796875;-1.5;0.75;-8.4375;
1441975805865117;-0.4705810546875;0.4752197265625;0.59307861328125;0.4482421875;16.982269465151795;11.669211574023022;16.572782800204916;-0.962890625;0.1357421875;0.1005859375;0.125;1.1875;-8.0;
1441975805896118;-0.47125244140625;0.4749755859375;0.59228515625;0.4488525390625;16.995396545222743;11.657918392120965;16.560039436076092;-0.95849609375;0.13232421875;0.10400390625;1.25;1.6875;-7.5;
1441975805903119;-0.47198486328125;0.47467041015625;0.5916748046875;0.44921875;17.007223858484178;11.64911720937988;16.551376411695497;-0.96142578125;0.14013671875;0.1025390625;1.1875;2.0;-6.5625;
1441975805925120;-0.47265625;0.474365234375;0.59124755859375;0.44940185546875;17.016789644348872;11.642716096157812;16.546001092186227;-0.96826171875;0.13134765625;0.0986328125;-0.1875;2.125;-5.5625;
1441975805949121;-0.4732666015625;0.47412109375;0.5909423828125;0.44940185546875;17.024477237723804;11.640735639037501;16.54558381914574;-0.96533203125;0.13134765625;0.10498046875;-1.1875;2.25;-4.375;
1441975805962122;-0.473876953125;0.4739990234375;0.5906982421875;0.44921875;17.031178413815958;11.645425976109287;16.552187268311055;-0.9619140625;0.13525390625;0.10107421875;-1.5;2.625;-3.4375;
1441975805985123;-0.47430419921875;0.47393798828125;0.590576171875;0.448974609375;17.035228435727234;11.651611627762932;16.5601232961335;-0.955078125;0.14013671875;0.1005859375;-1.875;2.75;-2.625;
1441975806008125;-0.47467041015625;0.4739990234375;0.5904541015625;0.44866943359375;17.0384720481854;11.662043444230548;16.571955358559247;-0.9462890625;0.14990234375;0.0986328125;-2.0625;2.375;-2.3125;
1441975806023126;-0.4749755859375;0.4739990234375;0.59033203125;0.448486328125;17.041536345309705;11.66806984278585;16.579031909405202;-0.9423828125;0.154296875;0.09375;-1.4375;2.3125;-2.125;
1441975806045127;-0.4752197265625;0.47412109375;0.59027099609375;0.44818115234375;17.043202046155592;11.679278684615179;16.59129087586689;-0.94677734375;0.15771484375;0.1005859375;-1.0;2.3125;-2.375;
1441975806067128;-0.4754638671875;0.47418212890625;0.59039306640625;0.44769287109375;17.043175404958742;11.691802977030608;16.606103019888298;-0.94970703125;0.16943359375;0.099609375;-1.25;2.3125;-2.5625;
1441975806083129;-0.47601318359375;0.4739990234375;0.5906982421875;0.44696044921875;17.04412066680908;11.703606583921934;16.62299453005264;-0.9365234375;0.18310546875;0.10791015625;-2.5;3.0;-2.5;
1441975806105130;-0.47662353515625;0.47357177734375;0.59130859375;0.4459228515625;17.042956012254418;11.714157151476208;16.64129644893394;-0.935546875;0.169921875;0.10986328125;-4.9375;3.6875;-1.5625;
1441975806127132;-0.4775390625;0.4730224609375;0.59185791015625;0.44476318359375;17.044657700288877;11.726104224968418;16.6623949354659;-0.93896484375;0.1708984375;0.11328125;-7.25;3.6875;-0.875;
1441975806142132;-0.47869873046875;0.4722900390625;0.59259033203125;0.443359375;17.0467183475164;11.738693374310147;16.686584603143746;-0.962890625;0.15380859375;0.103515625;-9.25;4.0;-0.1875;
1441975806166134;-0.47967529296875;0.4715576171875;0.5936279296875;0.44171142578125;17.044386338229025;11.753569622809763;16.71413806869891;-0.97705078125;0.14306640625;0.0947265625;-11.1875;3.6875;0.9375;
1441975806187135;-0.4805908203125;0.47076416015625;0.5947265625;0.44000244140625;17.041002023286715;11.767381243623927;16.741005773011633;-0.970703125;0.1533203125;0.09716796875;-12.6875;3.25;2.3125;
1441975806202136;-0.48126220703125;0.47021484375;0.5958251953125;0.43841552734375;17.035445242505027;11.783202566464206;16.768106418810284;-0.97216796875;0.142578125;0.1005859375;-12.5;3.125;3.25;
1441975806225137;-0.48162841796875;0.46978759765625;0.5970458984375;0.436767578125;17.02604687521874;11.800512852830234;16.796027427854426;-0.970703125;0.13916015625;0.09912109375;-10.875;2.625;4.625;
1441975806248138;-0.48199462890625;0.46942138671875;0.59832763671875;0.43499755859375;17.015706444609037;11.820956075229322;16.827432834694676;-0.96435546875;0.14697265625;0.1025390625;-10.1875;1.875;5.8125;
1441975806272140;-0.48223876953125;0.46893310546875;0.599853515625;0.43316650390625;17.00259040785203;11.836559624323263;16.854890123815824;-0.97314453125;0.14306640625;0.0908203125;-10.5;1.375;6.9375;
1441975806286141;-0.48236083984375;0.468505859375;0.60150146484375;0.43121337890625;16.98707467182;11.853849398831699;16.884226767380447;-0.9482421875;0.13916015625;0.10107421875;-11.5625;0.9375;8.1875;
1441975806307142;-0.482421875;0.46820068359375;0.603271484375;0.4290771484375;16.969342147617994;11.875547019898068;16.918323523087704;-0.953125;0.14794921875;0.10693359375;-11.5625;1.0625;8.8125;
1441975806324143;-0.4827880859375;0.46759033203125;0.60504150390625;0.42681884765625;16.954299027704575;11.893521849689465;16.950831139223748;-0.9677734375;0.1669921875;0.1044921875;-11.875;1.0;9.125;
1441975806345144;-0.4833984375;0.46661376953125;0.6068115234375;0.42462158203125;16.94215951160438;11.902844149832408;16.976279866622004;-0.97314453125;0.16357421875;0.09521484375;-14.25;1.0;8.75;
1441975806367145;-0.48388671875;0.465576171875;0.608642578125;0.422607421875;16.929259657775866;11.905731614293849;16.994755434591976;-0.98046875;0.142578125;0.09423828125;-15.6875;0.375;8.3125;
1441975806384146;-0.48419189453125;0.46478271484375;0.6103515625;0.420654296875;16.915367196187365;11.912512636864664;17.01538066846803;-0.96044921875;0.12939453125;0.10498046875;-14.875;0.125;9.125;
1441975806405147;-0.484375;0.46417236328125;0.612060546875;0.41864013671875;16.899854873033824;11.923294560633147;17.039311382635223;-0.9453125;0.12744140625;0.107421875;-13.25;0.375;9.625;
1441975806427149;-0.4847412109375;0.46343994140625;0.61376953125;0.41650390625;16.885689702983207;11.934276489182972;17.064686982368197;-0.953125;0.14306640625;0.1025390625;-12.6875;0.0;10.0;
1441975806444150;-0.4852294921875;0.46246337890625;0.615478515625;0.41448974609375;16.87345040821734;11.938241068604071;17.083747169688472;-0.97705078125;0.14794921875;0.0859375;-14.0;-0.375;9.8125;
1441975806468151;-0.48553466796875;0.46173095703125;0.61688232421875;0.41290283203125;16.862666494245218;11.941010017519751;17.09823767870335;-0.9892578125;0.13623046875;0.08642578125;-14.625;-0.875;9.25;
1441975806487152;-0.48541259765625;0.4615478515625;0.61785888671875;0.41168212890625;16.8512753677725;11.949627742639956;17.11349628571413;-0.96923828125;0.12890625;0.091796875;-11.25;-1.125;8.625;
1441975806504153;-0.48516845703125;0.4617919921875;0.61859130859375;0.41070556640625;16.84036337568014;11.963849312796821;17.131290646346617;-0.95703125;0.14794921875;0.1005859375;-6.25;-0.5625;7.6875;
1441975806525154;-0.4852294921875;0.4617919921875;0.61932373046875;0.40948486328125;16.83165769899446;11.978808848014022;17.152154318093334;-0.9453125;0.1767578125;0.099609375;-3.5;0.25;5.8125;
1441975806547156;-0.48614501953125;0.4609375;0.62030029296875;0.40789794921875;16.829022564515565;11.985629159600599;17.171553986418733;-0.9423828125;0.1982421875;0.09521484375;-5.5625;1.5;3.6875;
1441975806564157;-0.4876708984375;0.4593505859375;0.62158203125;0.40594482421875;16.829786236530754;11.984979610787528;17.18930563915003;-0.9609375;0.1943359375;0.10302734375;-12.5;2.4375;1.6875;
1441975806585158;-0.48974609375;0.4573974609375;0.622802734375;0.40380859375;16.835707609133433;11.984004933631464;17.20971747965308;-0.939453125;0.1806640625;0.10546875;-18.0;3.8125;0.25;
1441975806607159;-0.492431640625;0.45501708984375;0.6239013671875;0.40142822265625;16.84763915805136;11.98358654787364;17.234061879661642;-0.93701171875;0.17333984375;0.1025390625;-21.0625;5.5;-0.875;
1441975806630160;-0.4954833984375;0.45257568359375;0.625;0.39874267578125;16.86160366880187;11.9898380341358;17.26716188407584;-0.9677734375;0.16064453125;0.09130859375;-24.3125;6.5625;-2.125;
1441975806645161;-0.498291015625;0.451171875;0.625732421875;0.3956298828125;16.871681268952667;12.0270933272309;17.327778274752752;-0.96875;0.1552734375;0.08740234375;-26.3125;8.3125;-1.875;
1441975806667162;-0.50048828125;0.45123291015625;0.62615966796875;0.39215087890625;16.872943799356218;12.099869690940281;17.418098119768594;-0.9423828125;0.13671875;0.1005859375;-21.875;13.5625;3.3125;
1441975806690164;-0.5018310546875;0.452880859375;0.62603759765625;0.388671875;16.865150602601943;12.203255103616323;17.53043021055625;-0.9169921875;0.15185546875;0.10400390625;-15.5625;17.125;8.625;
1441975806705165;-0.502685546875;0.45550537109375;0.62530517578125;0.3856201171875;16.85442060499716;12.319583721662966;17.6484504528691;-0.9013671875;0.20166015625;0.05859375;-7.1875;16.25;10.625;
1441975806727166;-0.5032958984375;0.458251953125;0.62506103515625;0.38201904296875;16.833899148949524;12.436188390450827;17.76873645619143;-0.89501953125;0.232421875;-0.02001953125;-1.0625;12.4375;10.125;
1441975806750167;-0.504150390625;0.46038818359375;0.6256103515625;0.37744140625;16.806054975205647;12.544516895733532;17.888456934463967;-0.861328125;0.296875;-0.0537109375;-3.4375;10.4375;9.6875;
1441975806765168;-0.5054931640625;0.461669921875;0.62664794921875;0.372314453125;16.777846478610975;12.639345926273977;0.0016483767270062935;-0.83544921875;0.32861328125;-0.02783203125;-11.0;12.125;10.125;
1441975806787169;-0.5064697265625;0.46319580078125;0.6275634765625;0.367431640625;16.74649018407292;12.727947798071657;0.10584075103529456;-0.82177734375;0.30517578125;0.0;-17.125;14.4375;11.75;
1441975806810171;-0.50628662109375;0.46649169921875;0.62744140625;0.36376953125;16.710186331805584;12.825481002655422;0.2038432922600757;-0.80419921875;0.24072265625;0.01123046875;-13.9375;14.1875;16.5;
1441975806825172;-0.50543212890625;0.47174072265625;0.6263427734375;0.36004638671875;16.663155301110162;12.952233735231903;0.32086677619662995;-0.81005859375;0.23388671875;-9.765625E-4;0.875;13.625;19.0625;
1441975806847173;-0.50439453125;0.4769287109375;0.62591552734375;0.35540771484375;16.603993408017736;13.068357276393126;0.43164272360687383;-0.830078125;0.2841796875;-0.0615234375;11.1875;14.1875;22.375;
1441975806870174;-0.50360107421875;0.48089599609375;0.62689208984375;0.349365234375;16.53517464330416;13.157324174373073;0.5278790857814899;-0.78125;0.30615234375;-0.0732421875;6.4375;13.625;26.0;
1441975806885175;-0.50299072265625;0.48480224609375;0.6282958984375;0.34228515625;16.457632885076414;13.242389286789164;0.6253231255030227;-0.72900390625;0.29931640625;-0.04248046875;-5.75;14.3125;29.75;
1441975806908176;-0.50286865234375;0.48809814453125;0.62982177734375;0.3349609375;16.382833557050777;13.317221287121953;0.7168527719282176;-0.68212890625;0.3056640625;-0.03466796875;-10.1875;17.8125;33.1875;
1441975806930178;-0.50225830078125;0.4915771484375;0.6314697265625;0.32763671875;16.302425435166448;13.380374161990174;0.7952463864724151;-0.654296875;0.244140625;-0.04833984375;-14.625;17.9375;35.4375;
1441975806945178;-0.50146484375;0.49560546875;0.63275146484375;0.32000732421875;16.21613394205;13.446803635568042;0.8748196218484026;-0.611328125;0.208984375;-0.0322265625;-12.75;17.25;39.6875;
1441975806969180;-0.50054931640625;0.5010986328125;0.6334228515625;0.31170654296875;16.11694208377348;13.52896930159764;0.9657609179582484;-0.572265625;0.1923828125;-0.0234375;-10.0625;20.6875;43.3125;
1441975806990181;-0.49993896484375;0.5064697265625;0.633544921875;0.30340576171875;16.020454993436484;13.610146364383395;1.055561499786251;-0.552734375;0.2626953125;-0.04541015625;-5.1875;25.5625;44.75;
1441975807005182;-0.49896240234375;0.510986328125;0.6341552734375;0.296142578125;15.931882918499008;13.664097875033102;1.1178399807788573;-0.5556640625;0.23828125;-0.09326171875;-5.75;25.25;44.875;
1441975807029183;-0.49627685546875;0.51702880859375;0.63397216796875;0.29052734375;15.83931728674402;13.712461232222411;1.1579032915501386;-0.5498046875;0.185546875;-0.07373046875;-5.8125;19.5;44.5;
1441975807050184;-0.49365234375;0.52392578125;0.63287353515625;0.284912109375;15.744053539538397;13.772902686943318;1.2050937925012706;-0.537109375;0.18212890625;-0.05419921875;10.0625;15.0625;47.0;
1441975807065185;-0.4912109375;0.52996826171875;0.632568359375;0.2786865234375;15.647306639566569;13.818924535620202;1.2451018913884737;-0.5390625;0.197265625;-0.07470703125;15.1875;17.9375;47.8125;
1441975807087186;-0.489013671875;0.53521728515625;0.63214111328125;0.2734375;15.564148490994107;13.85671203863893;1.276535711568519;-0.57861328125;0.27001953125;-0.06298828125;8.0625;18.3125;45.0;
1441975807110188;-0.48687744140625;0.5399169921875;0.631103515625;0.270263671875;15.502281796236785;13.889486914682415;1.2964702162580388;-0.62890625;0.26708984375;-0.076171875;8.0;15.25;40.9375;
1441975807125189;-0.48345947265625;0.54595947265625;0.62896728515625;0.26934814453125;15.446326334418863;13.924599587309688;1.3007970335302794;-0.68310546875;0.201171875;-0.05908203125;13.625;10.9375;36.5625;
1441975807147190;-0.4794921875;0.553466796875;0.6253662109375;0.2694091796875;15.389928585025611;13.97479120714842;1.3069923650517936;-0.71484375;0.18115234375;-0.03662109375;31.125;6.625;37.375;
1441975807170191;-0.47607421875;0.56085205078125;0.62176513671875;0.2686767578125;15.330437626314835;14.028598109812839;1.3211240514725968;-0.69287109375;0.173828125;-0.056640625;43.625;6.875;37.5625;
1441975807186192;-0.4732666015625;0.567626953125;0.61773681640625;0.268798828125;15.28523657115769;14.083706250853611;1.3361219410371978;-0.6982421875;0.25146484375;-0.05810546875;40.6875;11.9375;33.8125;
1441975807207193;-0.47027587890625;0.57403564453125;0.61328125;0.2703857421875;15.254022431601047;14.135557327370675;1.342611196290565;-0.7919921875;0.29150390625;-0.05517578125;41.875;12.5625;27.625;
1441975807230195;-0.46722412109375;0.57989501953125;0.60882568359375;0.27325439453125;15.236379311306191;14.181126894883478;1.3402020252378877;-0.90771484375;0.30810546875;-0.06640625;46.125;8.25;24.0;
1441975807246196;-0.4642333984375;0.58599853515625;0.60406494140625;0.27606201171875;15.217628188014665;14.230931125589104;1.3407607403757813;-0.9599609375;0.28125;-0.0654296875;47.6875;4.3125;21.625;
1441975807267197;-0.46234130859375;0.59124755859375;0.59930419921875;0.27825927734375;15.203949163725007;14.2842014330374;1.3523919058132408;-0.96142578125;0.31982421875;-0.05712890625;50.1875;6.875;19.75;
1441975807290198;-0.4609375;0.59490966796875;0.59527587890625;0.281494140625;15.209451036601173;14.324162637148428;1.355708988465833;-0.97607421875;0.3115234375;-0.07666015625;43.25;10.75;16.625;
1441975807306199;-0.45928955078125;0.5982666015625;0.59112548828125;0.28570556640625;15.224124313461003;14.360624151192187;1.352410036893264;-1.0439453125;0.275390625;-0.06689453125;37.625;6.3125;13.0;
1441975807327200;-0.45635986328125;0.60284423828125;0.58648681640625;0.29034423828125;15.230143069443645;14.39862984909977;1.3406551296844837;-1.07666015625;0.23828125;-0.06689453125;39.625;2.375;12.5625;
1441975807358202;-0.4544677734375;0.60748291015625;0.58148193359375;0.29376220703125;15.23064595574101;14.449052267696315;1.346823357879813;-1.0498046875;0.33984375;-0.04296875;50.5625;1.875;10.3125;
1441975807366202;-0.45367431640625;0.6104736328125;0.57769775390625;0.29620361328125;15.235619175582098;14.489124008914782;1.3572597869471412;-1.00439453125;0.345703125;-0.10302734375;45.1875;6.6875;8.25;
1441975807403205;-0.45263671875;0.6129150390625;0.57470703125;0.2984619140625;15.240056126849097;14.518035788035448;1.360349174526393;-0.96728515625;0.32373046875;-0.09814453125;31.3125;8.125;5.625;
1441975807413205;-0.451416015625;0.615234375;0.57147216796875;0.3017578125;15.253725043707782;14.545970108966376;1.3584315184785352;-0.97900390625;0.365234375;-0.0771484375;28.1875;7.0625;4.3125;
1441975807432206;-0.4500732421875;0.61798095703125;0.56768798828125;0.3052978515625;15.267158524221156;14.579981537690022;1.3586555724901157;-1.03515625;0.4013671875;-0.11181640625;30.6875;1.5625;0.125;
1441975807447207;-0.450439453125;0.6197509765625;0.56378173828125;0.30828857421875;15.288975912447867;14.623136031828317;1.3772011713068983;-1.0625;0.4453125;-0.14208984375;34.75;1.5625;-2.0625;
1441975807471208;-0.45135498046875;0.620849609375;0.55975341796875;0.3121337890625;15.324459759023418;14.667560515116437;1.3976847074329761;-1.10107421875;0.43359375;-0.18505859375;26.75;5.4375;-7.875;
1441975807486209;-0.45159912109375;0.6220703125;0.5552978515625;0.3172607421875;15.36797461030365;14.7111485327403;1.4099786682344098;-1.0888671875;0.41259765625;-0.17724609375;26.3125;4.0625;-14.0625;
1441975807507211;-0.45111083984375;0.624267578125;0.54962158203125;0.32354736328125;15.413977090109235;14.765323843115704;1.4208860481467307;-1.09033203125;0.44189453125;-0.16552734375;33.3125;-0.4375;-19.0;
1441975807530212;-0.45037841796875;0.62689208984375;0.5439453125;0.3289794921875;15.448696467117074;14.821712095321605;1.4346679808454095;-1.15185546875;0.47998046875;-0.20654296875;45.0;-2.9375;-21.3125;
1441975807546213;-0.4498291015625;0.6295166015625;0.5384521484375;0.33367919921875;15.477182836717109;14.879352955224087;1.4530003090803194;-1.15380859375;0.4931640625;-0.2529296875;43.75;-2.875;-18.4375;
1441975807567214;-0.4490966796875;0.63177490234375;0.53271484375;0.339599609375;15.51806940629604;14.936157619565513;1.4667738035765685;-1.15673828125;0.4716796875;-0.28466796875;39.875;-1.5625;-15.625;
1441975807598216;-0.4464111328125;0.63507080078125;0.52655029296875;0.346435546875;15.554072434983395;14.98666290973908;1.461613387459228;-1.23046875;0.41552734375;-0.2724609375;43.3125;-4.25;-15.1875;
1441975807606216;-0.4439697265625;0.63861083984375;0.519775390625;0.35333251953125;15.590430234681463;15.047250849994738;1.4646442212292465;-1.19140625;0.51171875;-0.2734375;55.5625;-11.125;-17.6875;
1441975807630218;-0.44244384765625;0.64190673828125;0.51324462890625;0.35882568359375;15.618448869792742;15.11384340314943;1.4819509211281727;-1.18701171875;0.5302734375;-0.28955078125;58.375;-9.3125;-21.0625;
1441975807668220;-0.4425048828125;0.6439208984375;0.50738525390625;0.3634033203125;15.65051608398834;15.182900659591825;1.5148155231717064;-1.2109375;0.5537109375;-0.326171875;51.3125;-3.875;-22.375;
1441975807670220;-0.44366455078125;0.64556884765625;0.5015869140625;0.3670654296875;15.679117948098183;15.26111940300964;1.5640074135603221;-1.18798828125;0.4658203125;-0.359375;37.6875;-2.375;-22.875;
1441975807704222;-0.44256591796875;0.64599609375;0.498779296875;0.37139892578125;15.713575897209916;15.282707183717159;1.5603629821723217;-1.22900390625;0.2978515625;-0.4052734375;28.75;1.125;-14.4375;
1441975807710222;-0.43896484375;0.64935302734375;0.4945068359375;0.37554931640625;15.721146354269052;15.310299369021845;1.542996497979009;-1.248046875;0.40869140625;-0.28857421875;24.875;-9.8125;-12.0;
1441975807729223;-0.4371337890625;0.65386962890625;0.48980712890625;0.37603759765625;15.693055914096897;15.363845536861497;1.5626418243800704;-1.1259765625;0.49365234375;-0.279296875;45.4375;-7.5625;-6.3125;
1441975807749224;-0.43658447265625;0.65679931640625;0.48828125;0.37347412109375;15.649788977203666;15.38726611176002;1.578665268967199;-1.12744140625;0.47265625;-0.40869140625;34.1875;6.75;0.625;
1441975807770226;-0.43609619140625;0.65875244140625;0.487548828125;0.3717041015625;15.619949152107345;15.39832445410451;1.5854560910469981;-1.205078125;0.5439453125;-0.39404296875;9.3125;13.1875;4.6875;
1441975807786226;-0.43701171875;0.66107177734375;0.4852294921875;0.36944580078125;15.587045281628608;15.439263418198747;1.6218953529663591;-1.17578125;0.509765625;-0.29443359375;7.125;12.875;3.5625;
1441975807808228;-0.4378662109375;0.66595458984375;0.4803466796875;0.36602783203125;15.526230653580114;15.513858860547895;1.6799879781535862;-1.1767578125;0.45361328125;-0.24658203125;10.5;27.3125;0.6875;
1441975807830229;-0.43994140625;0.67132568359375;0.47650146484375;0.35870361328125;15.42800150917332;15.583473309116332;1.7495024105905168;-1.22998046875;0.482421875;-0.3251953125;23.4375;40.375;5.0;
1441975807846230;-0.4512939453125;0.6666259765625;0.48529052734375;0.34112548828125;15.323819108891335;15.556681636481732;1.8470599995500128;-1.123046875;0.67236328125;-0.50390625;8.75;45.5;0.4375;
1441975807867231;-0.45947265625;0.658447265625;0.49908447265625;0.3258056640625;15.25942919592509;15.448340324475986;1.872564769831874;-1.3291015625;1.03466796875;-0.26318359375;-110.5;69.3125;2.125;
1441975807890232;-0.47662353515625;0.64459228515625;0.5145263671875;0.3043212890625;15.197969220805637;15.369842543694736;1.994559139866742;-1.21875;0.66796875;0.0166015625;-128.0;35.9375;14.25;
1441975807906233;-0.48748779296875;0.63116455078125;0.5350341796875;0.27862548828125;15.086132589524798;15.199003998858428;2.032891635144475;-1.37451171875;0.634765625;-0.34130859375;-185.625;65.25;-11.75;
1441975807927235;-0.49273681640625;0.61968994140625;0.5546875;0.255859375;14.974394612781472;15.011460746008433;2.022212078588065;-1.599609375;0.60400390625;-0.20849609375;-203.0625;51.8125;36.5625;
1441975807961236;-0.48980712890625;0.62786865234375;0.5491943359375;0.25341796875;14.889864138909683;15.064642039966536;2.0341631794463138;-1.26953125;0.25048828125;-0.3115234375;-179.75;26.4375;55.875;
1441975807967237;-0.48297119140625;0.63702392578125;0.54571533203125;0.25128173828125;14.791569107601077;15.078650090038341;1.9974780523926081;-1.18310546875;0.4091796875;-0.5751953125;32.6875;14.0;45.25;
1441975807987238;-0.47698974609375;0.64129638671875;0.55096435546875;0.24005126953125;14.64625157972424;15.00816168231161;1.9472478583323753;-1.16748046875;0.90234375;-0.56982421875;44.9375;-1.8125;35.0625;
1441975808010239;-0.4737548828125;0.63665771484375;0.56463623046875;0.2265625;14.54416185149462;14.862076841975652;1.888383564435367;-1.1103515625;0.70166015625;-0.57861328125;-34.0;1.5;72.5;
1441975808026240;-0.46826171875;0.6336669921875;0.57794189453125;0.2122802734375;14.41331962411614;14.71845615279726;1.8225987384079123;-1.181640625;0.53564453125;-0.27490234375;-97.3125;1.5;71.4375;
1441975808047241;-0.463134765625;0.63299560546875;0.5875244140625;0.198974609375;14.27633888261937;14.619096288771553;1.7816828336728696;-1.09130859375;0.52978515625;-0.05615234375;-83.25;10.0;86.0625;
1441975808070243;-0.4586181640625;0.63299560546875;0.59552001953125;0.18511962890625;14.13200423662267;14.540910837792826;1.7594117397291376;-1.052734375;0.5556640625;-0.0888671875;-61.1875;17.125;82.5625;
1441975808087244;-0.4552001953125;0.62945556640625;0.60711669921875;0.16717529296875;13.974790145111267;14.433721689585235;1.7471006372682785;-0.9541015625;0.56689453125;-0.142578125;-57.6875;21.0;80.125;
1441975808107245;-0.453125;0.62652587890625;0.61688232421875;0.1466064453125;13.797336319211128;14.350467910386179;1.765473729322672;-0.8955078125;0.63134765625;-0.0771484375;-91.8125;28.3125;80.9375;
1441975808130246;-0.45172119140625;0.62646484375;0.622314453125;0.126953125;13.616678344454796;14.309647538371134;1.8047460339851598;-0.8505859375;0.58837890625;-0.11865234375;-94.5;44.1875;88.1875;
1441975808146247;-0.44866943359375;0.632080078125;0.62237548828125;0.108154296875;13.40503974553728;14.315341891222893;1.8503792681122375;-0.79296875;0.5263671875;-0.20947265625;-72.1875;51.6875;89.375;
1441975808169248;-0.44512939453125;0.63934326171875;0.6202392578125;0.0911865234375;13.197694219094963;14.336123781969738;1.8922567465422466;-0.71142578125;0.80859375;-0.33447265625;-31.3125;54.375;87.6875;
1441975808190250;-0.4404296875;0.64361572265625;0.621826171875;0.0712890625;12.975652000398624;14.317750474004749;1.9236706338595937;-0.62353515625;0.83056640625;-0.4990234375;-20.1875;44.1875;82.75;
1441975808215251;-0.43408203125;0.64508056640625;0.62640380859375;0.05450439453125;12.789358583584342;14.26871397410292;1.927496399519555;-0.49267578125;0.86279296875;-0.45458984375;-49.3125;41.25;86.75;
1441975808229252;-0.426513671875;0.64459228515625;0.63299560546875;0.04229736328125;12.648124818669839;14.201635117897894;1.9060637287777233;-0.44384765625;0.71728515625;-0.24755859375;-54.125;23.9375;81.4375;
1441975808250253;-0.41851806640625;0.64892578125;0.63458251953125;0.03033447265625;12.479264925649076;14.178444495881433;1.8962030216863388;-0.4462890625;0.61767578125;-0.0634765625;-49.25;5.0;71.3125;
1441975808266254;-0.41064453125;0.6563720703125;0.63250732421875;0.0203857421875;12.311139050197339;14.187137646940796;1.8897381144091667;-0.42431640625;0.7392578125;-0.11767578125;-14.0625;13.3125;78.0;
1441975808289255;-0.4019775390625;0.662109375;0.63232421875;0.0113525390625;12.15623555979029;14.178847047008801;1.8719228313476137;-0.4384765625;0.765625;-0.2236328125;10.125;12.125;78.625;
1441975808310256;-0.39288330078125;0.666748046875;0.63323974609375;0.00103759765625;11.993453900052033;14.160161774303255;1.854613694206534;-0.49169921875;0.7548828125;-0.15673828125;2.625;4.8125;79.625;
1441975808326257;-0.3863525390625;0.6700439453125;0.6336669921875;-0.01153564453125;11.830917162724976;14.145104607591815;1.8605405775077475;-0.42529296875;0.77099609375;-0.1240234375;-6.3125;6.0;80.6875;
1441975808349259;-0.37957763671875;0.67303466796875;0.63433837890625;-0.02325439453125;11.676087642778304;14.127876217293899;1.862449412631659;-0.37109375;0.9951171875;-0.16357421875;-14.0625;23.0;67.0;
1441975808370260;-0.3682861328125;0.67523193359375;0.637939453125;-0.03753662109375;11.478523981821883;14.08209649821712;1.845649209812779;-0.36962890625;0.99658203125;-0.2607421875;-20.6875;15.375;66.375;
1441975808386261;-0.35589599609375;0.67913818359375;0.63970947265625;-0.05255126953125;11.258209687666948;14.049184854168862;1.8307481596936892;-0.16064453125;0.796875;-0.13818359375;-37.0;3.8125;86.1875;
1441975808409262;-0.34246826171875;0.6846923828125;0.6395263671875;-0.06939697265625;11.006212093293428;14.028468545520886;1.8214366823568044;0.06591796875;0.65869140625;0.05810546875;-23.9375;8.5;105.3125;
1441975808430263;-0.32501220703125;0.68927001953125;0.6412353515625;-0.08978271484375;10.704114788513998;13.986202233551127;1.8045388068197319;0.1064453125;0.826171875;0.0830078125;-13.5625;15.125;118.9375;
1441975808446264;-0.30072021484375;0.69195556640625;0.646240234375;-0.11444091796875;10.331523767305521;13.909176212343402;1.7714358024710453;0.15771484375;0.900390625;0.107421875;-32.5625;11.0625;144.3125;
1441975808469266;-0.27239990234375;0.6954345703125;0.64996337890625;-0.140380859375;9.91401573425481;13.836412846833895;1.7325717319378262;0.27490234375;0.72265625;0.1767578125;-63.75;-2.5;181.5625;
1441975808499267;-0.2421875;0.69903564453125;0.65179443359375;-0.1668701171875;9.472754656995784;13.772417009984983;1.6959868852221753;0.38525390625;0.6533203125;0.24072265625;-59.9375;-10.875;203.6875;
1441975808529269;-0.20941162109375;0.70025634765625;0.65423583984375;-0.1943359375;9.01053797258315;13.696165236977762;1.6600091452446701;0.427734375;0.7060546875;0.20361328125;-54.875;-12.8125;215.0;
1441975808530269;-0.17327880859375;0.69927978515625;0.65655517578125;-0.22332763671875;8.513510813260572;13.609510656540683;1.6258634802800307;0.3603515625;0.72314453125;0.171875;-70.875;-17.375;227.0;
1441975808551270;-0.1357421875;0.695556640625;0.6591796875;-0.25152587890625;8.015737057654048;13.512915009371799;1.5942116584670702;0.35009765625;0.7451171875;0.12060546875;-85.5;-21.25;245.1875;
1441975808573271;-0.09796142578125;0.68896484375;0.66253662109375;-0.27703857421875;7.540765137949461;13.406921439478664;1.5626878316303852;0.36279296875;0.71142578125;0.10693359375;-98.8125;-26.5625;245.5625;
1441975808589272;-0.05987548828125;0.68023681640625;0.66632080078125;-0.2994384765625;7.087679066693903;13.295636069411172;1.528501944610291;0.2646484375;0.7099609375;0.0830078125;-111.5625;-34.375;235.75;
1441975808610274;-0.02215576171875;0.67138671875;0.6689453125;-0.31805419921875;6.657966667274394;13.195326711670962;1.4874411398428469;0.14697265625;0.65771484375;0.0849609375;-120.75;-44.625;226.3125;
1441975808626275;0.013427734375;0.66455078125;0.6695556640625;-0.3314208984375;6.270996627652318;13.1238820474072;1.4320961997149066;0.06591796875;0.58203125;0.0361328125;-115.5;-57.375;213.6875;
1441975808649276;0.04437255859375;0.66217041015625;0.66796875;-0.33673095703125;5.965396345746307;13.10326678110458;1.3473723731819707;0.0947265625;0.55419921875;0.037109375;-95.75;-73.0625;189.0625;
1441975808670277;0.070556640625;0.66168212890625;0.6676025390625;-0.333740234375;5.759277169097863;13.110996702789924;1.2331111355248734;0.11181640625;0.4892578125;-0.029296875;-63.1875;-93.625;144.0625;
1441975808692278;0.09002685546875;0.663330078125;0.66888427734375;-0.32318115234375;5.668740727945166;13.143437628853931;1.099497597669059;0.1669921875;0.4814453125;-0.04931640625;-53.5625;-109.75;90.75;
1441975808709279;0.10272216796875;0.66790771484375;0.6705322265625;-0.30596923828125;5.687008222884042;13.203258756083537;0.9517978219650353;0.14599609375;0.427734375;-0.080078125;-42.0625;-116.375;32.125;
1441975808730280;0.1094970703125;0.67510986328125;0.67242431640625;-0.282958984375;5.804029693966906;13.282138934899919;0.7959240196769772;0.0263671875;0.38671875;-0.04296875;-22.3125;-121.25;-19.9375;
1441975808752282;0.1109619140625;0.68450927734375;0.6741943359375;-0.2540283203125;6.017040262075649;13.373792752416726;0.6347092784545708;-0.046875;0.37890625;0.02685546875;-5.1875;-125.75;-65.8125;
1441975808775283;0.10687255859375;0.6968994140625;0.6744384765625;-0.2191162109375;6.328355038118263;13.481434111994535;0.4723301392012319;-0.0439453125;0.4111328125;0.07421875;9.4375;-132.625;-110.375;
1441975808790284;0.09661865234375;0.70916748046875;0.674072265625;-0.18243408203125;6.710498299859208;13.576510601912517;0.3395107006907028;-0.0439453125;0.4248046875;0.08251953125;31.75;-140.0;-155.5;
1441975808812285;0.08062744140625;0.7198486328125;0.67401123046875;-0.144775390625;7.150986926194384;13.649397355503236;0.23917653980548134;-0.052734375;0.45263671875;0.07568359375;40.6875;-122.9375;-186.0;
1441975808835286;0.0601806640625;0.72747802734375;0.67535400390625;-0.104736328125;7.648545185361065;13.693956409907923;0.15892737854563022;-0.095703125;0.529296875;0.05126953125;38.5625;-103.0;-211.9375;
1441975808850287;0.0355224609375;0.73291015625;0.67657470703125;-0.06158447265625;8.204797999025335;13.72259524158638;0.09045094072010722;-0.12744140625;0.59619140625;0.0498046875;23.75;-92.0;-239.3125;
1441975808872289;0.00579833984375;0.73748779296875;0.67510986328125;-0.0146484375;8.83130959366174;13.752370502562313;0.03217821678280652;-0.14208984375;0.619140625;0.06787109375;17.6875;-87.6875;-268.9375;
1441975808890290;-0.02740478515625;0.74267578125;0.66815185546875;0.0345458984375;9.50450684071365;13.801679990047475;17.984301921585352;-0.1396484375;0.63916015625;0.12890625;27.875;-84.0;-304.8125;
1441975808921291;-0.06292724609375;0.74102783203125;0.66339111328125;0.08184814453125;10.181902630872266;13.811764787122389;17.955115103253195;-0.240234375;0.6103515625;0.14013671875;54.4375;-79.875;-327.625;
1441975808932292;-0.1014404296875;0.7347412109375;0.6588134765625;0.12554931640625;10.85525677775356;13.80379044681838;17.950550372329705;-0.42431640625;0.70654296875;0.0556640625;16.375;-63.9375;-329.3125;
1441975808949293;-0.14141845703125;0.72637939453125;0.65069580078125;0.16998291015625;11.553212547172027;13.803235587775337;17.949934806543194;-0.58349609375;0.7529296875;-0.16162109375;-8.0;-40.5625;-329.375;
1441975808970294;-0.17962646484375;0.71392822265625;0.6414794921875;0.21551513671875;12.256328761284482;13.786087254385532;17.931948743209865;-0.7216796875;0.65087890625;-0.291015625;-3.9375;-38.0;-341.125;
1441975808992295;-0.2161865234375;0.700439453125;0.6282958984375;0.2603759765625;12.952946051471294;13.778292412413006;17.909589414275974;-0.86279296875;0.57421875;-0.1689453125;-10.125;-52.125;-341.3125;
1441975809016297;-0.25115966796875;0.68701171875;0.6097412109375;0.3050537109375;13.651064190747208;13.792852208008929;17.887952201616187;-0.876953125;0.54052734375;-0.18017578125;3.5625;-53.1875;-339.6875;
1441975809046299;-0.282958984375;0.6708984375;0.5904541015625;0.34808349609375;14.324781918125732;13.78955088596126;17.849680350461707;-1.08447265625;0.43310546875;-0.2255859375;26.875;-51.9375;-338.625;
1441975809052299;-0.31292724609375;0.64990234375;0.57330322265625;0.38861083984375;14.976074237934826;13.731214168742431;17.778841240293886;-1.29345703125;0.46484375;-0.28955078125;23.375;-61.5;-326.125;
1441975809069300;-0.34271240234375;0.62738037109375;0.55535888671875;0.4248046875;15.60273385505285;13.656443807005576;17.704618216822738;-1.27099609375;0.35693359375;-0.11376953125;-0.0625;-69.375;-315.25;
1441975809091301;-0.36871337890625;0.607421875;0.53485107421875;0.45709228515625;16.176750470990154;13.590780104562153;17.62325494194271;-1.326171875;0.1689453125;0.04638671875;-8.25;-54.0625;-304.125;
1441975809112302;-0.39068603515625;0.59027099609375;0.51287841796875;0.485595703125;16.69338218108683;13.527982046922956;17.530497193558805;-1.44970703125;0.05712890625;0.02978515625;10.25;-41.0;-278.8125;
1441975809129303;-0.40887451171875;0.5750732421875;0.49078369140625;0.51104736328125;17.156806986838056;13.418896167207537;17.382468097598316;-1.5380859375;0.03662109375;-0.04833984375;26.4375;-31.0;-252.375;
1441975809151305;-0.4263916015625;0.55804443359375;0.470458984375;0.53424072265625;17.594074039992588;12.949388822232802;16.88825304637272;-1.560546875;0.150390625;-0.177734375;35.9375;-28.5;-230.75;
1441975809172306;-0.44244384765625;0.541259765625;0.449951171875;0.5556640625;17.868376283871335;8.419903399687772;12.332888080583665;-1.59130859375;0.12451171875;-0.197265625;21.625;-33.25;-222.875;
1441975809189307;-0.4554443359375;0.52691650390625;0.42852783203125;0.5755615234375;17.549398757489712;5.61601717235259;9.488297759845912;-1.53759765625;0.08935546875;-0.12158203125;23.25;-29.5;-214.5625;
1441975809211308;-0.464599609375;0.51519775390625;0.40643310546875;0.59454345703125;17.20215919786572;5.28137247571763;9.0941992216212;-1.50830078125;0.0810546875;-0.115234375;38.75;-22.375;-199.75;
1441975809232309;-0.4710693359375;0.50482177734375;0.38433837890625;0.61273193359375;16.876354436066688;5.188926448687326;8.932074566510293;-1.4873046875;0.17041015625;-0.1357421875;57.375;-19.0625;-184.375;
1441975809249310;-0.4769287109375;0.494140625;0.3638916015625;0.62921142578125;16.56910767251692;5.163018829720049;8.844475805957435;-1.47412109375;0.27734375;-0.16064453125;67.5;-19.0;-174.125;
1441975809279312;-0.48309326171875;0.482177734375;0.3450927734375;0.6441650390625;16.26905995945842;5.16225078740258;8.794909673877203;-1.439453125;0.3642578125;-0.1787109375;60.125;-21.375;-166.125;
1441975809294313;-0.4888916015625;0.4693603515625;0.32733154296875;0.65838623046875;15.974537452587073;5.17919301887534;8.76876216372846;-1.39501953125;0.35791015625;-0.15771484375;47.125;-25.4375;-161.9375;
1441975809309314;-0.49176025390625;0.45721435546875;0.30908203125;0.6734619140625;15.690593248771869;5.225032889667015;8.755974019632824;-1.32080078125;0.24560546875;-0.13134765625;41.9375;-29.875;-157.25;
1441975809331315;-0.48992919921875;0.44757080078125;0.28955078125;0.68975830078125;15.431485131100358;5.298575834278191;8.741094207356857;-1.2158203125;0.12744140625;-0.111328125;58.125;-33.75;-148.8125;
1441975809352316;-0.48529052734375;0.440185546875;0.27044677734375;0.705322265625;15.207140758081069;5.378363260430108;8.719806508773926;-1.0869140625;0.12646484375;-0.08251953125;87.5;-31.5;-136.375;
1441975809369317;-0.48211669921875;0.43255615234375;0.2542724609375;0.71820068359375;15.005388758926355;5.440326087724973;8.701914065971389;-0.97705078125;0.23583984375;-0.10400390625;98.9375;-26.875;-121.75;
1441975809391318;-0.478759765625;0.42803955078125;0.2437744140625;0.7266845703125;14.882411717055913;5.48839643738269;8.691901025923352;-0.9111328125;0.2509765625;-0.13671875;78.0625;-27.8125;-109.6875;
1441975809412319;-0.47393798828125;0.42437744140625;0.23431396484375;0.73504638671875;14.778474149134448;5.54685479654498;8.688786415010984;-0.87890625;0.14306640625;-0.0849609375;57.5625;-31.0;-98.4375;
1441975809429320;-0.469482421875;0.42169189453125;0.2265625;0.74188232421875;14.69779784642867;5.596285264317793;8.685052860609323;-0.7626953125;0.1552734375;-0.06396484375;61.375;-30.125;-85.1875;
1441975809451322;-0.46771240234375;0.41943359375;0.2213134765625;0.745849609375;14.63804027724286;5.6178320984061765;8.677392440415622;-0.61474609375;0.23583984375;-0.07568359375;51.75;-25.8125;-73.75;
1441975809472323;-0.46734619140625;0.418212890625;0.2186279296875;0.74755859375;14.606415866982688;5.623324725000644;8.670705050089538;-0.52099609375;0.22802734375;-0.09033203125;27.6875;-19.8125;-60.6875;
1441975809490324;-0.4656982421875;0.419189453125;0.2178955078125;0.74822998046875;14.613088004042345;5.633241005070843;8.668392949575672;-0.49462890625;0.2216796875;-0.1025390625;11.4375;-15.9375;-46.5625;
1441975809511325;-0.46527099609375;0.4207763671875;0.21966552734375;0.7470703125;14.642814805282683;5.631967653750079;8.671109679099208;-0.48486328125;0.31982421875;-0.14453125;12.125;-12.9375;-33.3125;
1441975809532326;-0.46551513671875;0.42376708984375;0.2232666015625;0.74420166015625;14.699594333617034;5.619087703267316;8.671984242610126;-0.45166015625;0.3583984375;-0.16015625;-3.0;-11.625;-22.0625;
1441975809556328;-0.46148681640625;0.42999267578125;0.22698974609375;0.74200439453125;14.795736224145296;5.632056536036199;8.675219464275033;-0.52099609375;0.2900390625;-0.126953125;-13.375;-4.375;-8.75;
1441975809571329;-0.45318603515625;0.44036865234375;0.232666015625;0.7392578125;14.954500946572443;5.670289965733877;8.687724409706753;-0.61328125;0.255859375;-0.13623046875;11.0;0.0;9.0625;
1441975809592330;-0.44891357421875;0.44952392578125;0.24072265625;0.7337646484375;15.11466748461539;5.67725237440608;8.70067216835874;-0.64013671875;0.50048828125;-0.22705078125;28.25;2.8125;25.0625;
1441975809609331;-0.44329833984375;0.45892333984375;0.24969482421875;0.72833251953125;15.28644203738868;5.701315239934965;8.728497088151377;-0.6435546875;0.35302734375;-0.25537109375;-1.375;2.0;34.625;
1441975809631332;-0.43267822265625;0.4725341796875;0.25860595703125;0.722900390625;15.509564120918217;5.757536564587611;8.761488071286951;-0.66748046875;0.2509765625;-0.15673828125;0.875;4.4375;48.9375;
1441975809656333;-0.41961669921875;0.49237060546875;0.27093505859375;0.7127685546875;15.83283031956447;5.809161300144992;8.790457303593524;-0.669921875;0.30712890625;-0.15625;27.0;15.125;70.5625;
1441975809668334;-0.41162109375;0.5067138671875;0.2850341796875;0.70172119140625;16.1074248404793;5.852381683708435;8.848699751471887;-0.7939453125;0.5537109375;-0.34375;26.8125;28.875;96.1875;
1441975809690335;-0.40264892578125;0.52252197265625;0.302001953125;0.68817138671875;16.424429825091686;5.925858485481191;8.945895664058163;-0.98095703125;0.5263671875;-0.40234375;-10.5625;34.1875;118.375;
1441975809713337;-0.38848876953125;0.54278564453125;0.32080078125;0.67193603515625;16.816365450725733;6.1029870095469505;9.131100286566886;-1.08056640625;0.31884765625;-0.28076171875;-18.6875;40.875;143.9375;
1441975809728338;-0.37408447265625;0.56622314453125;0.34393310546875;0.64892578125;17.286245154664538;6.469551093157759;9.527386517614863;-1.166015625;0.4248046875;-0.2529296875;-3.0625;54.4375;180.625;
1441975809750339;-0.3663330078125;0.585693359375;0.37701416015625;0.61688232421875;17.732836668796914;8.359157669692891;11.531299914568283;-1.6015625;0.5537109375;-0.34814453125;-24.5;75.6875;216.25;
1441975809773340;-0.3572998046875;0.6025390625;0.417236328125;0.57891845703125;17.47779650880622;12.913058388591756;16.23785027312057;-2.2841796875;0.2265625;-0.2646484375;-109.0625;83.5;249.0625;
1441975809788341;-0.330322265625;0.62921142578125;0.44854736328125;0.54193115234375;16.80705606107486;13.640542466728068;17.00313597850402;-2.583984375;-0.5009765625;0.26318359375;-146.5;83.0625;290.25;
1441975809810342;-0.29241943359375;0.66131591796875;0.47210693359375;0.504150390625;16.056261503204645;13.89553486062245;17.221955204519965;-2.36376953125;-0.64794921875;0.29296875;-30.625;87.625;340.8125;
1441975809833344;-0.256591796875;0.689453125;0.50091552734375;0.4559326171875;15.234659160828635;14.011299056545727;17.359187268101564;-2.166015625;0.08447265625;0.10693359375;44.625;97.75;379.5625;
1441975809848344;-0.22894287109375;0.70245361328125;0.5413818359375;0.4012451171875;14.425701545895963;13.951924307020699;17.443229396329265;-2.27978515625;0.494140625;-0.177734375;-10.875;119.5;408.125;
1441975809870346;-0.195068359375;0.713623046875;0.5732421875;0.35211181640625;13.657430783862399;13.896045827053989;17.47490802375843;-2.359375;0.30322265625;-0.01025390625;-130.9375;115.625;411.625;
1441975809893347;-0.156005859375;0.7332763671875;0.58404541015625;0.31109619140625;12.968138601961147;13.964171809297223;17.496342851457584;-2.13720703125;0.19873046875;0.0185546875;-79.5625;80.6875;400.125;
1441975809908348;-0.12115478515625;0.75372314453125;0.583740234375;0.2763671875;12.392488686539494;14.07581462310845;17.514214191793503;-1.990234375;0.509765625;-0.0205078125;54.375;71.25;359.6875;
1441975809930349;-0.10455322265625;0.75823974609375;0.598388671875;0.23663330078125;11.894786917766545;14.06614529374604;17.590512054394313;-1.904296875;1.0029296875;-0.03857421875;103.125;70.875;297.9375;
1441975809953350;-0.1077880859375;0.740234375;0.63427734375;0.19500732421875;11.51810202457163;13.878574443101543;17.72159078449354;-1.8583984375;0.93798828125;-0.16845703125;-48.9375;117.5;250.9375;
1441975809968351;-0.1236572265625;0.70556640625;0.6805419921875;0.15380859375;11.266777291022716;13.581733450057193;17.891770122009024;-1.71630859375;0.63037109375;-0.0556640625;-246.8125;150.5625;188.625;
1441975809992353;-0.135009765625;0.65972900390625;0.73028564453125;0.11456298828125;11.038845431727365;13.215361139198198;0.03304882733810416;-1.794921875;0.33056640625;-0.177734375;-368.1875;166.625;139.5;
