1441975940778833;0.1483154296875;-0.68505859375;-0.7099609375;-0.06854248046875;10.77277090185251;13.447547196746733;0.3191041650132067;-2.99609375;-0.45849609375;-0.458984375;-329.5;74.875;210.3125;
1441975940801835;0.13946533203125;-0.66314697265625;-0.7340087890625;-0.045654296875;10.538303350467292;13.257157720541322;0.35131563601333377;-2.3369140625;-0.75537109375;-0.14111328125;-309.5625;46.5;151.3125;
1441975940815835;0.13470458984375;-0.64862060546875;-0.74847412109375;-0.03167724609375;10.404722731621478;13.13771093028859;0.3770647785486026;-1.56201171875;-0.40087890625;-0.10986328125;-199.9375;24.9375;118.625;
1441975940838837;0.13372802734375;-0.635986328125;-0.75958251953125;-0.0272216796875;10.375460192949982;13.039886671808663;0.3808084352433904;-1.06298828125;-0.31103515625;-0.01806640625;-125.3125;15.5625;88.125;
1441975940869838;0.13079833984375;-0.6304931640625;-0.7647705078125;-0.02490234375;10.33815277942663;12.994289780478876;0.37454727079360467;-0.6201171875;-0.5048828125;0.279296875;-75.0625;0.375;63.5;
1441975940875839;0.1275634765625;-0.6278076171875;-0.7674560546875;-0.026611328125;10.324919352951582;12.969380036202493;0.35203355779082857;-0.33154296875;-0.24658203125;0.3515625;-18.4375;-7.25;43.25;
1441975940898840;0.12347412109375;-0.6181640625;-0.7757568359375;-0.02960205078125;10.318869508543374;12.89137980723203;0.31464923389120997;-0.400390625;0.208984375;0.20361328125;-9.0;-24.5625;25.75;
1441975940921841;0.1214599609375;-0.6024169921875;-0.7882080078125;-0.0340576171875;10.344336848346638;12.771253460011826;0.27329006694340907;-0.25;0.4140625;0.18701171875;-63.125;-36.5;5.6875;
1441975940935842;0.1197509765625;-0.58953857421875;-0.79779052734375;-0.04071044921875;10.383151761913023;12.673630824147102;0.22515699081925122;-0.3134765625;0.25048828125;0.23779296875;-99.1875;-37.4375;-5.0625;
1441975940958844;0.1165771484375;-0.58197021484375;-0.80340576171875;-0.04876708984375;10.41257309167321;12.61287696934104;0.16943606723202767;-0.39990234375;0.2421875;0.28466796875;-72.9375;-42.6875;-9.375;
1441975940983845;0.1134033203125;-0.578125;-0.8060302734375;-0.0570068359375;10.44018611739708;12.579660850919545;0.11604358484140112;-0.36474609375;0.44189453125;0.306640625;-36.75;-49.75;-13.9375;
1441975940997846;0.1107177734375;-0.574951171875;-0.80816650390625;-0.0648193359375;10.468185804432787;12.551507258276198;0.0667619499505562;-0.322265625;0.62939453125;0.26220703125;-16.875;-47.125;-19.3125;
1441975941018847;0.10760498046875;-0.57330322265625;-0.8092041015625;-0.07086181640625;10.479591949726933;12.53501867608897;0.025768274230029746;-0.30810546875;0.587890625;0.23876953125;-13.5625;-43.25;-19.5625;
1441975941040848;0.10498046875;-0.5726318359375;-0.80963134765625;-0.075439453125;10.48540506357472;12.526336615200659;17.99429242208646;-0.28466796875;0.6455078125;0.23388671875;-5.625;-37.875;-11.8125;
1441975941058849;0.103759765625;-0.56854248046875;-0.812255859375;-0.079833984375;10.502857560559939;12.494448342209171;17.96527647206873;-0.24462890625;0.8642578125;0.177734375;-8.875;-30.0625;-12.625;
1441975941078850;0.103271484375;-0.56097412109375;-0.8170166015625;-0.08477783203125;10.529859783739122;12.438358080413979;17.932683403644127;-0.2509765625;0.94482421875;0.19287109375;-34.1875;-25.875;-19.0;
1441975941117853;0.1024169921875;-0.55572509765625;-0.8201904296875;-0.08990478515625;10.553915247838047;12.39833135383781;17.899943461905746;-0.25439453125;0.8134765625;0.29541015625;-48.75;-25.25;-23.0625;
1441975941120853;0.10107421875;-0.5533447265625;-0.82147216796875;-0.0941162109375;10.567586546381847;12.378900450766587;17.87270823031775;-0.2666015625;0.77392578125;0.3271484375;-30.8125;-25.5;-20.5;
1441975941138854;0.10015869140625;-0.55145263671875;-0.82244873046875;-0.09765625;10.580902056646384;12.363437524964425;17.85057221265217;-0.25146484375;0.8076171875;0.33544921875;-12.0;-21.875;-15.875;
1441975941160855;0.10009765625;-0.5487060546875;-0.82391357421875;-0.10101318359375;10.600727852648253;12.34252600547721;17.831225959366442;-0.27001953125;0.8798828125;0.330078125;-11.6875;-17.875;-14.375;
1441975941175856;0.1007080078125;-0.54437255859375;-0.826171875;-0.104736328125;10.628597142549765;12.311016601360233;17.810599320076037;-0.310546875;0.888671875;0.33837890625;-18.375;-15.0;-14.5625;
1441975941198857;0.1024169921875;-0.53887939453125;-0.82904052734375;-0.10906982421875;10.66989106135874;12.271430508033724;17.789069594318633;-0.314453125;0.86865234375;0.3720703125;-26.4375;-13.8125;-18.25;
1441975941220858;0.10614013671875;-0.53265380859375;-0.8319091796875;-0.11419677734375;10.735089779443232;12.227772967381203;17.76887515667061;-0.33837890625;0.83203125;0.40283203125;-32.125;-11.75;-23.3125;
1441975941235859;0.1119384765625;-0.52587890625;-0.83465576171875;-0.1201171875;10.824887412918436;12.181142160209687;17.750013457384778;-0.37841796875;0.72021484375;0.4052734375;-33.8125;-6.0;-29.9375;
1441975941258861;0.1202392578125;-0.5189208984375;-0.83685302734375;-0.126708984375;10.943340179235083;12.134752258397077;17.73449311412527;-0.4287109375;0.60791015625;0.40283203125;-35.1875;-0.625;-35.9375;
1441975941280862;0.13134765625;-0.51239013671875;-0.8380126953125;-0.13446044921875;11.097030508859678;12.092661831840225;17.721158241154182;-0.49462890625;0.5166015625;0.38525390625;-34.3125;7.8125;-42.6875;
1441975941295863;0.1453857421875;-0.5047607421875;-0.83868408203125;-0.14398193359375;11.290484489005244;12.04431159364039;17.70484654551361;-0.53466796875;0.53125;0.3359375;-34.6875;16.375;-56.3125;
1441975941318864;0.16204833984375;-0.49578857421875;-0.8389892578125;-0.1552734375;11.520420348873884;11.987139561500825;17.683193623545986;-0.58203125;0.58251953125;0.32470703125;-42.375;24.0625;-75.125;
1441975941349866;0.1773681640625;-0.48773193359375;-0.83837890625;-0.1668701171875;11.739669153683273;11.93461755868591;17.65462659155413;-0.61376953125;0.51708984375;0.306640625;-48.0;29.3125;-91.6875;
1441975941364867;0.19384765625;-0.48333740234375;-0.8345947265625;-0.1796875;11.981848928770583;11.908283532826166;17.627342802261;-0.63525390625;0.3720703125;0.29052734375;-39.25;31.1875;-101.5625;
1441975941378868;0.21160888671875;-0.48431396484375;-0.82672119140625;-0.1929931640625;12.246561873703401;11.922954560510963;17.61129644079962;-0.65283203125;0.193359375;0.20263671875;-12.3125;39.6875;-109.375;
1441975941400869;0.23046875;-0.490478515625;-0.81463623046875;-0.20660400390625;12.532155631272392;11.981024707302788;17.610705442766307;-0.734375;0.12060546875;0.1767578125;24.5;53.6875;-111.875;
1441975941415870;0.25103759765625;-0.49786376953125;-0.80029296875;-0.22088623046875;12.843730358615108;12.055978592404783;17.620103015605736;-0.84521484375;0.2587890625;0.0869140625;57.4375;67.875;-115.125;
1441975941438871;0.2725830078125;-0.50457763671875;-0.78436279296875;-0.236572265625;13.178099141338032;12.133934720918951;17.63004998813812;-0.9580078125;0.37109375;0.03515625;67.1875;77.5625;-124.375;
1441975941460872;0.29461669921875;-0.5101318359375;-0.767333984375;-0.25347900390625;13.529130559327676;12.210873386728586;17.639016974679645;-1.04296875;0.4052734375;-0.00830078125;68.8125;79.1875;-136.6875;
1441975941475873;0.31549072265625;-0.51666259765625;-0.747802734375;-0.27264404296875;13.890020889265596;12.301494442999296;17.64276149397718;-1.111328125;0.3330078125;-0.02587890625;68.8125;78.125;-146.125;
1441975941498874;0.33465576171875;-0.5245361328125;-0.72515869140625;-0.2950439453125;14.264097064637694;12.407885178037791;17.636320580883986;-1.19970703125;0.33984375;0.02978515625;86.5625;73.0;-154.75;
1441975941520876;0.35369873046875;-0.52978515625;-0.70184326171875;-0.31884765625;14.654349250087122;12.500490171603158;17.620637670136986;-1.22265625;0.44189453125;-0.0498046875;108.9375;63.375;-168.5;
1441975941535877;0.3729248046875;-0.53057861328125;-0.67950439453125;-0.3431396484375;15.056141581479768;12.557014193708746;17.58709571087948;-1.21630859375;0.57568359375;-0.07470703125;102.9375;56.375;-183.0625;
1441975941558878;0.39337158203125;-0.5267333984375;-0.6583251953125;-0.36676025390625;15.471806121512726;12.573649883112912;17.538615386826525;-1.26611328125;0.56689453125;-0.09130859375;82.75;45.25;-193.6875;
1441975941580879;0.41400146484375;-0.52117919921875;-0.635986328125;-0.390625;15.901662754202382;12.571580618870069;17.47449192729954;-1.30615234375;0.45068359375;-0.04052734375;58.0;41.8125;-202.0;
1441975941595880;0.43255615234375;-0.51611328125;-0.61163330078125;-0.41534423828125;16.329163203431516;12.555061220278084;17.38164120516285;-1.24365234375;0.39306640625;0.0068359375;56.25;42.25;-211.1875;
1441975941618881;0.449951171875;-0.50872802734375;-0.58795166015625;-0.43939208984375;16.746106432458486;12.454400903792639;17.213243358146077;-1.25341796875;0.49658203125;0.0888671875;70.75;39.6875;-214.3125;
1441975941640883;0.46875;-0.4970703125;-0.5670166015625;-0.46014404296875;17.148635349743873;12.166896097302743;16.892607422319347;-1.28466796875;0.60302734375;0.0244140625;61.75;29.9375;-216.3125;
1441975941655883;0.488525390625;-0.48333740234375;-0.54693603515625;-0.4781494140625;17.524717059837535;11.397708137967298;16.109856639882402;-1.3779296875;0.54541015625;0.0537109375;27.5;26.625;-213.75;
1441975941678885;0.50830078125;-0.46966552734375;-0.5260009765625;-0.494384765625;17.75363680269792;8.42955736205151;13.130896035991803;-1.392578125;0.46923828125;0.171875;8.25;32.3125;-211.625;
1441975941700886;0.525390625;-0.4576416015625;-0.50433349609375;-0.5101318359375;17.541623119681095;5.568238480064355;10.245879513150378;-1.33203125;0.375;0.12841796875;6.0625;39.5;-207.9375;
1441975941717887;0.53704833984375;-0.4490966796875;-0.48101806640625;-0.52777099609375;17.216772507818508;4.917960282014801;9.536268846918631;-1.36669921875;0.1953125;0.1376953125;19.4375;39.75;-195.1875;
1441975941738888;0.54364013671875;-0.444091796875;-0.45660400390625;-0.54656982421875;16.908910778740164;4.719124165184203;9.246701245783358;-1.30517578125;0.18017578125;0.13134765625;55.0;34.8125;-181.5625;
1441975941760889;0.54876708984375;-0.4395751953125;-0.433349609375;-0.56378173828125;16.622828685237327;4.635675052971935;9.074383412341446;-1.216796875;0.33349609375;0.09912109375;86.625;31.125;-167.875;
1441975941775890;0.555908203125;-0.433349609375;-0.4140625;-0.57598876953125;16.364498364970924;4.564962174463006;8.951018155986995;-1.0966796875;0.5029296875;0.0576171875;84.75;28.875;-158.0;
1441975941798892;0.5665283203125;-0.425048828125;-0.4002685546875;-0.58160400390625;16.141526026377228;4.471753172139868;8.856053860548771;-0.96875;0.60302734375;0.06298828125;47.6875;28.4375;-145.0625;
1441975941829893;0.5771484375;-0.41632080078125;-0.39080810546875;-0.5838623046875;15.95882084202544;4.394864475477544;8.801056039201185;-0.88720703125;0.51904296875;0.09521484375;-3.0625;29.25;-124.875;
1441975941835894;0.5811767578125;-0.41180419921875;-0.38592529296875;-0.5863037109375;15.865875473547018;4.3845798089376595;8.794189594466298;-0.87060546875;0.279296875;0.13232421875;-25.6875;22.875;-100.875;
1441975941858895;0.58123779296875;-0.41143798828125;-0.3829345703125;-0.5885009765625;15.833076170895124;4.390229788923132;8.785905313266332;-0.80126953125;0.1962890625;0.17333984375;-8.1875;16.3125;-79.625;
1441975941889897;0.5806884765625;-0.4124755859375;-0.38232421875;-0.588623046875;15.837605762582061;4.385797773085245;8.774709872702926;-0.7177734375;0.337890625;0.12841796875;10.375;12.8125;-56.5;
1441975941904898;0.5794677734375;-0.41510009765625;-0.3848876953125;-0.58636474609375;15.887726018929893;4.371745490827511;8.763599387733407;-0.69091796875;0.3623046875;0.0947265625;3.9375;10.875;-38.8125;
1441975941918898;0.57806396484375;-0.41864013671875;-0.39080810546875;-0.581298828125;15.979798662794765;4.34415223813826;8.753749746820734;-0.689453125;0.3916015625;0.07958984375;-5.625;8.875;-17.5625;
1441975941940900;0.57696533203125;-0.4224853515625;-0.39996337890625;-0.57330322265625;16.107181613950964;4.2990518776319355;8.744276788668966;-0.68017578125;0.42138671875;0.07373046875;-19.4375;6.5625;2.375;
1441975941964901;0.5760498046875;-0.4266357421875;-0.41156005859375;-0.5628662109375;16.262807250891235;4.234319937357007;8.728836750796098;-0.67236328125;0.42333984375;0.0654296875;-37.125;4.5625;20.6875;
1441975941978902;0.5743408203125;-0.4312744140625;-0.42523193359375;-0.55084228515625;16.446654389642248;4.161042201868185;8.711510876051026;-0.69482421875;0.39013671875;0.05224609375;-50.5;2.6875;37.625;
1441975942000903;0.57135009765625;-0.4364013671875;-0.4405517578125;-0.53765869140625;16.656647507926298;4.082678452045113;8.691840308841149;-0.73681640625;0.361328125;0.03955078125;-56.625;-0.8125;53.6875;
1441975942023904;0.56689453125;-0.4417724609375;-0.457275390625;-0.5238037109375;16.88886723434263;4.006092334236858;8.6747673564191;-0.79443359375;0.3447265625;0.02001953125;-58.875;-6.1875;68.5625;
1441975942038905;0.560546875;-0.447509765625;-0.47467041015625;-0.5101318359375;17.137994656152664;3.9435363952554505;8.666458162871438;-0.87158203125;0.31201171875;-9.765625E-4;-59.0;-13.0625;81.9375;
1441975942060907;0.5528564453125;-0.4527587890625;-0.4906005859375;-0.4986572265625;17.37295793003946;3.937899679386887;8.702068089548487;-0.943359375;0.2578125;-0.01220703125;-53.75;-20.625;95.25;
1441975942083908;0.5418701171875;-0.46014404296875;-0.50628662109375;-0.48822021484375;17.632674043202865;4.020639153727908;8.80678357985821;-1.009765625;0.19970703125;-0.0224609375;-40.8125;-27.375;108.8125;
1441975942098909;0.5272216796875;-0.4700927734375;-0.52105712890625;-0.4791259765625;17.91138531078748;4.892500686620737;9.676409780564743;-1.08935546875;0.142578125;-0.03369140625;-21.6875;-32.8125;122.5;
1441975942120910;0.50872802734375;-0.4830322265625;-0.5343017578125;-0.47161865234375;17.773067215838473;12.325904202447266;17.079219891642737;-1.162109375;0.09130859375;-0.05859375;2.8125;-37.75;135.375;
1441975942143911;0.4864501953125;-0.49945068359375;-0.54522705078125;-0.46551513671875;17.449865247296977;12.654343940308761;17.345708227002884;-1.21044921875;0.03759765625;-0.06298828125;30.9375;-40.8125;147.875;
1441975942158912;0.46124267578125;-0.51922607421875;-0.5533447265625;-0.45989990234375;17.111416485237697;12.83840095201614;17.440300043091906;-1.21728515625;0.015625;-0.06005859375;62.5;-40.375;159.3125;
1441975942180913;0.43463134765625;-0.5413818359375;-0.55914306640625;-0.45318603515625;16.761240149684003;13.016703878989878;17.514417464973445;-1.1923828125;0.03955078125;-0.06005859375;89.875;-34.5;169.125;
1441975942203915;0.408203125;-0.56439208984375;-0.5634765625;-0.4443359375;16.40456199250678;13.18913170845717;17.581958527912047;-1.158203125;0.10107421875;-0.0634765625;105.25;-23.4375;176.6875;
1441975942218916;0.38323974609375;-0.58660888671875;-0.5673828125;-0.43255615234375;16.0451691079254;13.345425765153745;17.646134686418474;-1.1533203125;0.16748046875;-0.06103515625;106.5625;-9.875;181.5625;
1441975942240917;0.36053466796875;-0.6070556640625;-0.57183837890625;-0.41778564453125;15.685765522077112;13.47782586831553;17.70733405846745;-1.134765625;0.2392578125;-0.05908203125;94.875;3.375;183.4375;
1441975942263918;0.3406982421875;-0.62457275390625;-0.57757568359375;-0.40045166015625;15.33383260100375;13.577960677084357;17.763535907260955;-1.11328125;0.30615234375;-0.0654296875;74.6875;15.5625;182.9375;
1441975942278919;0.32354736328125;-0.63916015625;-0.58428955078125;-0.38134765625;14.994558058165314;13.651011058339517;17.816618789168462;-1.11279296875;0.32666015625;-0.06201171875;49.0;24.8125;179.4375;
1441975942300920;0.3094482421875;-0.6505126953125;-0.59210205078125;-0.36126708984375;14.676688336964721;13.697880588208278;17.868156446820397;-1.0888671875;0.3681640625;-0.07177734375;25.5625;31.125;172.1875;
1441975942340923;0.2984619140625;-0.658447265625;-0.60107421875;-0.3408203125;14.385768328583564;13.71966683788062;17.919006744691384;-1.0615234375;0.40283203125;-0.08984375;2.625;36.0;161.5;
1441975942342923;0.290283203125;-0.66326904296875;-0.61090087890625;-0.32049560546875;14.123625919891296;13.721069580424803;17.97021425654279;-1.05078125;0.39794921875;-0.10986328125;-20.8125;38.8125;148.1875;
1441975942360924;0.28448486328125;-0.665771484375;-0.62091064453125;-0.30072021484375;13.890242685410884;13.710310053032249;0.023369747303665738;-1.02880859375;0.3701171875;-0.1181640625;-40.4375;40.5;134.1875;
1441975942392926;0.28076171875;-0.66632080078125;-0.6307373046875;-0.2818603515625;13.686379074302819;13.690915716732674;0.0779146381419646;-0.96923828125;0.3564453125;-0.1142578125;-52.4375;41.9375;120.1875;
1441975942398926;0.2813720703125;-0.66510009765625;-0.638427734375;-0.266357421875;13.55231873457597;13.675890985926682;0.13981123505381726;-0.9130859375;0.32666015625;-0.12255859375;-61.0625;43.0;105.8125;
1441975942420927;0.2835693359375;-0.6630859375;-0.6451416015625;-0.25250244140625;13.448355805326234;13.66121063458208;0.20197703998624214;-0.8740234375;0.31640625;-0.13037109375;-64.8125;43.3125;91.0625;
1441975942443928;0.28717041015625;-0.6605224609375;-0.65069580078125;-0.2406005859375;13.37513809672794;13.648635738706718;0.2630979709613497;-0.8486328125;0.30517578125;-0.1396484375;-64.4375;42.625;76.8125;
1441975942458929;0.29180908203125;-0.65753173828125;-0.65521240234375;-0.23077392578125;13.330129323321966;13.637587044398083;0.32082531183970686;-0.83544921875;0.29248046875;-0.15625;-62.0;40.625;62.3125;
1441975942480931;0.2974853515625;-0.6544189453125;-0.6585693359375;-0.22283935546875;13.310985926494617;13.631057884653508;0.377165531929456;-0.80908203125;0.287109375;-0.14892578125;-57.5;38.1875;47.875;
1441975942503932;0.3040771484375;-0.65118408203125;-0.66070556640625;-0.2169189453125;13.317729327775771;13.629349205889016;0.4312888835107028;-0.77734375;0.28466796875;-0.14794921875;-51.8125;36.125;33.8125;
1441975942518933;0.311767578125;-0.64788818359375;-0.66156005859375;-0.21307373046875;13.35184339565527;13.633955620152022;0.48450259764798537;-0.7470703125;0.2939453125;-0.14453125;-45.25;34.375;19.0;
1441975942540934;0.3206787109375;-0.644287109375;-0.66143798828125;-0.21136474609375;13.414659267573127;13.642832670805833;0.536489245408866;-0.74072265625;0.306640625;-0.146484375;-38.8125;32.8125;3.8125;
1441975942563935;0.33056640625;-0.64031982421875;-0.66015625;-0.21197509765625;13.506415922205969;13.656406897913119;0.5859448858993875;-0.732421875;0.3115234375;-0.1484375;-33.5625;30.625;-11.6875;
1441975942578936;0.34130859375;-0.6361083984375;-0.6578369140625;-0.2149658203125;13.625898424286817;13.674805741235986;0.6323631358564076;-0.7412109375;0.31689453125;-0.14111328125;-27.25;27.8125;-26.875;
1441975942600937;0.3526611328125;-0.631591796875;-0.6544189453125;-0.2203369140625;13.771737994880771;13.69799396863018;0.6750742609954685;-0.75537109375;0.32275390625;-0.1318359375;-20.0;24.625;-41.25;
1441975942623939;0.364013671875;-0.6268310546875;-0.65008544921875;-0.2281494140625;13.939695164422467;13.723645221012223;0.7102428971591505;-0.783203125;0.3203125;-0.1279296875;-13.0;20.125;-54.4375;
1441975942646940;0.37518310546875;-0.6219482421875;-0.64483642578125;-0.23809814453125;14.125739575893332;13.752428195482404;0.7387814106251728;-0.8125;0.330078125;-0.11376953125;-4.8125;14.125;-66.3125;
1441975942662941;0.38604736328125;-0.61663818359375;-0.63897705078125;-0.25;14.328472456491129;13.780677853730982;0.7592909498460308;-0.83251953125;0.34521484375;-0.10400390625;3.5;7.8125;-76.5;
1441975942683942;0.39691162109375;-0.61083984375;-0.63238525390625;-0.2635498046875;14.548195289304232;13.810472582897562;0.7756761787031976;-0.8603515625;0.36474609375;-0.078125;10.1875;2.3125;-86.75;
1441975942698943;0.4068603515625;-0.60516357421875;-0.62548828125;-0.277587890625;14.766160758578016;13.840690800135734;0.7873471526469713;-0.89208984375;0.37353515625;-0.06884765625;15.375;-1.9375;-96.625;
1441975942720944;0.41656494140625;-0.59912109375;-0.6177978515625;-0.29315185546875;14.998557450842908;13.872476952291274;0.7942710671183796;-0.9296875;0.36962890625;-0.05419921875;20.1875;-5.8125;-105.875;
1441975942743946;0.42596435546875;-0.59271240234375;-0.60931396484375;-0.30987548828125;15.24231550414156;13.906476259515893;0.7981830417486462;-0.96044921875;0.36572265625;-0.0322265625;26.0625;-10.375;-113.125;
1441975942758946;0.4351806640625;-0.58563232421875;-0.60052490234375;-0.3271484375;15.49376984911581;13.939217102120717;0.8002024894901767;-0.9912109375;0.36474609375;-0.0126953125;30.9375;-13.75;-118.6875;
1441975942780948;0.44427490234375;-0.57769775390625;-0.59185791015625;-0.34442138671875;15.748872282012229;13.967413038074175;0.800625311107809;-1.01953125;0.37060546875;0.0107421875;31.5625;-16.3125;-123.125;
1441975942803949;0.45343017578125;-0.568603515625;-0.583984375;-0.36077880859375;16.001313365067883;13.985961581044837;0.800359926594636;-1.03759765625;0.376953125;0.0234375;28.25;-18.4375;-125.0625;
1441975942827950;0.462890625;-0.5582275390625;-0.5772705078125;-0.37542724609375;16.24595976178277;13.993836508489585;0.8027027939626202;-1.0498046875;0.3779296875;0.04345703125;19.3125;-19.375;-124.5625;
1441975942840951;0.47265625;-0.5472412109375;-0.57159423828125;-0.38787841796875;16.475633735784285;14.000539343831775;0.8161151676169663;-1.03857421875;0.361328125;0.07470703125;6.5;-17.9375;-121.1875;
1441975942863952;0.48272705078125;-0.535888671875;-0.56683349609375;-0.39813232421875;16.689333560756737;14.013023145774072;0.8463826239734827;-1.04052734375;0.3359375;0.09130859375;-5.5;-13.8125;-115.25;
1441975942879953;0.49176025390625;-0.5245361328125;-0.56390380859375;-0.4063720703125;16.876441335051815;14.000047590303462;0.8593906559943585;-1.0458984375;0.326171875;0.08984375;-16.125;-9.1875;-107.875;
1441975942900955;0.50091552734375;-0.51336669921875;-0.56182861328125;-0.41217041015625;17.041816962370067;14.000370050306055;0.8951301219223238;-1.04638671875;0.294921875;0.08984375;-23.75;-5.125;-98.8125;
1441975942923956;0.50946044921875;-0.5032958984375;-0.56005859375;-0.4166259765625;17.186166169569177;14.021160019122057;0.9511896707441475;-1.04833984375;0.28369140625;0.07421875;-33.3125;-0.9375;-90.25;
1441975942939957;0.51708984375;-0.4947509765625;-0.5587158203125;-0.419189453125;17.300560023799402;14.074969119309202;1.0400444115019623;-1.04931640625;0.23779296875;0.064453125;-33.375;1.9375;-79.1875;
1441975942977959;0.52557373046875;-0.485595703125;-0.5582275390625;-0.4200439453125;17.406351349222664;14.1701488148447;1.1818881080085022;-1.0302734375;0.298828125;0.02392578125;-33.5;4.125;-70.4375;
1441975942983959;0.53399658203125;-0.47662353515625;-0.55841064453125;-0.41943359375;17.495994983276187;14.312163566900658;1.3761002474697432;-1.02978515625;0.2197265625;-0.00146484375;-45.75;5.875;-63.4375;
1441975942999960;0.54046630859375;-0.46978759765625;-0.5587158203125;-0.41839599609375;17.558001108809307;14.46946557518672;1.5755043280641488;-0.998046875;0.22705078125;-0.01416015625;-50.9375;7.0;-57.8125;
1441975943020961;0.54547119140625;-0.46478271484375;-0.5587158203125;-0.41754150390625;17.602385502779278;14.648294264138693;1.7855592422246225;-0.97998046875;0.25341796875;-0.00244140625;-41.0625;7.5625;-47.75;
1441975943051963;0.5487060546875;-0.46136474609375;-0.55877685546875;-0.41693115234375;17.630765614022973;14.782306990652653;1.940668562594158;-0.96630859375;0.255859375;-0.0244140625;-30.375;6.5;-39.875;
1441975943059964;0.55010986328125;-0.4598388671875;-0.5587158203125;-0.4168701171875;17.644862397866163;14.850329196658878;2.0171125251254343;-0.9599609375;0.2529296875;-0.02490234375;-20.25;3.8125;-31.0;
1441975943080965;0.5494384765625;-0.4600830078125;-0.55865478515625;-0.4176025390625;17.647732161869435;14.80703904526631;1.968876175354201;-0.9482421875;0.24560546875;-0.04052734375;-8.125;0.0625;-22.0625;
1441975943111967;0.54693603515625;-0.46185302734375;-0.55865478515625;-0.41888427734375;17.63905605885216;14.664322924633069;1.810165205061149;-0.94384765625;0.244140625;-0.0380859375;5.25;-4.25;-13.4375;
1441975943119967;0.54296875;-0.46502685546875;-0.55877685546875;-0.42047119140625;17.616869045516083;14.462761349415771;1.583798031293486;-0.9326171875;0.2431640625;-0.044921875;16.125;-8.75;-5.25;
1441975943144969;0.53778076171875;-0.46923828125;-0.5589599609375;-0.422119140625;17.58131533522862;14.24494239325643;1.334752321340055;-0.921875;0.240234375;-0.05615234375;24.375;-12.0625;2.75;
1441975943164970;0.53143310546875;-0.474365234375;-0.559326171875;-0.4239501953125;17.533015772201818;14.025971156716874;1.0785903210013716;-0.91455078125;0.228515625;-0.05908203125;30.5625;-14.4375;10.4375;
1441975943187971;0.52410888671875;-0.4805908203125;-0.55975341796875;-0.425537109375;17.468397791918882;13.848758650677228;0.8591370649826033;-0.92333984375;0.2099609375;-0.05029296875;36.375;-16.25;18.4375;
1441975943200972;0.5159912109375;-0.48760986328125;-0.560302734375;-0.42669677734375;17.389366891872648;13.715677212583842;0.680902787411191;-0.92626953125;0.201171875;-0.0537109375;41.25;-17.25;26.4375;
1441975943223973;0.50738525390625;-0.495361328125;-0.56097412109375;-0.42718505859375;17.296908121852898;13.632130589035528;0.5510142455315107;-0.93505859375;0.19775390625;-0.05029296875;44.0;-16.5;34.25;
1441975943239974;0.498779296875;-0.503662109375;-0.5616455078125;-0.4267578125;17.19449147960459;13.599958813284974;0.4735776200474891;-0.94482421875;0.19970703125;-0.03515625;45.375;-14.125;41.1875;
1441975943260975;0.490234375;-0.51220703125;-0.5625;-0.4254150390625;17.083930883799034;13.59541004789835;0.42641157701107596;-0.95654296875;0.19775390625;-0.0439453125;44.1875;-10.875;47.125;
1441975943291977;0.48199462890625;-0.52081298828125;-0.56341552734375;-0.42315673828125;16.968395355394478;13.613065144276788;0.40496912256654205;-0.97705078125;0.201171875;-0.03955078125;41.8125;-7.5;52.3125;
1441975943299977;0.47412109375;-0.5294189453125;-0.56451416015625;-0.41986083984375;16.847190105057642;13.645065982010417;0.4024334898818638;-0.984375;0.19775390625;-0.03759765625;38.1875;-3.6875;56.625;
1441975943330979;0.466796875;-0.5379638671875;-0.56573486328125;-0.41558837890625;16.72227766258831;13.688397290870972;0.4161222276244907;-0.97998046875;0.19482421875;-0.03955078125;33.9375;0.3125;60.6875;
1441975943351980;0.45989990234375;-0.54644775390625;-0.56707763671875;-0.41033935546875;16.592765610988657;13.737756564673267;0.4403984659278194;-0.974609375;0.19189453125;-0.03662109375;29.8125;4.75;64.0;
1441975943359981;0.4537353515625;-0.554443359375;-0.5687255859375;-0.4041748046875;16.46225410350989;13.786492719487217;0.47107171820228877;-0.962890625;0.20849609375;-0.03857421875;25.25;9.125;66.1875;
1441975943383982;0.44842529296875;-0.56182861328125;-0.57061767578125;-0.39715576171875;16.33264359071526;13.834215217195498;0.5081282363887358;-0.96826171875;0.22998046875;-0.03759765625;19.0;13.0625;66.8125;
1441975943403983;0.44403076171875;-0.568359375;-0.57281494140625;-0.3895263671875;16.207040169866442;13.876538894157223;0.5475572695534779;-0.9609375;0.2392578125;-0.05126953125;11.375;16.0625;66.3125;
1441975943419984;0.4405517578125;-0.57391357421875;-0.5751953125;-0.3817138671875;16.08969275844783;13.912022892796292;0.5866996841919511;-0.9609375;0.24951171875;-0.0517578125;4.4375;18.5625;64.5;
1441975943440985;0.43804931640625;-0.57867431640625;-0.57769775390625;-0.37359619140625;15.97920277928204;13.94498097841075;0.6297191005327113;-0.95263671875;0.25048828125;-0.07373046875;-2.5;18.5;61.6875;
1441975943471987;0.43634033203125;-0.58258056640625;-0.58013916015625;-0.3656005859375;15.878717314905838;13.97377155359984;0.6728711491925521;-0.9404296875;0.25390625;-0.0830078125;-8.375;20.5625;58.25;
1441975943479988;0.435302734375;-0.58563232421875;-0.5826416015625;-0.3580322265625;15.789528784730722;13.99570421937373;0.7125611980514718;-0.943359375;0.255859375;-0.09033203125;-13.0;21.0;54.0625;
1441975943500989;0.4346923828125;-0.58807373046875;-0.5848388671875;-0.35107421875;15.711590474987352;14.014720466655623;0.7497278545267568;-0.93603515625;0.2490234375;-0.087890625;-16.0625;20.4375;49.5;
1441975943523990;0.43450927734375;-0.590087890625;-0.58660888671875;-0.34490966796875;15.6456857611969;14.033257607997166;0.7853471319650356;-0.92333984375;0.251953125;-0.09228515625;-16.6875;19.5625;44.625;
1441975943539991;0.4346923828125;-0.5916748046875;-0.587890625;-0.33966064453125;15.592622966428731;14.051550897786274;0.8189266597596923;-0.923828125;0.24609375;-0.09326171875;-15.3125;18.75;39.25;
1441975943560992;0.435302734375;-0.59283447265625;-0.58880615234375;-0.3353271484375;15.552383482787441;14.069333247190894;0.8506955726539539;-0.91748046875;0.2451171875;-0.08837890625;-13.8125;17.4375;33.375;
1441975943584994;0.4364013671875;-0.59344482421875;-0.58935546875;-0.33184814453125;15.525505593413703;14.08688659120751;0.8816548880365336;-0.91650390625;0.2568359375;-0.0927734375;-12.3125;16.0;26.9375;
1441975943599995;0.43798828125;-0.5933837890625;-0.58966064453125;-0.32928466796875;15.51284929181056;14.102505093156635;0.9106159022912202;-0.91064453125;0.26171875;-0.09716796875;-11.875;14.5625;20.1875;
1441975943620996;0.44012451171875;-0.5926513671875;-0.58978271484375;-0.32757568359375;15.514113770175918;14.116622315239185;0.9385282325706226;-0.91162109375;0.2587890625;-0.0947265625;-11.8125;12.875;13.25;
1441975943643997;0.442626953125;-0.59124755859375;-0.5897216796875;-0.32672119140625;15.528379038798725;14.128329085714604;0.9639660756491295;-0.90869140625;0.2646484375;-0.0927734375;-12.125;11.125;6.5;
1441975943659998;0.445556640625;-0.58935546875;-0.58941650390625;-0.3267822265625;15.555583000574579;14.13984779896711;0.9883861268037476;-0.91162109375;0.2607421875;-0.0869140625;-12.125;9.25;0.0;
1441975943680999;0.44866943359375;-0.5870361328125;-0.58892822265625;-0.32763671875;15.593001121727163;14.149838730876874;1.0101262477765125;-0.91259765625;0.25732421875;-0.07861328125;-11.375;7.5625;-6.0;
1441975943704001;0.4521484375;-0.58428955078125;-0.58819580078125;-0.3291015625;15.640244182080579;14.160946249498108;1.0327297904599972;-0.90966796875;0.2578125;-0.072265625;-10.3125;6.0;-11.5;
1441975943720001;0.455810546875;-0.5811767578125;-0.5872802734375;-0.3311767578125;15.695887384699251;14.171803491267859;1.0543029739948997;-0.91259765625;0.26025390625;-0.07421875;-9.75;4.375;-16.875;
1441975943741003;0.459716796875;-0.57763671875;-0.586181640625;-0.33392333984375;15.761101609175384;14.182442066397293;1.0750415532090214;-0.919921875;0.26513671875;-0.080078125;-9.5;2.75;-21.75;
1441975943764004;0.463623046875;-0.57379150390625;-0.58489990234375;-0.3372802734375;15.833493060457858;14.192005662156363;1.0932363011208364;-0.93115234375;0.263671875;-0.07666015625;-8.75;0.9375;-26.3125;
1441975943781005;0.46759033203125;-0.56982421875;-0.58343505859375;-0.34112548828125;15.911272602678906;14.202615545261503;1.1109872190159358;-0.93896484375;0.263671875;-0.07666015625;-7.5;-1.0;-30.4375;
1441975943803006;0.4715576171875;-0.5655517578125;-0.58184814453125;-0.34539794921875;15.994637181646503;14.212131576848783;1.1269173418463274;-0.94287109375;0.267578125;-0.07421875;-6.25;-2.5625;-34.0625;
1441975943832008;0.4754638671875;-0.5609130859375;-0.5804443359375;-0.3499755859375;16.08196937232903;14.216207115334791;1.1379079178185592;-0.9501953125;0.27099609375;-0.0732421875;-5.625;-4.0;-37.25;
1441975943840008;0.4793701171875;-0.5560302734375;-0.5789794921875;-0.354736328125;16.17245178465219;14.219273375394232;1.1478973140886801;-0.947265625;0.26708984375;-0.0615234375;-6.25;-5.625;-40.1875;
1441975943863010;0.48309326171875;-0.55108642578125;-0.57757568359375;-0.359619140625;16.263313721800156;14.21925652730864;1.1542703857503873;-0.94384765625;0.263671875;-0.0595703125;-5.9375;-7.0625;-41.9375;
1441975943884011;0.4866943359375;-0.5460205078125;-0.57623291015625;-0.36456298828125;16.354740375525218;14.21611140257275;1.1575266712103447;-0.943359375;0.26171875;-0.0556640625;-5.9375;-8.3125;-42.875;
1441975943900012;0.49005126953125;-0.54107666015625;-0.574951171875;-0.36956787109375;16.444619376061233;14.20981548480582;1.1565616296516343;-0.94482421875;0.24951171875;-0.05419921875;-6.1875;-9.375;-43.25;
1441975943923013;0.49310302734375;-0.53631591796875;-0.57366943359375;-0.37445068359375;16.530995207330662;14.201404342248345;1.1524701988906008;-0.9501953125;0.2421875;-0.04638671875;-5.375;-10.0625;-42.5625;
1441975943944014;0.49578857421875;-0.5318603515625;-0.572265625;-0.3792724609375;16.61363515731513;14.192335692966614;1.145661435102461;-0.95556640625;0.2373046875;-0.04833984375;-4.125;-10.6875;-41.375;
1441975943960015;0.498046875;-0.52789306640625;-0.57086181640625;-0.384033203125;16.6907233147854;14.181120268461893;1.1342458808578657;-0.9580078125;0.2294921875;-0.048828125;-2.3125;-11.0;-39.5625;
1441975943983016;0.499755859375;-0.52447509765625;-0.56939697265625;-0.38861083984375;16.7605382983583;14.167976579429126;1.11815273091283;-0.9658203125;0.22607421875;-0.04443359375;-0.0625;-11.375;-37.375;
1441975944004018;0.50103759765625;-0.5216064453125;-0.56787109375;-0.39300537109375;16.823607346824215;14.154561123209508;1.0993658119878238;-0.9658203125;0.224609375;-0.0439453125;2.6875;-11.25;-34.6875;
1441975944020019;0.5018310546875;-0.5194091796875;-0.56634521484375;-0.3970947265625;16.877728716016843;14.141033741551542;1.078047613633761;-0.9638671875;0.220703125;-0.04638671875;5.0;-11.0625;-31.5;
1441975944043020;0.502197265625;-0.5177001953125;-0.56494140625;-0.40087890625;16.92398488125518;14.124070742730794;1.051926552337464;-0.958984375;0.22509765625;-0.05126953125;7.375;-10.6875;-28.375;
1441975944064021;0.502197265625;-0.51654052734375;-0.56365966796875;-0.40411376953125;16.960372163013027;14.10772625374207;1.0257822426460157;-0.95703125;0.23095703125;-0.04248046875;8.9375;-10.25;-25.0;
1441975944094023;0.501953125;-0.51568603515625;-0.56268310546875;-0.4068603515625;16.98889723935816;14.087325327387932;0.9963122152557323;-0.95458984375;0.236328125;-0.04736328125;9.3125;-9.375;-21.5625;
1441975944103023;0.50152587890625;-0.5152587890625;-0.5618896484375;-0.40911865234375;17.009430893978756;14.068562711008733;0.9686718828732905;-0.9501953125;0.2421875;-0.0400390625;8.875;-8.5;-18.0;
1441975944124025;0.50091552734375;-0.51507568359375;-0.56134033203125;-0.4107666015625;17.02206590644902;14.049583908760654;0.9421043057641499;-0.95263671875;0.23828125;-0.04638671875;8.25;-7.75;-14.5;
1441975944140025;0.50018310546875;-0.51531982421875;-0.5609130859375;-0.41192626953125;17.027243023259164;14.036011381063682;0.921130819178496;-0.9462890625;0.24072265625;-0.048828125;7.4375;-6.75;-10.9375;
1441975944163027;0.49945068359375;-0.515869140625;-0.560546875;-0.41253662109375;17.02612294335608;14.030983035109179;0.9096122642372333;-0.94091796875;0.23583984375;-0.0517578125;6.6875;-5.5;-7.5;
1441975944185028;0.4986572265625;-0.51666259765625;-0.5604248046875;-0.41278076171875;17.0195407858074;14.026724289092051;0.8997269407159372;-0.93701171875;0.234375;-0.06103515625;6.1875;-4.0;-4.3125;
1441975944200029;0.497802734375;-0.5177001953125;-0.560302734375;-0.41265869140625;17.008382184986026;14.02856911261066;0.8961540385218869;-0.93359375;0.22802734375;-0.0537109375;5.375;-2.8125;-1.3125;
1441975944223030;0.49688720703125;-0.5191650390625;-0.5601806640625;-0.412109375;16.991008754660946;14.03937736713264;0.9013794874917747;-0.93359375;0.2236328125;-0.05517578125;5.125;-1.3125;1.375;
1441975944244031;0.49603271484375;-0.5208740234375;-0.55999755859375;-0.4112548828125;16.970272114997833;14.058479432329333;0.9150835007341493;-0.93017578125;0.22021484375;-0.05615234375;5.5;0.6875;3.9375;
1441975944260032;0.4952392578125;-0.52276611328125;-0.55987548828125;-0.409912109375;16.94472521666593;14.083689244254991;0.9361527504248636;-0.92822265625;0.224609375;-0.0615234375;5.3125;2.3125;5.8125;
1441975944283034;0.4945068359375;-0.52459716796875;-0.5599365234375;-0.40838623046875;16.91778743877049;14.10610785475504;0.9558313591160386;-0.9296875;0.2294921875;-0.0654296875;4.375;3.9375;7.5625;
1441975944321036;0.49407958984375;-0.5264892578125;-0.55987548828125;-0.40655517578125;16.88985264118725;14.138430041353026;0.986650455062165;-0.927734375;0.22021484375;-0.05908203125;2.8125;5.1875;9.0625;
1441975944323036;0.49359130859375;-0.52862548828125;-0.55975341796875;-0.40460205078125;16.859178274407654;14.173075439532298;1.0190904992964516;-0.9228515625;0.1982421875;-0.07080078125;1.625;6.4375;11.0;
1441975944343037;0.492919921875;-0.5311279296875;-0.55938720703125;-0.402587890625;16.825430552659117;14.211977142989676;1.053701431535073;-0.9306640625;0.19091796875;-0.0703125;2.5;7.8125;12.625;
1441975944364038;0.49237060546875;-0.53369140625;-0.55889892578125;-0.40057373046875;16.79197671342444;14.253650450931552;1.0908953443993643;-0.9375;0.19677734375;-0.072265625;4.625;8.9375;14.0;
1441975944380039;0.49151611328125;-0.5362548828125;-0.55828857421875;-0.3990478515625;16.76120971416945;14.28743581878008;1.1175548553262011;-0.9453125;0.181640625;-0.07861328125;4.875;9.75;15.25;
1441975944403041;0.4901123046875;-0.53961181640625;-0.5570068359375;-0.39788818359375;16.727502342312675;14.328544207448225;1.1446924553838014;-0.955078125;0.15087890625;-0.072265625;7.125;8.75;16.75;
1441975944424042;0.4881591796875;-0.54376220703125;-0.5552978515625;-0.39715576171875;16.6906239086114;14.371824025665454;1.1676267261871385;-0.94140625;0.146484375;-0.076171875;14.25;9.125;18.4375;
1441975944446043;0.485595703125;-0.54827880859375;-0.55340576171875;-0.396728515625;16.651624671668454;14.4090907252241;1.1803316504154033;-0.93896484375;0.15087890625;-0.06689453125;20.6875;10.25;20.125;
1441975944463044;0.48248291015625;-0.55328369140625;-0.55157470703125;-0.39605712890625;16.60499784028529;14.441577982103292;1.186156490839255;-0.91845703125;0.14111328125;-0.0390625;24.8125;10.4375;22.0625;
1441975944484045;0.48004150390625;-0.55792236328125;-0.5504150390625;-0.39410400390625;16.55144723168403;14.474347274357717;1.2009003423852083;-0.88134765625;0.1826171875;-0.0244140625;27.3125;11.9375;23.3125;
1441975944500046;0.47869873046875;-0.5614013671875;-0.55029296875;-0.39105224609375;16.498494145813797;14.499594842912778;1.2208035811587439;-0.84033203125;0.224609375;-0.02099609375;19.5625;15.8125;22.8125;
1441975944523047;0.47869873046875;-0.5634765625;-0.55078125;-0.3873291015625;16.453160287232;14.523484892479823;1.2509943391406833;-0.81396484375;0.2421875;0.00341796875;7.5;18.9375;20.6875;
1441975944544049;0.47967529296875;-0.5645751953125;-0.55181884765625;-0.383056640625;16.412253607674458;14.544927927566132;1.2875645002237182;-0.81201171875;0.20947265625;0.00732421875;-3.9375;21.0625;18.375;
1441975944568050;0.48101806640625;-0.56536865234375;-0.55291748046875;-0.37860107421875;16.372985620497165;14.56702992561471;1.3274625871528185;-0.83251953125;0.19384765625;0.00439453125;-12.25;22.4375;17.4375;
1441975944583051;0.48272705078125;-0.566162109375;-0.5535888671875;-0.3741455078125;16.335715342430138;14.598157089527339;1.3762348577666546;-0.86474609375;0.1962890625;-0.00244140625;-14.9375;23.5;16.875;
1441975944604052;0.48468017578125;-0.5670166015625;-0.55377197265625;-0.37017822265625;16.303557616936136;14.636226635973923;1.429626489996843;-0.8994140625;0.20263671875;-0.01416015625;-14.5;25.375;15.4375;
1441975944635054;0.4864501953125;-0.56793212890625;-0.5533447265625;-0.3670654296875;16.278144266095172;14.677151262720013;1.480920883288027;-0.9189453125;0.2060546875;-0.02978515625;-11.9375;25.8125;12.4375;
1441975944643054;0.4879150390625;-0.56915283203125;-0.5521240234375;-0.364990234375;16.259176762274087;14.72356245483052;1.5306052727031343;-0.94189453125;0.21142578125;-0.02880859375;-6.6875;24.625;9.5625;
1441975944664055;0.4891357421875;-0.57025146484375;-0.5506591796875;-0.36395263671875;16.248945118013175;14.766611592051891;1.572799591024283;-0.939453125;0.224609375;-0.05419921875;-0.3125;21.8125;5.5;
1441975944694057;0.4903564453125;-0.57098388671875;-0.5489501953125;-0.36370849609375;16.247933405148192;14.809077792775758;1.6124393091976126;-0.91796875;0.232421875;-0.052734375;3.9375;18.4375;1.1875;
1441975944703058;0.49169921875;-0.57122802734375;-0.54730224609375;-0.36395263671875;16.25441687751251;14.84865942774987;1.6496964457929468;-0.89599609375;0.22021484375;-0.0625;5.5;15.1875;-2.375;
1441975944726059;0.49334716796875;-0.571044921875;-0.54547119140625;-0.36474609375;16.26934309263866;14.891674921594865;1.6903509072786636;-0.8662109375;0.20556640625;-0.05908203125;4.75;12.875;-5.6875;
1441975944746060;0.49481201171875;-0.57080078125;-0.5435791015625;-0.36602783203125;16.288082468598716;14.933048139090543;1.727394250587629;-0.86181640625;0.173828125;-0.05224609375;5.3125;12.125;-7.9375;
1441975944763061;0.49627685546875;-0.5704345703125;-0.5416259765625;-0.36749267578125;16.308987353583337;14.97535234265701;1.765017840356412;-0.8232421875;0.1552734375;-0.0380859375;6.625;10.8125;-9.125;
1441975944785062;0.49749755859375;-0.570556640625;-0.53936767578125;-0.36895751953125;16.32573506778805;15.022354433537593;1.8043499425703469;-0.79052734375;0.12939453125;-0.01416015625;7.375;11.3125;-9.1875;
1441975944808064;0.49896240234375;-0.57073974609375;-0.53680419921875;-0.370361328125;16.341912558473933;15.07819707497448;1.852357809937425;-0.8046875;0.1630859375;-0.02099609375;10.6875;12.625;-10.0;
1441975944823065;0.5008544921875;-0.5704345703125;-0.5345458984375;-0.37152099609375;16.359696377581187;15.134050230744212;1.9046142495343807;-0.84423828125;0.18408203125;-0.05419921875;10.75;12.75;-11.8125;
1441975944845066;0.5030517578125;-0.56951904296875;-0.53265380859375;-0.37274169921875;16.382290612888642;15.187004829715306;1.9574854831354411;-0.88330078125;0.181640625;-0.078125;6.4375;12.0;-12.9375;
1441975944866067;0.50518798828125;-0.568603515625;-0.53070068359375;-0.37408447265625;16.40528574777506;15.241547105299048;2.0112390296437166;-0.912109375;0.14892578125;-0.08056640625;2.25;10.75;-12.875;
1441975944883068;0.50701904296875;-0.56817626953125;-0.52838134765625;-0.37548828125;16.424206923257735;15.300990680368036;2.0663845421785227;-0.916015625;0.11962890625;-0.07666015625;3.25;10.625;-11.75;
1441975944905069;0.509033203125;-0.5679931640625;-0.52581787109375;-0.3765869140625;16.438308785017163;15.368866983433502;2.1299806837924886;-0.9150390625;0.126953125;-0.08251953125;6.5;11.5;-10.9375;
1441975944922070;0.51141357421875;-0.56732177734375;-0.52349853515625;-0.377685546875;16.45569238629954;15.437686024706176;2.197677851338402;-0.916015625;0.15087890625;-0.1005859375;6.9375;13.1875;-12.1875;
1441975944944071;0.513671875;-0.566650390625;-0.52099609375;-0.37908935546875;16.47463652720459;15.509633288561306;2.2667415258109544;-0.92236328125;0.130859375;-0.0986328125;3.5625;12.9375;-13.5625;
1441975944965073;0.5155029296875;-0.5667724609375;-0.51776123046875;-0.38079833984375;16.488635076081785;15.591357245461658;2.339071384250847;-0.9375;0.12255859375;-0.10546875;5.375;12.1875;-14.0;
1441975944986074;0.5169677734375;-0.56756591796875;-0.51397705078125;-0.3826904296875;16.49749307061224;15.679729568298105;2.4129494786909413;-0.9287109375;0.1171875;-0.1171875;11.8125;13.1875;-13.125;
1441975945003075;0.51812744140625;-0.56915283203125;-0.5096435546875;-0.3846435546875;16.49914112988292;15.774735778534954;2.4885294477898987;-0.91015625;0.103515625;-0.11376953125;16.5625;14.875;-11.125;
1441975945025076;0.51904296875;-0.571533203125;-0.50494384765625;-0.38604736328125;16.48836335090591;15.871371118467314;2.5633087997435253;-0.87841796875;0.09912109375;-0.1162109375;21.9375;16.8125;-9.8125;
1441975945046077;0.52032470703125;-0.57342529296875;-0.5006103515625;-0.38714599609375;16.477740446812263;15.964817904031403;2.639307374537393;-0.861328125;0.12060546875;-0.13037109375;24.375;20.0625;-8.25;
1441975945063078;0.521240234375;-0.57537841796875;-0.49652099609375;-0.3883056640625;16.46647941078312;16.048198594585422;2.704530108156972;-0.84033203125;0.09521484375;-0.13818359375;19.8125;19.375;-7.4375;
1441975945085080;0.52130126953125;-0.57843017578125;-0.4921875;-0.3892822265625;16.444640271336926;16.121336300267956;2.75369671350057;-0.82958984375;0.068359375;-0.14453125;19.875;17.5;-4.875;
1441975945106081;0.521484375;-0.58154296875;-0.488037109375;-0.38958740234375;16.41621710261917;16.188691445470276;2.79973435015819;-0.8173828125;0.1298828125;-0.18505859375;25.375;16.375;-2.9375;
1441975945123082;0.5220947265625;-0.58441162109375;-0.48406982421875;-0.389404296875;16.384847343007312;16.254888513405394;2.8484891967804415;-0.798828125;0.1630859375;-0.25341796875;22.8125;14.0625;-3.375;
1441975945145083;0.52264404296875;-0.58673095703125;-0.480712890625;-0.38934326171875;16.35937679313868;16.31017106340927;2.8891374591568297;-0.787109375;0.1708984375;-0.3330078125;18.3125;10.6875;-4.625;
1441975945166084;0.52301025390625;-0.5882568359375;-0.47808837890625;-0.38970947265625;16.34481097829078;16.353950430191006;2.9209176209430354;-0.78759765625;0.17626953125;-0.37353515625;14.8125;4.8125;-5.5625;
1441975945183085;0.523193359375;-0.58856201171875;-0.476806640625;-0.390625;16.347023557999933;16.379340310700204;2.939589919561037;-0.771484375;0.14892578125;-0.4033203125;11.5;-3.125;-5.0625;
1441975945205086;0.5224609375;-0.5887451171875;-0.47491455078125;-0.3935546875;16.366642487015948;16.41268687430353;2.9563180874430186;-0.75830078125;0.10498046875;-0.39501953125;5.0625;-11.8125;-4.125;
1441975945226088;0.5198974609375;-0.5908203125;-0.47125244140625;-0.3983154296875;16.385876356649185;16.456160187658398;2.961987773024192;-0.78857421875;0.04150390625;-0.36669921875;13.875;-17.375;-4.0;
1441975945242088;0.51605224609375;-0.59423828125;-0.4664306640625;-0.40380859375;16.40029926231956;16.50277114242642;2.9577462633006264;-0.80078125;0.052734375;-0.36962890625;35.3125;-18.9375;-2.25;
1441975945266090;0.51165771484375;-0.59808349609375;-0.461181640625;-0.40966796875;16.41441824210938;16.550354937793152;2.9493694458447237;-0.80859375;0.10009765625;-0.37939453125;48.625;-18.6875;-1.5625;
1441975945295092;0.507080078125;-0.60174560546875;-0.45574951171875;-0.41607666015625;16.43429388797817;16.602227483843617;2.9431869670734736;-0.8251953125;0.13818359375;-0.36279296875;54.5625;-18.25;-3.25;
1441975945302092;0.50250244140625;-0.605224609375;-0.4508056640625;-0.42193603515625;16.45224230296525;16.644338430384565;2.930778935960739;-0.82177734375;0.13623046875;-0.32666015625;57.1875;-17.8125;-5.1875;
1441975945324093;0.4984130859375;-0.60821533203125;-0.4462890625;-0.42724609375;16.469516746212335;16.684604973673263;2.9221778307302566;-0.81689453125;0.1640625;-0.302734375;54.375;-16.375;-5.625;
1441975945347095;0.49444580078125;-0.611328125;-0.44195556640625;-0.431884765625;16.48065650731467;16.71967681251421;2.910832749551451;-0.8291015625;0.14453125;-0.28759765625;48.6875;-14.375;-4.875;
1441975945362095;0.49127197265625;-0.61395263671875;-0.43865966796875;-0.43511962890625;16.48515499693884;16.741947786827627;2.8974297187074782;-0.84765625;0.158203125;-0.306640625;46.0;-13.125;-3.6875;
1441975945384097;0.48931884765625;-0.6156005859375;-0.43682861328125;-0.43682861328125;16.48591356766195;16.750749163671642;2.8855568480176794;-0.89013671875;0.1875;-0.33203125;35.5625;-11.125;-3.8125;
1441975945408098;0.48883056640625;-0.615966796875;-0.4364013671875;-0.43731689453125;16.48703213556411;16.752935188706097;2.882626931554542;-0.9501953125;0.1904296875;-0.3359375;20.625;-8.6875;-3.0625;
1441975945422099;0.4892578125;-0.615234375;-0.43701171875;-0.43719482421875;16.492196770361993;16.750130959746336;2.885313150533616;-0.990234375;0.16748046875;-0.326171875;5.5;-6.5625;-3.5;
1441975945444100;0.4898681640625;-0.61444091796875;-0.43798828125;-0.43670654296875;16.495469005281308;16.74185928268098;2.8853699917296938;-1.015625;0.12646484375;-0.29736328125;-5.6875;-5.375;-2.25;
1441975945467101;0.4906005859375;-0.61395263671875;-0.43878173828125;-0.43585205078125;16.492786875544713;16.735216512745303;2.8870332590900856;-1.00927734375;0.11669921875;-0.27783203125;-8.5;-3.6875;-1.125;
1441975945482102;0.49139404296875;-0.61376953125;-0.43896484375;-0.4349365234375;16.48557954024413;16.738097717019517;2.8958791405965942;-1.00634765625;0.13134765625;-0.29248046875;-8.4375;-1.875;-0.625;
1441975945512104;0.491943359375;-0.61419677734375;-0.4384765625;-0.4342041015625;16.474086574098042;16.747804260643917;2.9066001408797013;-1.009765625;0.12109375;-0.3251953125;-6.3125;-1.125;-0.8125;
1441975945527105;0.4920654296875;-0.61492919921875;-0.43804931640625;-0.43353271484375;16.461854456300433;16.750273447093193;2.907970617358537;-1.02001953125;0.10693359375;-0.35986328125;-1.625;-1.0625;0.375;
1441975945549106;0.4921875;-0.61572265625;-0.43798828125;-0.43231201171875;16.445628635221304;16.74361864944898;2.902661810119759;-0.99755859375;0.11083984375;-0.3525390625;0.125;-1.25;2.5;
1441975945564107;0.4925537109375;-0.6162109375;-0.4384765625;-0.43072509765625;16.42964130770999;16.730364882040014;2.8950039903007023;-0.98388671875;0.13916015625;-0.35302734375;-1.8125;-0.5;3.0625;
1441975945587108;0.493408203125;-0.61590576171875;-0.439697265625;-0.4288330078125;16.417934845747517;16.71249464619537;2.889449089615538;-0.9853515625;0.1630859375;-0.35986328125;-6.125;-1.0;2.3125;
1441975945602109;0.49432373046875;-0.615234375;-0.44122314453125;-0.42718505859375;16.411627491212204;16.693058497641484;2.8837813327124024;-0.99169921875;0.15966796875;-0.35595703125;-12.875;-2.3125;1.4375;
1441975945624110;0.49456787109375;-0.61517333984375;-0.441650390625;-0.42657470703125;16.407725318299462;16.686358940968873;2.880960208799565;-1.00146484375;0.12841796875;-0.33984375;-14.5;-3.5625;2.375;
1441975945647112;0.49365234375;-0.61663818359375;-0.4407958984375;-0.42645263671875;16.395387315352593;16.68381337791888;2.8693563801587207;-1.013671875;0.08984375;-0.3212890625;-5.0625;-2.875;3.875;
1441975945662113;0.492431640625;-0.61846923828125;-0.44000244140625;-0.426025390625;16.378492348568635;16.6742016441793;2.8497724972446363;-1.00390625;0.13818359375;-0.3408203125;7.875;-1.375;5.0625;
1441975945684114;0.49188232421875;-0.619384765625;-0.4400634765625;-0.4251708984375;16.36573820993186;16.660006288313216;2.833919904042036;-1.01708984375;0.19873046875;-0.35205078125;9.75;-0.8125;4.0;
1441975945715116;0.49176025390625;-0.6195068359375;-0.4407958984375;-0.42449951171875;16.36133145830213;16.64368382698525;2.8209583233271274;-1.046875;0.2021484375;-0.34228515625;1.375;-1.0;2.625;
1441975945723116;0.4912109375;-0.61956787109375;-0.44110107421875;-0.4246826171875;16.36402127362803;16.63305877073833;2.80892236296975;-1.05029296875;0.15478515625;-0.306640625;-3.9375;-1.9375;3.125;
1441975945752118;0.4896240234375;-0.6207275390625;-0.44085693359375;-0.425048828125;16.360403957202447;16.616652634617893;2.782765900736589;-1.056640625;0.10693359375;-0.28125;0.0625;-3.0625;4.6875;
1441975945775119;0.487548828125;-0.62261962890625;-0.440185546875;-0.42535400390625;16.35050945848466;16.599187756466748;2.7509219485024214;-1.05126953125;0.12939453125;-0.29638671875;8.5625;-3.3125;8.25;
1441975945782119;0.485595703125;-0.62420654296875;-0.43975830078125;-0.42578125;16.344186468005248;16.580888373475673;2.719860388530008;-1.076171875;0.162109375;-0.31201171875;12.5625;-1.9375;9.4375;
1441975945812121;0.48345947265625;-0.62554931640625;-0.438720703125;-0.42724609375;16.34711809466475;16.574864130558556;2.696488853593862;-1.09912109375;0.1533203125;-0.29541015625;11.5625;-1.875;9.5;
1441975945828122;0.47998046875;-0.62799072265625;-0.43646240234375;-0.429931640625;16.351269751039773;16.574548389090065;2.664677639943017;-1.10498046875;0.1025390625;-0.279296875;15.3125;-4.0;8.6875;
1441975945843123;0.47576904296875;-0.6312255859375;-0.433349609375;-0.43304443359375;16.352221928573922;16.578847517324146;2.6293025408316053;-1.09716796875;0.1396484375;-0.31298828125;29.75;-7.9375;7.6875;
1441975945872125;0.4710693359375;-0.63427734375;-0.43048095703125;-0.43646240234375;16.35815379662182;16.57491176920421;2.58461026127305;-1.123046875;0.21337890625;-0.37646484375;38.4375;-10.9375;5.125;
1441975945888125;0.46661376953125;-0.63714599609375;-0.4266357421875;-0.44091796875;16.37194952900373;16.59356752551905;2.55797403050258;-1.1455078125;0.23681640625;-0.3935546875;39.375;-15.3125;4.4375;
1441975945903126;0.46136474609375;-0.63958740234375;-0.4217529296875;-0.447509765625;16.405790592913792;16.628175225992727;2.5370887698832667;-1.14892578125;0.19091796875;-0.45068359375;43.125;-20.25;1.0;
1441975945932128;0.45574951171875;-0.64288330078125;-0.41595458984375;-0.45391845703125;16.430410699758635;16.67078989243569;2.5184489795010103;-1.22021484375;0.1474609375;-0.46875;53.1875;-28.6875;-2.3125;
1441975945947129;0.45037841796875;-0.6473388671875;-0.40869140625;-0.45947265625;16.43589540696204;16.73468288824097;2.516423897538839;-1.1513671875;0.146484375;-0.43359375;59.375;-23.125;-1.3125;
1441975945963130;0.44683837890625;-0.65264892578125;-0.403564453125;-0.46002197265625;16.395110184212932;16.763553488572885;2.502583944309206;-1.06005859375;0.1875;-0.3955078125;65.625;-11.375;-5.0625;
1441975946009132;0.442138671875;-0.66009521484375;-0.40032958984375;-0.456787109375;16.31216651194954;16.72965753060661;2.4323954083602963;-1.05810546875;0.2333984375;-0.44873046875;42.75;5.3125;4.6875;
1441975946011132;0.4400634765625;-0.6646728515625;-0.39727783203125;-0.45477294921875;16.25761432520074;16.736244225768214;2.4158794658875236;-1.22802734375;0.451171875;-0.50732421875;37.25;17.75;15.8125;
1441975946040134;0.43682861328125;-0.67144775390625;-0.39154052734375;-0.452880859375;16.18383341756262;16.766235267679065;2.4043945842708734;-1.33349609375;0.12890625;-0.40576171875;21.0;20.5625;19.3125;
1441975946053135;0.4327392578125;-0.6800537109375;-0.384521484375;-0.449951171875;16.08618075470318;16.797960297499767;2.3855428866010477;-1.26416015625;0.09814453125;-0.33935546875;39.9375;34.4375;23.5625;
1441975946085137;0.42828369140625;-0.69390869140625;-0.379638671875;-0.43701171875;15.869198552167994;16.75902925868095;2.3132065274396765;-1.15478515625;0.22802734375;-0.25927734375;51.875;49.3125;21.4375;
1441975946098137;0.43206787109375;-0.689208984375;-0.3829345703125;-0.43792724609375;15.913957757749108;16.759690119651136;2.346659933683195;-1.09130859375;0.603515625;-0.85302734375;33.8125;57.5;39.4375;
1441975946129139;0.436767578125;-0.68548583984375;-0.39239501953125;-0.43060302734375;15.89184078946447;16.663316269265323;2.3242487294229797;-1.357421875;0.22314453125;0.1181640625;-24.0625;23.625;-21.1875;
1441975946131139;0.4251708984375;-0.70172119140625;-0.37689208984375;-0.429931640625;15.748885348275175;16.73726581072233;2.2699901790818235;-1.62548828125;0.07568359375;-0.0703125;-74.5;39.125;25.3125;
1441975946151140;0.4091796875;-0.7099609375;-0.38427734375;-0.42535400390625;15.669100730755833;16.50256435612312;1.997484861177495;-1.3583984375;0.01220703125;-0.490234375;123.0625;55.75;52.9375;
1441975946164141;0.41217041015625;-0.70562744140625;-0.3868408203125;-0.4273681640625;15.721088222282123;16.50044847655278;2.0196742945218342;-1.375;1.23193359375;0.01171875;45.8125;21.1875;51.3125;
1441975946187143;0.4166259765625;-0.701416015625;-0.3876953125;-0.42913818359375;15.76728735942106;16.531779920215094;2.074736137443056;-1.2412109375;-0.0791015625;-0.18994140625;-26.8125;-1.0;1.4375;
1441975946203143;0.41925048828125;-0.70013427734375;-0.38836669921875;-0.42803955078125;15.767002369477968;16.543906291778615;2.1036512912904954;-1.431640625;-0.1689453125;-0.34326171875;-28.0625;1.875;0.25;
1441975946224145;0.423583984375;-0.6966552734375;-0.39068603515625;-0.42742919921875;15.788668432241947;16.552384056703175;2.1442851955299065;-1.24365234375;0.1591796875;-0.4970703125;-17.375;1.9375;-3.625;
1441975946247146;0.42718505859375;-0.6939697265625;-0.393310546875;-0.42578125;15.79615306778944;16.54833974786283;2.1715430851105473;-1.2421875;-0.0537109375;-0.43115234375;-36.1875;-1.125;0.75;
1441975946263147;0.4307861328125;-0.69140625;-0.39666748046875;-0.4232177734375;15.795914970891639;16.53307012468735;2.191946039885913;-1.1904296875;0.12548828125;-0.45068359375;-32.1875;-0.1875;-3.4375;
1441975946284148;0.4345703125;-0.68890380859375;-0.39892578125;-0.4212646484375;15.798749357297474;16.53437347093784;2.224234976895015;-1.1494140625;0.1787109375;-0.44140625;-35.625;1.375;-3.75;
1441975946314150;0.43756103515625;-0.68731689453125;-0.39959716796875;-0.420166015625;15.80017185070245;16.550096107260345;2.2586986433946263;-1.1259765625;0.12646484375;-0.404296875;-31.0625;4.4375;-4.875;
1441975946323150;0.43927001953125;-0.68707275390625;-0.39892578125;-0.41943359375;15.793350328818484;16.571389803764077;2.285839411598049;-1.06005859375;0.08349609375;-0.34521484375;-18.75;7.4375;-3.4375;
1441975946344152;0.44061279296875;-0.68719482421875;-0.398193359375;-0.41851806640625;15.782269474544965;16.589379894454176;2.3078159287545947;-0.98828125;0.11083984375;-0.3359375;-5.4375;8.8125;-2.1875;
1441975946367153;0.44256591796875;-0.6868896484375;-0.3980712890625;-0.4171142578125;15.7706228449272;16.603917812305003;2.3326421146373995;-1.0;0.19189453125;-0.3935546875;-2.9375;6.6875;-4.8125;
1441975946389154;0.44573974609375;-0.68505859375;-0.39959716796875;-0.41522216796875;15.767814363138438;16.608452554773784;2.361931031835752;-0.994140625;0.23291015625;-0.44677734375;-8.75;3.75;-8.0625;
1441975946404155;0.4505615234375;-0.68267822265625;-0.4010009765625;-0.41253662109375;15.760368609261727;16.626490721104588;2.413104755622373;-0.9365234375;0.2236328125;-0.43408203125;-22.6875;0.25;-12.25;
1441975946451158;0.4560546875;-0.6810302734375;-0.402099609375;-0.40814208984375;15.73128961111878;16.647488331943457;2.470930880155604;-0.88330078125;0.201171875;-0.4267578125;-29.6875;5.5625;-17.6875;
1441975946454158;0.463134765625;-0.67767333984375;-0.4052734375;-0.402587890625;15.70704636955315;16.654152490048617;2.533688172776438;-0.82421875;0.27001953125;-0.47265625;-31.75;12.5625;-20.5;
1441975946466159;0.47100830078125;-0.67279052734375;-0.4090576171875;-0.3978271484375;15.700873932654178;16.66381208925513;2.60589064727445;-0.80322265625;0.294921875;-0.462890625;-49.8125;11.375;-25.375;
1441975946487160;0.477783203125;-0.66815185546875;-0.41259765625;-0.3939208984375;15.700769159762404;16.669834751512123;2.6672885518492566;-0.75244140625;0.18896484375;-0.4482421875;-58.125;4.75;-26.625;
1441975946509161;0.4832763671875;-0.66448974609375;-0.4154052734375;-0.39031982421875;15.69590660353444;16.673681247254198;2.7167302597603094;-0.70849609375;0.15869140625;-0.39697265625;-51.4375;2.3125;-22.75;
1441975946526162;0.48870849609375;-0.66064453125;-0.41845703125;-0.38690185546875;15.694605851694792;16.675055966965026;2.7642821164532263;-0.6748046875;0.21337890625;-0.42724609375;-41.5625;-0.0625;-21.8125;
1441975946554164;0.49420166015625;-0.65631103515625;-0.4219970703125;-0.38348388671875;15.69789837899285;16.671964274028923;2.8104018717545545;-0.65234375;0.22314453125;-0.4404296875;-42.3125;-3.5;-22.8125;
1441975946571165;0.49945068359375;-0.6519775390625;-0.4256591796875;-0.3798828125;15.700237555808886;16.664792445578065;2.8525599629247727;-0.6259765625;0.1962890625;-0.4169921875;-45.9375;-5.3125;-21.75;
1441975946586165;0.50439453125;-0.6480712890625;-0.42926025390625;-0.3759765625;15.69731910596369;16.654010852748144;2.889646630552915;-0.58056640625;0.19140625;-0.37744140625;-45.8125;-3.6875;-20.5;
1441975946607167;0.508544921875;-0.6446533203125;-0.43310546875;-0.37188720703125;15.691346077076483;16.632506741954728;2.9134883337432873;-0.5810546875;0.18017578125;-0.359375;-45.25;-1.3125;-16.625;
1441975946629168;0.51165771484375;-0.64178466796875;-0.43682861328125;-0.3682861328125;15.686913547294798;16.605131730405937;2.925031384925907;-0.59814453125;0.18408203125;-0.35302734375;-43.3125;-1.125;-11.375;
1441975946644169;0.513916015625;-0.63885498046875;-0.44061279296875;-0.3656005859375;15.69206116428347;16.573827006119423;2.927834346332846;-0.6337890625;0.2158203125;-0.384765625;-37.6875;-5.375;-8.625;
1441975946667170;0.515380859375;-0.63623046875;-0.44451904296875;-0.36334228515625;15.700109872300832;16.535829075909707;2.9198398875103657;-0.65478515625;0.20263671875;-0.4013671875;-34.375;-11.9375;-6.4375;
1441975946689171;0.51617431640625;-0.6339111328125;-0.44842529296875;-0.36151123046875;15.71040171104514;16.493384474991025;2.903290170912859;-0.6513671875;0.1904296875;-0.3896484375;-31.375;-14.6875;-2.9375;
1441975946704172;0.51629638671875;-0.6319580078125;-0.45208740234375;-0.36016845703125;15.722180320450974;16.44929945000798;2.8799150326050738;-0.6640625;0.185546875;-0.3720703125;-27.6875;-16.0;-0.0625;
1441975946727173;0.515625;-0.63043212890625;-0.4554443359375;-0.359619140625;15.737522277187072;16.404168173263287;2.8487125976518644;-0.68017578125;0.17919921875;-0.35498046875;-23.5625;-16.75;3.0;
1441975946743174;0.5135498046875;-0.62982177734375;-0.457763671875;-0.36065673828125;15.758411318265342;16.363442170815386;2.807470848332368;-0.6796875;0.1650390625;-0.33642578125;-17.125;-19.125;5.0625;
1441975946766176;0.51019287109375;-0.63006591796875;-0.4598388671875;-0.3623046875;15.77844678297388;16.315129993549554;2.7499105683820395;-0.7138671875;0.1640625;-0.32763671875;-3.8125;-22.5625;7.6875;
1441975946787177;0.50634765625;-0.6300048828125;-0.462890625;-0.364013671875;15.802773577770088;16.250101210519556;2.6777861845181015;-0.75048828125;0.23291015625;-0.3427734375;4.9375;-26.0;8.5;
1441975946802178;0.50262451171875;-0.6292724609375;-0.46636962890625;-0.365966796875;15.833512518510885;16.180267120594337;2.6037158832878777;-0.783203125;0.27197265625;-0.3330078125;2.75;-30.0;9.5;
1441975946826179;0.4984130859375;-0.628173828125;-0.46978759765625;-0.3692626953125;15.877257164512123;16.10805912119751;2.5228467166497373;-0.77392578125;0.236328125;-0.314453125;-0.875;-33.25;10.0;
1441975946847180;0.4932861328125;-0.6280517578125;-0.47247314453125;-0.37298583984375;15.915020086308672;16.034625677375637;2.4318655928793604;-0.7998046875;0.1669921875;-0.27197265625;1.8125;-36.8125;11.6875;
1441975946869182;0.48760986328125;-0.6282958984375;-0.4752197265625;-0.37640380859375;15.945534173128964;15.951755640188708;2.3298454369245114;-0.76904296875;0.19677734375;-0.2646484375;11.3125;-37.625;13.0625;
1441975946886183;0.48187255859375;-0.62841796875;-0.4779052734375;-0.38018798828125;15.977943298657692;15.866831970732912;2.2247320474434353;-0.767578125;0.25830078125;-0.25048828125;13.25;-37.1875;13.125;
1441975946908184;0.475341796875;-0.62908935546875;-0.48077392578125;-0.3836669921875;16.000813931724128;15.768993382392155;2.104210002507296;-0.81689453125;0.2294921875;-0.228515625;14.0;-36.9375;14.8125;
1441975946929185;0.46807861328125;-0.63055419921875;-0.48321533203125;-0.3870849609375;16.013489864919364;15.668617718482935;1.975626749072094;-0.83349609375;0.23095703125;-0.173828125;16.5;-34.0625;20.625;
1441975946946186;0.4603271484375;-0.63262939453125;-0.48553466796875;-0.39019775390625;16.01523214649313;15.565133084430682;1.8412508869132054;-0.84423828125;0.23046875;-0.13818359375;21.6875;-31.0625;25.6875;
1441975946967187;0.45208740234375;-0.6351318359375;-0.48760986328125;-0.39312744140625;16.00813519849429;15.461309706086622;1.7036409959096093;-0.86474609375;0.22412109375;-0.109375;24.5625;-28.1875;30.6875;
1441975946992189;0.44305419921875;-0.6390380859375;-0.48883056640625;-0.39556884765625;15.982327106276335;15.367096415578526;1.5680764765070199;-0.86279296875;0.19775390625;-0.0712890625;27.125;-24.875;35.75;
1441975947006189;0.433349609375;-0.6444091796875;-0.4888916015625;-0.39752197265625;15.938506640440243;15.29041992887337;1.441710248856514;-0.857421875;0.2119140625;-0.0458984375;35.3125;-19.0;41.625;
1441975947027191;0.422607421875;-0.65179443359375;-0.48736572265625;-0.3988037109375;15.871751773325027;15.237241121730161;1.3269808971830588;-0.86328125;0.2001953125;-0.02197265625;44.125;-11.3125;47.9375;
1441975947043192;0.41143798828125;-0.660400390625;-0.48553466796875;-0.3985595703125;15.781194381172567;15.196684783960906;1.2232504670483209;-0.86767578125;0.232421875;-0.00146484375;57.25;-1.8125;54.125;
1441975947066193;0.400634765625;-0.66876220703125;-0.484375;-0.39703369140625;15.680237556325832;15.158328795054018;1.1288664575863185;-0.86865234375;0.31591796875;-0.0185546875;59.75;5.5;57.5;
1441975947086194;0.39031982421875;-0.6768798828125;-0.48406982421875;-0.39398193359375;15.566964521332698;15.121630279420724;1.0448935188788921;-0.880859375;0.33203125;-0.0224609375;53.1875;9.5625;61.25;
1441975947109195;0.38067626953125;-0.68487548828125;-0.48370361328125;-0.39007568359375;15.448704348910082;15.096661967552592;0.9769758145764147;-0.84326171875;0.35986328125;-0.044921875;44.5;12.3125;63.6875;
1441975947126196;0.37109375;-0.69317626953125;-0.483154296875;-0.38531494140625;15.321141111684813;15.080836037273379;0.9190294174450809;-0.828125;0.35498046875;-0.06005859375;40.875;16.8125;63.9375;
1441975947146197;0.36187744140625;-0.70123291015625;-0.483154296875;-0.37939453125;15.185045198546982;15.066376736403592;0.8688552329436453;-0.81787109375;0.38818359375;-0.091796875;39.9375;20.0625;65.375;
1441975947169199;0.3531494140625;-0.70904541015625;-0.48370361328125;-0.372314453125;15.040917461454582;15.053612170957367;0.8272032763349104;-0.82568359375;0.4208984375;-0.10791015625;34.0625;23.3125;67.4375;
1441975947186200;0.34503173828125;-0.71624755859375;-0.48492431640625;-0.3646240234375;14.896070012659399;15.039291634990047;0.7912066515926941;-0.8251953125;0.43310546875;-0.1328125;27.4375;26.625;70.0;
1441975947207201;0.33740234375;-0.722900390625;-0.486328125;-0.35662841796875;14.75313561529477;15.026404334173359;0.7609351743343797;-0.8388671875;0.4521484375;-0.140625;20.625;28.875;70.4375;
1441975947229202;0.32958984375;-0.7301025390625;-0.48687744140625;-0.34832763671875;14.60493521002543;15.023992860169459;0.7368880187572727;-0.83544921875;0.4384765625;-0.13134765625;16.875;30.8125;70.5625;
1441975947253204;0.32183837890625;-0.7373046875;-0.487548828125;-0.33941650390625;14.451274292717425;15.022838600721869;0.7161110794194032;-0.826171875;0.458984375;-0.16455078125;21.0;33.1875;71.625;
1441975947267204;0.31427001953125;-0.74468994140625;-0.4879150390625;-0.3297119140625;14.290730551527979;15.027357646659086;0.7019849248567189;-0.78466796875;0.4873046875;-0.17041015625;20.125;35.3125;71.875;
1441975947289206;0.30718994140625;-0.75152587890625;-0.4891357421875;-0.31884765625;14.123326900926754;15.02722954353726;0.6920432485807596;-0.75927734375;0.51220703125;-0.20947265625;19.125;38.375;72.625;
1441975947306207;0.3009033203125;-0.757568359375;-0.4910888671875;-0.3072509765625;13.955680377182233;15.023136016374755;0.6872522838235559;-0.73779296875;0.548828125;-0.2392578125;10.9375;40.6875;72.875;
1441975947327208;0.29498291015625;-0.76275634765625;-0.493408203125;-0.29638671875;13.800084931187088;15.014451341490531;0.680729261722086;-0.7587890625;0.56298828125;-0.29248046875;1.0625;41.75;73.625;
1441975947350209;0.28857421875;-0.76837158203125;-0.494384765625;-0.286376953125;13.649798137232345;15.014523247034086;0.6732401954871894;-0.78466796875;0.51318359375;-0.30126953125;-3.8125;38.5625;74.3125;
1441975947366210;0.281005859375;-0.775146484375;-0.49365234375;-0.2767333984375;13.494214426240912;15.026239485142728;0.6632228025436042;-0.791015625;0.47998046875;-0.3076171875;4.3125;37.0625;76.0;
1441975947387211;0.27288818359375;-0.781982421875;-0.49261474609375;-0.26727294921875;13.337858342408373;15.038467596793561;0.6497962175768455;-0.76904296875;0.53515625;-0.32958984375;18.3125;36.3125;76.6875;
1441975947409212;0.26458740234375;-0.78826904296875;-0.4921875;-0.2576904296875;13.181239196874682;15.044787381835818;0.6334447150024819;-0.76806640625;0.60498046875;-0.33935546875;22.375;35.0625;76.8125;
1441975947426213;0.2569580078125;-0.7938232421875;-0.492431640625;-0.247802734375;13.027382586049184;15.046942211417475;0.6202254306942295;-0.728515625;0.65673828125;-0.33935546875;19.8125;33.8125;75.3125;
1441975947447215;0.25018310546875;-0.7984619140625;-0.49322509765625;-0.23809814453125;12.882607191323617;15.045247096063905;0.6100099301712518;-0.6845703125;0.671875;-0.33154296875;14.0625;34.625;72.0625;
1441975947477216;0.24420166015625;-0.802490234375;-0.494140625;-0.22857666015625;12.745746149400917;15.04303150648303;0.6036592864396169;-0.67333984375;0.65380859375;-0.32275390625;7.875;35.1875;68.8125;
1441975947486217;0.23858642578125;-0.80609130859375;-0.49517822265625;-0.219482421875;12.616295075157504;15.03961001090276;0.597858782008513;-0.64892578125;0.626953125;-0.33935546875;3.5625;34.9375;65.5;
1441975947507218;0.23291015625;-0.80950927734375;-0.4959716796875;-0.21099853515625;12.493239315281592;15.03687452298337;0.5904478044852244;-0.62158203125;0.62158203125;-0.3447265625;1.3125;32.875;62.625;
1441975947531219;0.22735595703125;-0.8131103515625;-0.49615478515625;-0.20263671875;12.371763368033095;15.038674163689365;0.5848791808153585;-0.60205078125;0.61083984375;-0.349609375;1.9375;29.9375;60.9375;
1441975947546220;0.22210693359375;-0.81610107421875;-0.49688720703125;-0.19439697265625;12.254746289051393;15.036139256362073;0.5794176373258735;-0.5615234375;0.63671875;-0.3662109375;5.5625;29.5;58.0625;
1441975947567221;0.2174072265625;-0.81842041015625;-0.49822998046875;-0.1865234375;12.145935315858344;15.029187599150513;0.5747175505309656;-0.5390625;0.6767578125;-0.37646484375;1.75;28.1875;54.4375;
1441975947589223;0.21319580078125;-0.82037353515625;-0.49957275390625;-0.17901611328125;12.0443654301822;15.022090837727218;0.571752058012314;-0.52734375;0.67236328125;-0.38525390625;-3.625;26.125;51.1875;
1441975947605224;0.2095947265625;-0.8218994140625;-0.5010986328125;-0.1717529296875;11.94957590914257;15.01382585933079;0.5711875189881389;-0.49462890625;0.6630859375;-0.42041015625;-7.375;23.9375;47.1875;
1441975947627225;0.2064208984375;-0.82354736328125;-0.502197265625;-0.16461181640625;11.85804847305539;15.009073049784464;0.5735390598937938;-0.46240234375;0.63134765625;-0.4140625;-10.3125;23.25;43.625;
1441975947657227;0.20367431640625;-0.8253173828125;-0.50250244140625;-0.15771484375;11.771128717681506;15.00969378922222;0.5789112933172958;-0.421875;0.62548828125;-0.42138671875;-9.0625;23.8125;40.25;
1441975947665227;0.201416015625;-0.82684326171875;-0.50274658203125;-0.15179443359375;11.69702294398756;15.010426519676948;0.5840545173120388;-0.419921875;0.64404296875;-0.46484375;-6.6875;23.75;36.6875;
1441975947689228;0.19952392578125;-0.82794189453125;-0.50335693359375;-0.14654541015625;11.632504342889646;15.008288263391231;0.5885143229301653;-0.458984375;0.65966796875;-0.4931640625;-7.5;21.4375;33.3125;
1441975947711230;0.197998046875;-0.82855224609375;-0.50408935546875;-0.1424560546875;11.58258730046476;15.004394378161773;0.5912748530469909;-0.4638671875;0.68701171875;-0.51806640625;-10.5625;17.9375;29.8125;
1441975947732231;0.196533203125;-0.82916259765625;-0.5045166015625;-0.1392822265625;11.542014092984546;15.002104168979558;0.5921533383416332;-0.4560546875;0.66845703125;-0.51708984375;-12.125;13.375;25.0;
1441975947748232;0.19482421875;-0.83013916015625;-0.50439453125;-0.13641357421875;11.502252370961445;15.003448326899766;0.5917024790958787;-0.4306640625;0.640625;-0.48583984375;-9.0;9.8125;21.25;
1441975947769233;0.1927490234375;-0.831298828125;-0.50390625;-0.13385009765625;11.463108517033193;15.00672206585411;0.5889392415727583;-0.3740234375;0.63720703125;-0.4580078125;-3.75;7.8125;19.1875;
1441975947785234;0.19049072265625;-0.832763671875;-0.50299072265625;-0.131591796875;11.425255848618892;15.01289340817329;0.5849371819307209;-0.36474609375;0.63916015625;-0.44580078125;0.625;6.375;19.4375;
1441975947808235;0.18829345703125;-0.83404541015625;-0.5020751953125;-0.1297607421875;11.392410713191474;15.018583532754421;0.5799636785329363;-0.3837890625;0.6640625;-0.46044921875;3.625;5.1875;20.1875;
1441975947829236;0.1864013671875;-0.83514404296875;-0.50140380859375;-0.128173828125;11.364031687244616;15.02285739385879;0.5755261447741058;-0.4248046875;0.67919921875;-0.48388671875;3.0;4.5625;20.625;
1441975947845237;0.18450927734375;-0.8365478515625;-0.50018310546875;-0.12652587890625;11.334381661852582;15.030973436773118;0.572046531688246;-0.4306640625;0.66064453125;-0.4384765625;3.1875;5.0625;19.5625;
1441975947868239;0.18280029296875;-0.838134765625;-0.49859619140625;-0.1248779296875;11.305318315449703;15.041827611930984;0.5700260106356475;-0.3857421875;0.6767578125;-0.41259765625;8.9375;6.0625;16.875;
1441975947889240;0.18121337890625;-0.83941650390625;-0.49737548828125;-0.1231689453125;11.277031366968217;15.050007411395725;0.5682563837761282;-0.36474609375;0.6962890625;-0.40869140625;12.125;6.6875;14.4375;
1441975947905241;0.1798095703125;-0.84039306640625;-0.49676513671875;-0.1212158203125;11.247999598339296;15.05431397613684;0.5672828433111439;-0.35107421875;0.72412109375;-0.42138671875;9.4375;6.125;12.8125;
1441975947928242;0.17864990234375;-0.84124755859375;-0.49627685546875;-0.11907958984375;11.218749880689643;15.057952156198851;0.567942306466845;-0.31689453125;0.7109375;-0.43408203125;4.5;5.6875;11.375;
1441975947949243;0.17755126953125;-0.84197998046875;-0.495849609375;-0.11712646484375;11.191920302653703;15.060976724382964;0.5682950154817838;-0.30029296875;0.71044921875;-0.44677734375;2.4375;6.1875;10.1875;
1441975947965244;0.17669677734375;-0.84246826171875;-0.49566650390625;-0.115478515625;11.169965301616184;15.0623053366667;0.5687286252491089;-0.31298828125;0.72314453125;-0.45849609375;1.75;5.5625;9.625;
1441975947989246;0.1761474609375;-0.84271240234375;-0.495849609375;-0.114013671875;11.151996833097227;15.061378803107734;0.5697698995591178;-0.31884765625;0.74072265625;-0.45654296875;0.625;5.0;7.75;
1441975948009247;0.17578125;-0.84271240234375;-0.4962158203125;-0.11297607421875;11.139790653970243;15.05900397008048;0.5703198666344005;-0.3251953125;0.7548828125;-0.4501953125;-0.9375;4.875;5.625;
1441975948025248;0.17547607421875;-0.8427734375;-0.49639892578125;-0.11236572265625;11.131989625463891;15.057837722481965;0.5702139261715172;-0.3232421875;0.7421875;-0.43798828125;-1.875;3.4375;4.1875;
1441975948048249;0.17523193359375;-0.84259033203125;-0.49688720703125;-0.11181640625;11.125678915571651;15.054436098224235;0.5698607611075762;-0.32763671875;0.73876953125;-0.427734375;-0.25;2.0625;2.8125;
1441975948069250;0.17523193359375;-0.842041015625;-0.497802734375;-0.11181640625;11.12692909787629;15.048021796781622;0.5686726074281634;-0.30712890625;0.73681640625;-0.419921875;-1.6875;0.875;1.25;
1441975948085251;0.17529296875;-0.84136962890625;-0.49871826171875;-0.11279296875;11.138409299078202;15.041294341739743;0.5649957366309661;-0.29833984375;0.7119140625;-0.39501953125;-4.25;-1.25;-1.5;
1441975948108252;0.17523193359375;-0.8408203125;-0.49920654296875;-0.1148681640625;11.159779936707645;15.03694915854063;0.5580475480447203;-0.29150390625;0.64697265625;-0.3564453125;-3.5;-5.4375;-3.25;
1441975948129254;0.17547607421875;-0.83978271484375;-0.50006103515625;-0.11822509765625;11.196498779045687;15.029520978217024;0.5484703092953872;-0.29248046875;0.6376953125;-0.34033203125;0.25;-10.0625;-6.0;
1441975948145255;0.17620849609375;-0.83831787109375;-0.50115966796875;-0.12286376953125;11.249378966674424;15.019985007434734;0.5373137623352774;-0.29931640625;0.5966796875;-0.302734375;-1.3125;-15.0;-10.1875;
1441975948168256;0.17767333984375;-0.836669921875;-0.50177001953125;-0.12908935546875;11.322258337346224;15.01314584455665;0.5259103198136705;-0.30908203125;0.55078125;-0.27392578125;-2.5625;-19.5625;-15.1875;
1441975948189257;0.1798095703125;-0.8349609375;-0.5015869140625;-0.1376953125;11.422393166390926;15.01070773990493;0.5120326475651753;-0.3291015625;0.49072265625;-0.26123046875;-1.0;-24.1875;-21.4375;
1441975948213258;0.18231201171875;-0.8333740234375;-0.500244140625;-0.14874267578125;11.548448055984322;15.014593337567954;0.49446456377908987;-0.36572265625;0.4150390625;-0.23974609375;3.1875;-31.1875;-28.5;
1441975948242260;0.18511962890625;-0.83148193359375;-0.49835205078125;-0.1614990234375;11.69392578336214;15.02015400380613;0.47412895676080663;-0.40869140625;0.3623046875;-0.22998046875;10.375;-39.4375;-35.1875;
1441975948249260;0.1885986328125;-0.82904052734375;-0.49639892578125;-0.17535400390625;11.855310142979283;15.02458657299079;0.45398725815803903;-0.4189453125;0.3427734375;-0.20751953125;14.1875;-46.0;-42.125;
1441975948265261;0.19287109375;-0.82611083984375;-0.4942626953125;-0.18994140625;12.029599538631517;15.02903275069761;0.4359952175310237;-0.423828125;0.30908203125;-0.1826171875;13.5;-49.375;-48.5;
1441975948288263;0.19793701171875;-0.82275390625;-0.49169921875;-0.2054443359375;12.21859913154502;15.035036145518927;0.4201028467595976;-0.44189453125;0.26708984375;-0.1533203125;13.5;-49.75;-53.625;
1441975948309264;0.20355224609375;-0.81903076171875;-0.48809814453125;-0.22265625;12.429108415275957;15.045497238660237;0.40379958677248073;-0.47119140625;0.23828125;-0.1396484375;14.5;-50.8125;-59.1875;
1441975948325265;0.20953369140625;-0.81524658203125;-0.48272705078125;-0.241943359375;12.663580488501282;15.065188305751448;0.38691465986905615;-0.5185546875;0.185546875;-0.126953125;18.25;-55.375;-65.4375;
1441975948349266;0.21551513671875;-0.81134033203125;-0.47576904296875;-0.2628173828125;12.91568435417655;15.092685112702018;0.3690534476070564;-0.59716796875;0.14111328125;-0.1337890625;27.25;-60.75;-70.5625;
1441975948369267;0.2220458984375;-0.80682373046875;-0.46771240234375;-0.28472900390625;13.184336446307944;15.125605623130365;0.35450781739615445;-0.67041015625;0.158203125;-0.1650390625;35.3125;-66.1875;-76.0625;
1441975948385268;0.22943115234375;-0.80108642578125;-0.45965576171875;-0.30731201171875;13.468541897645906;15.156672128830937;0.3435774142630636;-0.74462890625;0.1796875;-0.19970703125;38.5625;-69.625;-83.5;
1441975948408270;0.236572265625;-0.794677734375;-0.4530029296875;-0.32781982421875;13.73277472093975;15.178235074593026;0.3345681269022972;-0.81591796875;0.2099609375;-0.20849609375;35.3125;-71.875;-91.375;
1441975948429271;0.2445068359375;-0.78668212890625;-0.4461669921875;-0.349853515625;14.022300938371755;15.196634587857066;0.32534370648144034;-0.90087890625;0.22900390625;-0.2060546875;27.5;-74.8125;-101.25;
1441975948445272;0.251708984375;-0.7783203125;-0.43719482421875;-0.37384033203125;14.332132723623912;15.22443175611313;0.3120508289662067;-1.0419921875;0.12548828125;-0.201171875;24.25;-81.625;-109.125;
1441975948468273;0.2586669921875;-0.76922607421875;-0.42645263671875;-0.3995361328125;14.663616708673784;15.26051630520232;0.2983674751666904;-1.16552734375;0.0859375;-0.1953125;36.75;-89.875;-114.875;
1441975948489274;0.26666259765625;-0.7581787109375;-0.41571044921875;-0.42584228515625;15.015220659655116;15.294442545082502;0.2900062903885602;-1.22021484375;0.158203125;-0.2177734375;46.5625;-97.6875;-124.25;
1441975948505275;0.27618408203125;-0.7445068359375;-0.406005859375;-0.452392578125;15.387330479325273;15.317851266520432;0.2860109131019476;-1.2431640625;0.2255859375;-0.24609375;40.25;-103.5;-135.3125;
1441975948528276;0.2852783203125;-0.729248046875;-0.3955078125;-0.4801025390625;15.778690974059081;15.33786296000986;0.2755325710831982;-1.3720703125;0.150390625;-0.2451171875;26.3125;-108.75;-143.25;
1441975948549278;0.29266357421875;-0.71331787109375;-0.382568359375;-0.5091552734375;16.18489134569822;15.365963072309807;0.25736564351385777;-1.4951171875;0.017578125;-0.2216796875;28.1875;-117.6875;-146.875;
1441975948565279;0.30078125;-0.69512939453125;-0.369140625;-0.53863525390625;16.612913987647193;15.395096786882737;0.24524859667153892;-1.6025390625;0.05322265625;-0.1982421875;44.25;-125.5;-152.6875;
1441975948587280;0.3101806640625;-0.674072265625;-0.355712890625;-0.568359375;17.066385821075084;15.425408050939861;0.24436046600089523;-1.68115234375;0.12353515625;-0.19580078125;40.5625;-132.4375;-164.0625;
1441975948609281;0.31939697265625;-0.6505126953125;-0.3411865234375;-0.5987548828125;17.544867416623756;15.465026350449246;0.2519102972348625;-1.79736328125;0.0654296875;-0.201171875;30.6875;-140.75;-175.3125;
1441975948625282;0.3277587890625;-0.625244140625;-0.324951171875;-0.62939453125;17.95939965720193;5.921883362177679;8.670397109809294;-1.888671875;-0.01416015625;-0.201171875;31.8125;-151.5;-184.6875;
1441975948647283;0.336181640625;-0.59844970703125;-0.3082275390625;-0.65869140625;17.46168982639973;6.398377155751088;9.112339980857628;-2.03759765625;-0.0341796875;-0.20166015625;38.1875;-158.6875;-192.9375;
1441975948671285;0.34375;-0.5701904296875;-0.29046630859375;-0.68731689453125;16.955935749178813;6.438711558815401;9.115093613920068;-2.0791015625;-0.0419921875;-0.1943359375;34.8125;-160.1875;-197.6875;
1441975948693286;0.348388671875;-0.5411376953125;-0.2706298828125;-0.7159423828125;16.44501495272443;6.490106559053511;9.111788629472438;-2.02734375;-0.10986328125;-0.18359375;38.3125;-164.25;-201.375;
1441975948707287;0.350830078125;-0.51104736328125;-0.249755859375;-0.74395751953125;15.931611815862997;6.548370282690398;9.105727309163445;-1.9853515625;-0.12939453125;-0.18505859375;55.3125;-170.375;-203.1875;
1441975948731288;0.3526611328125;-0.4791259765625;-0.22882080078125;-0.77056884765625;15.41227743914416;6.6012900361545235;9.096541899742562;-1.958984375;-0.05859375;-0.20654296875;65.3125;-176.25;-205.1875;
1441975948745289;0.3541259765625;-0.4456787109375;-0.20770263671875;-0.7955322265625;14.888916947725836;6.646783608842538;9.082150985201292;-1.88427734375;-0.03173828125;-0.19482421875;62.4375;-182.25;-207.4375;
1441975948767290;0.3548583984375;-0.41162109375;-0.18646240234375;-0.8184814453125;14.371802836803106;6.688165491967772;9.063410275904136;-1.7763671875;-0.00830078125;-0.17138671875;59.25;-185.1875;-209.4375;
1441975948791292;0.35394287109375;-0.37774658203125;-0.164794921875;-0.839599609375;13.867082921538296;6.732447739722445;9.040439011295339;-1.6767578125;-4.8828125E-4;-0.14453125;58.0;-183.8125;-207.875;
1441975948805292;0.35150146484375;-0.34442138671875;-0.1431884765625;-0.85870361328125;13.379944469716571;6.779913513381654;9.015017185931338;-1.48974609375;0.00390625;-0.1181640625;62.8125;-179.375;-203.5;
1441975948834294;0.34808349609375;-0.31201171875;-0.1224365234375;-0.87548828125;12.916617239622582;6.828064814637683;8.989547511350684;-1.2783203125;0.04931640625;-0.11572265625;66.4375;-172.875;-196.375;
1441975948851295;0.34503173828125;-0.28070068359375;-0.10284423828125;-0.88970947265625;12.478184615019055;6.868669292833035;8.962683379927663;-1.1044921875;0.08642578125;-0.1201171875;65.125;-165.5625;-186.0;
1441975948879297;0.34185791015625;-0.25115966796875;-0.0845947265625;-0.90167236328125;12.071088718694744;6.906100137061888;8.93613126149241;-0.93310546875;0.09521484375;-0.1005859375;56.625;-156.375;-175.25;
1441975948887297;0.33758544921875;-0.224365234375;-0.06829833984375;-0.91162109375;11.707622564851611;6.94708326613046;8.913245689213959;-0.7734375;0.06103515625;-0.07373046875;51.875;-144.9375;-161.5625;
1441975948911298;0.33343505859375;-0.20068359375;-0.05401611328125;-0.91961669921875;11.389734262699132;6.984163357725528;8.891936382938312;-0.64306640625;0.08203125;-0.0615234375;51.625;-130.875;-142.9375;
1441975948933300;0.32958984375;-0.18170166015625;-0.04229736328125;-0.925537109375;11.135869789087645;7.015813843073137;8.87237436729019;-0.53955078125;0.072265625;-0.05078125;45.875;-114.875;-124.25;
1441975948947300;0.32666015625;-0.17041015625;-0.03411865234375;-0.9290771484375;10.981027268230353;7.03734938403203;8.853989903491872;-0.40576171875;0.12744140625;-0.09375;38.4375;-91.1875;-100.6875;
1441975948971302;0.32330322265625;-0.16552734375;-0.02850341796875;-0.9312744140625;10.907044336526113;7.058006605733567;8.836406359349471;-0.26171875;0.14306640625;-0.09423828125;24.5625;-64.0;-76.6875;
1441975948999303;0.31976318359375;-0.16619873046875;-0.025146484375;-0.9324951171875;10.90276584460794;7.077067359455693;8.819915511154404;-0.21044921875;0.2060546875;-0.16796875;22.875;-32.5;-49.375;
1441975949007304;0.3165283203125;-0.17205810546875;-0.02532958984375;-0.9324951171875;10.968979169518404;7.092456118767904;8.812179536391957;-0.17578125;0.33740234375;-0.2685546875;18.0625;-6.9375;-28.3125;
1441975949031305;0.314208984375;-0.183837890625;-0.0294189453125;-0.930908203125;11.114732564926246;7.100021597006342;8.813247975236871;-0.21337890625;0.4150390625;-0.33251953125;10.0625;12.3125;-3.0625;
1441975949052306;0.31536865234375;-0.20428466796875;-0.038330078125;-0.92596435546875;11.373262887288352;7.081113308810883;8.818805750374898;-0.216796875;0.50341796875;-0.3857421875;-3.0;36.375;25.125;
1441975949067307;0.31805419921875;-0.22900390625;-0.0499267578125;-0.918701171875;11.690312040584093;7.04893985525742;8.826645803253736;-0.3505859375;0.4765625;-0.42431640625;-27.9375;69.375;57.4375;
1441975949091309;0.3193359375;-0.26123046875;-0.06536865234375;-0.9085693359375;12.109424058929264;7.018726125111451;8.839141532641541;-0.5517578125;0.3955078125;-0.48583984375;-35.625;108.875;96.4375;
1441975949112310;0.3228759765625;-0.29608154296875;-0.08502197265625;-0.89495849609375;12.578959136703434;6.971688524506615;8.86217850779942;-0.75732421875;0.57763671875;-0.5986328125;-37.0625;141.4375;129.125;
1441975949127311;0.32623291015625;-0.33740234375;-0.10919189453125;-0.87628173828125;13.149255450144029;6.9163057478660654;8.889916001470496;-1.08984375;0.765625;-0.7236328125;-59.875;167.0625;165.9375;
1441975949158312;0.32452392578125;-0.386474609375;-0.1357421875;-0.85260009765625;13.83394805883885;6.878698085335161;8.91649750049013;-1.46142578125;0.67626953125;-0.78466796875;-72.6875;200.875;204.3125;
1441975949171313;0.318603515625;-0.444091796875;-0.16558837890625;-0.8209228515625;14.657364628234532;6.847768317715293;8.942232819868801;-1.7568359375;0.578125;-0.8310546875;-56.4375;241.875;243.4375;
1441975949187314;0.31011962890625;-0.5059814453125;-0.19891357421875;-0.77996826171875;15.586350799546679;6.815647388985856;8.975222516149564;-2.0703125;0.63818359375;-0.94873046875;-51.375;292.0;291.125;
1441975949211316;0.2960205078125;-0.57061767578125;-0.2337646484375;-0.7294921875;16.614005540490236;6.821573126581883;9.03862635834063;-2.52587890625;0.57373046875;-0.97802734375;-61.375;327.5625;331.5;
1441975949232317;0.277587890625;-0.63507080078125;-0.2685546875;-0.66900634765625;17.71542987450559;7.118524516062595;9.3908996315819;-2.87890625;0.533203125;-0.943359375;-53.9375;358.625;370.3125;
1441975949254318;0.26043701171875;-0.693359375;-0.30535888671875;-0.59857177734375;17.14932768142515;15.549595381333798;17.914676979215177;-3.2197265625;0.70361328125;-0.95947265625;-53.5;385.3125;397.9375;
1441975949271319;0.24969482421875;-0.7398681640625;-0.34979248046875;-0.517578125;16.014703938030355;15.513420064122414;0.06236646901049577;-3.42626953125;1.201171875;-1.04296875;-90.9375;396.625;406.4375;
1441975949292320;0.24920654296875;-0.7659912109375;-0.40582275390625;-0.431884765625;14.975196957572098;15.310682969608035;0.1777799086071983;-3.7197265625;1.4658203125;-1.2568359375;-180.25;398.25;408.375;
1441975949308321;0.239990234375;-0.77532958984375;-0.4630126953125;-0.3563232421875;14.077895609738663;15.00629484855279;0.19122362926137737;-3.82275390625;1.5146484375;-1.31494140625;-308.1875;361.5;379.4375;
1441975949331322;0.2205810546875;-0.78948974609375;-0.49462890625;-0.2889404296875;13.240593612071057;14.88736973941331;0.2425852971727773;-4.013671875;0.86279296875;-1.0107421875;-315.75;252.6875;372.6875;
1441975949352324;0.20111083984375;-0.79766845703125;-0.51922607421875;-0.2318115234375;12.535430436442986;14.783759567114396;0.2818443279483766;-3.373046875;0.3193359375;-1.35595703125;-156.625;234.125;349.9375;
1441975949367324;0.18243408203125;-0.79632568359375;-0.5455322265625;-0.187255859375;11.981739585975212;14.634641479183415;0.2852220695956203;-3.49560546875;0.48095703125;-1.03857421875;-128.0;185.9375;301.8125;
1441975949398326;0.16845703125;-0.78851318359375;-0.57293701171875;-0.14715576171875;11.515579105769746;14.468486878085924;0.30770443097453176;-3.43017578125;0.330078125;-0.416015625;-151.25;116.3125;251.5;
1441975949412327;0.15625;-0.77764892578125;-0.598876953125;-0.11083984375;11.106981836215175;14.303131227121437;0.33925353908952505;-2.84814453125;0.13818359375;-0.2880859375;-176.6875;102.1875;210.625;
